#,Wave/freq,Total,N2,O2,CO2,Rayleigh,CIA
4.000000000e-01,1.79287e-03,9.99999e-01,9.99999e-01,9.99999e-01,1.79287e-03,9.99999e-01
4.020000000e-01,2.03168e-03,9.99999e-01,9.99999e-01,9.99999e-01,2.03168e-03,9.99999e-01
4.040100000e-01,2.29632e-03,9.99999e-01,9.99999e-01,9.99999e-01,2.29632e-03,9.99999e-01
4.060300500e-01,2.58915e-03,9.99999e-01,9.99999e-01,9.99999e-01,2.58915e-03,9.99999e-01
4.080602003e-01,2.91242e-03,9.99999e-01,9.99999e-01,9.99999e-01,2.91242e-03,9.99999e-01
4.101005013e-01,3.26845e-03,9.99999e-01,9.99999e-01,9.99999e-01,3.26845e-03,9.99999e-01
4.121510038e-01,3.65965e-03,9.99999e-01,9.99999e-01,9.99999e-01,3.65965e-03,9.99999e-01
4.142117588e-01,4.08853e-03,9.99999e-01,9.99999e-01,9.99999e-01,4.08853e-03,9.99999e-01
4.162828176e-01,4.55769e-03,9.99999e-01,9.99999e-01,9.99999e-01,4.55769e-03,9.99999e-01
4.183642317e-01,5.06980e-03,9.99999e-01,9.99999e-01,9.99999e-01,5.06980e-03,9.99999e-01
4.204560528e-01,5.62759e-03,9.99999e-01,9.99999e-01,9.99999e-01,5.62759e-03,9.99999e-01
4.225583331e-01,6.23390e-03,9.99999e-01,9.99999e-01,9.99999e-01,6.23390e-03,9.99999e-01
4.246711247e-01,6.89157e-03,9.99999e-01,9.99999e-01,9.99999e-01,6.89157e-03,9.99999e-01
4.267944804e-01,7.60356e-03,9.99999e-01,9.99999e-01,9.99999e-01,7.60356e-03,9.99999e-01
4.289284528e-01,8.37283e-03,9.99999e-01,9.99999e-01,9.99999e-01,8.37283e-03,9.99999e-01
4.310730950e-01,9.20239e-03,9.99999e-01,9.99999e-01,9.99999e-01,9.20239e-03,9.99999e-01
4.332284605e-01,1.00953e-02,9.99999e-01,9.99999e-01,9.99999e-01,1.00953e-02,9.99999e-01
4.353946028e-01,1.10546e-02,9.99999e-01,9.99999e-01,9.99999e-01,1.10546e-02,9.99999e-01
4.375715758e-01,1.20833e-02,9.99999e-01,9.99999e-01,9.99999e-01,1.20833e-02,9.99999e-01
4.397594337e-01,1.31847e-02,9.99999e-01,9.99999e-01,9.99999e-01,1.31847e-02,9.99999e-01
4.419582309e-01,1.43616e-02,9.99999e-01,9.99999e-01,9.99999e-01,1.43616e-02,9.99999e-01
4.441680220e-01,1.56171e-02,9.99999e-01,9.99999e-01,9.99999e-01,1.56171e-02,9.99999e-01
4.463888621e-01,1.69544e-02,9.99999e-01,9.99999e-01,9.99999e-01,1.69544e-02,9.99999e-01
4.486208064e-01,1.83763e-02,9.99999e-01,9.99999e-01,9.99999e-01,1.83763e-02,9.99999e-01
4.508639105e-01,1.98858e-02,9.99999e-01,9.99999e-01,9.99999e-01,1.98858e-02,9.99999e-01
4.531182300e-01,2.14858e-02,9.99999e-01,9.99999e-01,9.99999e-01,2.14858e-02,9.99999e-01
4.553838212e-01,2.31791e-02,9.99999e-01,9.99999e-01,9.99999e-01,2.31791e-02,9.99999e-01
4.576607403e-01,2.49683e-02,9.99999e-01,9.99999e-01,9.99999e-01,2.49683e-02,9.99999e-01
4.599490440e-01,2.68562e-02,9.99999e-01,9.99999e-01,9.99999e-01,2.68562e-02,9.99999e-01
4.622487892e-01,2.88453e-02,9.99999e-01,9.99999e-01,9.99999e-01,2.88453e-02,9.99999e-01
4.645600332e-01,3.09380e-02,9.99999e-01,9.99999e-01,9.99999e-01,3.09380e-02,9.99999e-01
4.668828333e-01,3.31367e-02,9.99999e-01,9.99999e-01,9.99999e-01,3.31367e-02,9.99999e-01
4.692172475e-01,3.54435e-02,9.99999e-01,9.99999e-01,9.99999e-01,3.54435e-02,9.99999e-01
4.715633337e-01,3.78605e-02,9.99999e-01,9.99999e-01,9.99999e-01,3.78605e-02,9.99999e-01
4.739211504e-01,4.03897e-02,9.99999e-01,9.99999e-01,9.99999e-01,4.03897e-02,9.99999e-01
4.762907561e-01,4.30329e-02,9.99999e-01,9.99999e-01,9.99999e-01,4.30329e-02,9.99999e-01
4.786722099e-01,4.57917e-02,9.99999e-01,9.99999e-01,9.99999e-01,4.57917e-02,9.99999e-01
4.810655710e-01,4.86675e-02,9.99999e-01,9.99999e-01,9.99999e-01,4.86675e-02,9.99999e-01
4.834708988e-01,5.16618e-02,9.99999e-01,9.99999e-01,9.99999e-01,5.16618e-02,9.99999e-01
4.858882533e-01,5.47757e-02,9.99999e-01,9.99999e-01,9.99999e-01,5.47757e-02,9.99999e-01
4.883176946e-01,5.80101e-02,9.99999e-01,9.99999e-01,9.99999e-01,5.80101e-02,9.99999e-01
4.907592831e-01,6.13659e-02,9.99999e-01,9.99999e-01,9.99999e-01,6.13659e-02,9.99999e-01
4.932130795e-01,6.48439e-02,9.99999e-01,9.99999e-01,9.99999e-01,6.48439e-02,9.99999e-01
4.956791449e-01,6.84443e-02,9.99999e-01,9.99999e-01,9.99999e-01,6.84443e-02,9.99999e-01
4.981575406e-01,7.21676e-02,9.99999e-01,9.99999e-01,9.99999e-01,7.21676e-02,9.99999e-01
5.006483283e-01,7.60139e-02,9.99999e-01,9.99999e-01,9.99999e-01,7.60139e-02,9.99999e-01
5.031515699e-01,7.99831e-02,9.99999e-01,9.99999e-01,9.99999e-01,7.99831e-02,9.99999e-01
5.056673278e-01,8.40749e-02,9.99999e-01,9.99999e-01,9.99999e-01,8.40749e-02,9.99999e-01
5.081956644e-01,8.82891e-02,9.99999e-01,9.99999e-01,9.99999e-01,8.82891e-02,9.99999e-01
5.107366428e-01,9.26249e-02,9.99999e-01,9.99999e-01,9.99999e-01,9.26249e-02,9.99999e-01
5.132903260e-01,9.70818e-02,9.99999e-01,9.99999e-01,9.99999e-01,9.70818e-02,9.99999e-01
5.158567776e-01,1.01659e-01,9.99999e-01,9.99999e-01,9.99999e-01,1.01659e-01,9.99999e-01
5.184360615e-01,1.06354e-01,9.99999e-01,9.99999e-01,9.99999e-01,1.06354e-01,9.99999e-01
5.210282418e-01,1.11168e-01,9.99999e-01,9.99999e-01,9.99999e-01,1.11168e-01,9.99999e-01
5.236333830e-01,1.16098e-01,9.99999e-01,9.99999e-01,9.99999e-01,1.16098e-01,9.99999e-01
5.262515499e-01,1.21142e-01,9.99999e-01,9.99999e-01,9.99999e-01,1.21142e-01,9.99999e-01
5.288828077e-01,1.26300e-01,9.99999e-01,9.99999e-01,9.99999e-01,1.26300e-01,9.99999e-01
5.315272217e-01,1.31569e-01,9.99999e-01,9.99999e-01,9.99999e-01,1.31569e-01,9.99999e-01
5.341848578e-01,1.36947e-01,9.99999e-01,9.99999e-01,9.99999e-01,1.36947e-01,9.99999e-01
5.368557821e-01,1.42432e-01,9.99999e-01,9.99999e-01,9.99999e-01,1.42432e-01,9.99999e-01
5.395400610e-01,1.48022e-01,9.99999e-01,9.99999e-01,9.99999e-01,1.48022e-01,9.99999e-01
5.422377613e-01,1.53714e-01,9.99999e-01,9.99999e-01,9.99999e-01,1.53714e-01,9.99999e-01
5.449489501e-01,1.59506e-01,9.99999e-01,9.99999e-01,9.99999e-01,1.59506e-01,9.99999e-01
5.476736949e-01,1.65396e-01,9.99999e-01,9.99999e-01,9.99999e-01,1.65396e-01,9.99999e-01
5.504120634e-01,1.71380e-01,9.99999e-01,9.99999e-01,9.99999e-01,1.71380e-01,9.99999e-01
5.531641237e-01,1.77456e-01,9.99999e-01,9.99999e-01,9.99999e-01,1.77456e-01,9.99999e-01
5.559299443e-01,1.83622e-01,9.99999e-01,9.99999e-01,9.99999e-01,1.83622e-01,9.99999e-01
5.587095940e-01,1.89873e-01,9.99999e-01,9.99999e-01,9.99999e-01,1.89873e-01,9.99999e-01
5.615031420e-01,1.96208e-01,9.99999e-01,9.99999e-01,9.99999e-01,1.96208e-01,9.99999e-01
5.643106577e-01,2.02622e-01,9.99999e-01,9.99999e-01,9.99999e-01,2.02622e-01,9.99999e-01
5.671322110e-01,2.09113e-01,9.99999e-01,9.99999e-01,9.99999e-01,2.09113e-01,9.99999e-01
5.699678720e-01,2.15678e-01,9.99999e-01,9.99999e-01,9.99999e-01,2.15678e-01,9.99999e-01
5.728177114e-01,2.22313e-01,9.99999e-01,9.99999e-01,9.99999e-01,2.22313e-01,9.99999e-01
5.756818000e-01,2.29015e-01,9.99999e-01,9.99999e-01,9.99999e-01,2.29015e-01,9.99999e-01
5.785602090e-01,2.35780e-01,9.99999e-01,9.99999e-01,9.99999e-01,2.35780e-01,9.99999e-01
5.814530100e-01,2.42606e-01,9.99999e-01,9.99999e-01,9.99999e-01,2.42606e-01,9.99999e-01
5.843602750e-01,2.49489e-01,9.99999e-01,9.99999e-01,9.99999e-01,2.49489e-01,9.99999e-01
5.872820764e-01,2.56426e-01,9.99999e-01,9.99999e-01,9.99999e-01,2.56426e-01,9.99999e-01
5.902184868e-01,2.63412e-01,9.99999e-01,9.99999e-01,9.99999e-01,2.63412e-01,9.99999e-01
5.931695792e-01,2.70445e-01,9.99999e-01,9.99999e-01,9.99999e-01,2.70445e-01,9.99999e-01
5.961354271e-01,2.77522e-01,9.99999e-01,9.99999e-01,9.99999e-01,2.77522e-01,9.99999e-01
5.991161043e-01,2.84639e-01,9.99999e-01,9.99999e-01,9.99999e-01,2.84639e-01,9.99999e-01
6.021116848e-01,2.91792e-01,9.99999e-01,9.99999e-01,9.99999e-01,2.91792e-01,9.99999e-01
6.051222432e-01,2.98978e-01,9.99999e-01,9.99999e-01,9.99999e-01,2.98978e-01,9.99999e-01
6.081478544e-01,3.06194e-01,9.99999e-01,9.99999e-01,9.99999e-01,3.06194e-01,9.99999e-01
6.111885937e-01,3.13436e-01,9.99999e-01,9.99999e-01,9.99999e-01,3.13436e-01,9.99999e-01
6.142445367e-01,3.20702e-01,9.99999e-01,9.99999e-01,9.99999e-01,3.20702e-01,9.99999e-01
6.173157594e-01,3.27987e-01,9.99999e-01,9.99999e-01,9.99999e-01,3.27987e-01,9.99999e-01
6.204023382e-01,3.35290e-01,9.99999e-01,9.99999e-01,9.99999e-01,3.35290e-01,9.99999e-01
6.235043498e-01,3.42605e-01,9.99999e-01,9.99999e-01,9.99999e-01,3.42605e-01,9.99999e-01
6.266218716e-01,3.49932e-01,9.99999e-01,9.99999e-01,9.99999e-01,3.49932e-01,9.99999e-01
6.297549810e-01,3.57265e-01,9.99999e-01,9.99999e-01,9.99999e-01,3.57265e-01,9.99999e-01
6.329037559e-01,3.64603e-01,9.99999e-01,9.99999e-01,9.99999e-01,3.64603e-01,9.99999e-01
6.360682746e-01,3.71942e-01,9.99999e-01,9.99999e-01,9.99999e-01,3.71942e-01,9.99999e-01
6.392486160e-01,3.79280e-01,9.99999e-01,9.99999e-01,9.99999e-01,3.79280e-01,9.99999e-01
6.424448591e-01,3.86613e-01,9.99999e-01,9.99999e-01,9.99999e-01,3.86613e-01,9.99999e-01
6.456570834e-01,3.93939e-01,9.99999e-01,9.99999e-01,9.99999e-01,3.93939e-01,9.99999e-01
6.488853688e-01,4.01254e-01,9.99999e-01,9.99999e-01,9.99999e-01,4.01254e-01,9.99999e-01
6.521297956e-01,4.08557e-01,9.99999e-01,9.99999e-01,9.99999e-01,4.08557e-01,9.99999e-01
6.553904446e-01,4.15845e-01,9.99999e-01,9.99999e-01,9.99999e-01,4.15845e-01,9.99999e-01
6.586673968e-01,4.23115e-01,9.99999e-01,9.99999e-01,9.99999e-01,4.23115e-01,9.99999e-01
6.619607338e-01,4.30365e-01,9.99999e-01,9.99999e-01,9.99999e-01,4.30365e-01,9.99999e-01
6.652705375e-01,4.37592e-01,9.99999e-01,9.99999e-01,9.99999e-01,4.37592e-01,9.99999e-01
6.685968902e-01,4.44795e-01,9.99999e-01,9.99999e-01,9.99999e-01,4.44795e-01,9.99999e-01
6.719398746e-01,4.51970e-01,9.99999e-01,9.99999e-01,9.99999e-01,4.51970e-01,9.99999e-01
6.752995740e-01,4.59115e-01,9.99999e-01,9.99999e-01,9.99999e-01,4.59115e-01,9.99999e-01
6.786760719e-01,4.66229e-01,9.99999e-01,9.99999e-01,9.99999e-01,4.66229e-01,9.99999e-01
6.820694522e-01,4.73310e-01,9.99999e-01,9.99999e-01,9.99999e-01,4.73310e-01,9.99999e-01
6.854797995e-01,4.80355e-01,9.99999e-01,9.99999e-01,9.99999e-01,4.80355e-01,9.99999e-01
6.889071985e-01,4.87363e-01,9.99999e-01,9.99999e-01,9.99999e-01,4.87363e-01,9.99999e-01
6.923517345e-01,4.94331e-01,9.99999e-01,9.99999e-01,9.99999e-01,4.94331e-01,9.99999e-01
6.958134932e-01,5.01259e-01,9.99999e-01,9.99999e-01,9.99999e-01,5.01259e-01,9.99999e-01
6.992925606e-01,5.08143e-01,9.99999e-01,9.99999e-01,9.99999e-01,5.08143e-01,9.99999e-01
7.027890234e-01,5.14984e-01,9.99999e-01,9.99999e-01,9.99999e-01,5.14984e-01,9.99999e-01
7.063029686e-01,5.21779e-01,9.99999e-01,9.99999e-01,9.99999e-01,5.21779e-01,9.99999e-01
7.098344834e-01,5.28527e-01,9.99999e-01,9.99999e-01,9.99999e-01,5.28527e-01,9.99999e-01
7.133836558e-01,5.35226e-01,9.99999e-01,9.99999e-01,9.99999e-01,5.35226e-01,9.99999e-01
7.169505741e-01,5.41875e-01,9.99999e-01,9.99999e-01,9.99999e-01,5.41875e-01,9.99999e-01
7.205353270e-01,5.48473e-01,9.99999e-01,9.99999e-01,9.99999e-01,5.48473e-01,9.99999e-01
7.241380036e-01,5.55019e-01,9.99999e-01,9.99999e-01,9.99999e-01,5.55019e-01,9.99999e-01
7.277586936e-01,5.61511e-01,9.99999e-01,9.99999e-01,9.99999e-01,5.61511e-01,9.99999e-01
7.313974871e-01,5.67948e-01,9.99999e-01,9.99999e-01,9.99999e-01,5.67948e-01,9.99999e-01
7.350544745e-01,5.74330e-01,9.99999e-01,9.99999e-01,9.99999e-01,5.74330e-01,9.99999e-01
7.387297469e-01,5.80656e-01,9.99999e-01,9.99999e-01,9.99999e-01,5.80656e-01,9.99999e-01
7.424233956e-01,5.86924e-01,9.99999e-01,9.99999e-01,9.99999e-01,5.86924e-01,9.99999e-01
7.461355126e-01,5.93135e-01,9.99999e-01,9.99999e-01,9.99999e-01,5.93135e-01,9.99999e-01
7.498661902e-01,5.99286e-01,9.99999e-01,9.99999e-01,9.99999e-01,5.99286e-01,9.99999e-01
7.536155211e-01,6.05378e-01,9.99999e-01,9.99999e-01,9.99999e-01,6.05378e-01,9.99999e-01
7.573835987e-01,6.11409e-01,9.99999e-01,9.99999e-01,9.99999e-01,6.11409e-01,9.99999e-01
7.611705167e-01,6.17380e-01,9.99999e-01,9.99999e-01,9.99999e-01,6.17380e-01,9.99999e-01
7.649763693e-01,6.23289e-01,9.99999e-01,9.99999e-01,9.99999e-01,6.23289e-01,9.99999e-01
7.688012511e-01,6.29136e-01,9.99999e-01,9.99999e-01,9.99999e-01,6.29136e-01,9.99999e-01
7.726452574e-01,6.34922e-01,9.99999e-01,9.99999e-01,9.99999e-01,6.34922e-01,9.99999e-01
7.765084837e-01,6.40644e-01,9.99999e-01,9.99999e-01,9.99999e-01,6.40644e-01,9.99999e-01
7.803910261e-01,6.32987e-01,9.99999e-01,9.99999e-01,9.79395e-01,6.46304e-01,9.99999e-01
7.842929812e-01,5.94515e-01,9.99999e-01,9.99999e-01,9.11972e-01,6.51900e-01,9.99999e-01
7.882144461e-01,5.95731e-01,9.99999e-01,9.99999e-01,9.06146e-01,6.57433e-01,9.99999e-01
7.921555184e-01,6.26326e-01,9.99999e-01,9.99999e-01,9.44823e-01,6.62902e-01,9.99999e-01
7.961162960e-01,6.43338e-01,9.99999e-01,9.99999e-01,9.62637e-01,6.68307e-01,9.99999e-01
8.000968774e-01,6.59909e-01,9.99999e-01,9.99999e-01,9.79604e-01,6.73648e-01,9.99999e-01
8.040973618e-01,6.71703e-01,9.99999e-01,9.99999e-01,9.89362e-01,6.78925e-01,9.99999e-01
8.081178486e-01,6.80798e-01,9.99999e-01,9.99999e-01,9.95117e-01,6.84138e-01,9.99999e-01
8.121584379e-01,6.88241e-01,9.99999e-01,9.99999e-01,9.98481e-01,6.89287e-01,9.99999e-01
8.162192301e-01,6.94139e-01,9.99999e-01,9.99999e-01,9.99664e-01,6.94372e-01,9.99999e-01
8.203003262e-01,6.99389e-01,9.99999e-01,9.99999e-01,9.99994e-01,6.99393e-01,9.99999e-01
8.244018279e-01,7.04350e-01,9.99999e-01,9.99999e-01,9.99999e-01,7.04350e-01,9.99999e-01
8.285238370e-01,7.09243e-01,9.99999e-01,9.99999e-01,9.99999e-01,7.09243e-01,9.99999e-01
8.326664562e-01,7.14072e-01,9.99999e-01,9.99999e-01,9.99999e-01,7.14072e-01,9.99999e-01
8.368297885e-01,7.18838e-01,9.99999e-01,9.99999e-01,9.99999e-01,7.18838e-01,9.99999e-01
8.410139374e-01,7.23541e-01,9.99999e-01,9.99999e-01,9.99999e-01,7.23541e-01,9.99999e-01
8.452190071e-01,7.28180e-01,9.99999e-01,9.99999e-01,9.99999e-01,7.28180e-01,9.99999e-01
8.494451021e-01,7.32757e-01,9.99999e-01,9.99999e-01,9.99999e-01,7.32757e-01,9.99999e-01
8.536923276e-01,7.37271e-01,9.99999e-01,9.99999e-01,9.99999e-01,7.37271e-01,9.99999e-01
8.579607893e-01,7.41723e-01,9.99999e-01,9.99999e-01,9.99999e-01,7.41723e-01,9.99999e-01
8.622505932e-01,7.46114e-01,9.99999e-01,9.99999e-01,9.99999e-01,7.46114e-01,9.99999e-01
8.665618462e-01,7.11155e-01,9.99999e-01,9.99999e-01,9.47647e-01,7.50442e-01,9.99999e-01
8.708946554e-01,5.96013e-01,9.99999e-01,9.99999e-01,7.89724e-01,7.54710e-01,9.99999e-01
8.752491287e-01,6.28388e-01,9.99999e-01,9.99999e-01,8.28005e-01,7.58917e-01,9.99999e-01
8.796253743e-01,6.88455e-01,9.99999e-01,9.99999e-01,9.02225e-01,7.63064e-01,9.99999e-01
8.840235012e-01,7.27464e-01,9.99999e-01,9.99999e-01,9.48267e-01,7.67150e-01,9.99999e-01
8.884436187e-01,7.55190e-01,9.99999e-01,9.99999e-01,9.79268e-01,7.71178e-01,9.99999e-01
8.928858368e-01,7.68612e-01,9.99999e-01,9.99999e-01,9.91569e-01,7.75146e-01,9.99999e-01
8.973502660e-01,7.77450e-01,9.99999e-01,9.99999e-01,9.97938e-01,7.79055e-01,9.99999e-01
9.018370173e-01,7.82729e-01,9.99999e-01,9.99999e-01,9.99772e-01,7.82907e-01,9.99999e-01
9.063462024e-01,7.82189e-01,9.99999e-01,9.99999e-01,9.94264e-01,7.86701e-01,9.99999e-01
9.108779334e-01,7.79953e-01,9.99999e-01,9.99999e-01,9.86735e-01,7.90438e-01,9.99999e-01
9.154323231e-01,7.91621e-01,9.99999e-01,9.99999e-01,9.96855e-01,7.94118e-01,9.99999e-01
9.200094847e-01,7.61602e-01,9.99999e-01,9.99999e-01,9.54696e-01,7.97742e-01,9.99999e-01
9.246095321e-01,7.50577e-01,9.99999e-01,9.99999e-01,9.36685e-01,8.01311e-01,9.99999e-01
9.292325798e-01,7.64707e-01,9.99999e-01,9.99999e-01,9.50153e-01,8.04824e-01,9.99999e-01
9.338787427e-01,7.69168e-01,9.99999e-01,9.99999e-01,9.51606e-01,8.08283e-01,9.99999e-01
9.385481364e-01,7.82698e-01,9.99999e-01,9.99999e-01,9.64283e-01,8.11689e-01,9.99999e-01
9.432408771e-01,7.97083e-01,9.99999e-01,9.99999e-01,9.77967e-01,8.15041e-01,9.99999e-01
9.479570815e-01,8.09058e-01,9.99999e-01,9.99999e-01,9.88657e-01,8.18340e-01,9.99999e-01
9.526968669e-01,8.17076e-01,9.99999e-01,9.99999e-01,9.94508e-01,8.21587e-01,9.99999e-01
9.574603512e-01,8.22843e-01,9.99999e-01,9.99999e-01,9.97648e-01,8.24782e-01,9.99999e-01
9.622476530e-01,8.27319e-01,9.99999e-01,9.99999e-01,9.99265e-01,8.27926e-01,9.99999e-01
9.670588912e-01,8.30837e-01,9.99999e-01,9.99999e-01,9.99779e-01,8.31020e-01,9.99999e-01
9.718941857e-01,8.34051e-01,9.99999e-01,9.99999e-01,9.99983e-01,8.34064e-01,9.99999e-01
9.767536566e-01,8.37059e-01,9.99999e-01,9.99999e-01,9.99999e-01,8.37059e-01,9.99999e-01
9.816374249e-01,8.40005e-01,9.99999e-01,9.99999e-01,9.99999e-01,8.40005e-01,9.99999e-01
9.865456120e-01,8.42903e-01,9.99999e-01,9.99999e-01,9.99999e-01,8.42903e-01,9.99999e-01
9.914783401e-01,8.45753e-01,9.99999e-01,9.99999e-01,9.99999e-01,8.45753e-01,9.99999e-01
9.964357318e-01,8.48556e-01,9.99999e-01,9.99999e-01,9.99999e-01,8.48556e-01,9.99999e-01
1.001417910e+00,8.51313e-01,9.99999e-01,9.99999e-01,9.99999e-01,8.51313e-01,9.99999e-01
1.006425000e+00,8.54024e-01,9.99999e-01,9.99999e-01,9.99999e-01,8.54024e-01,9.99999e-01
1.011457125e+00,8.56690e-01,9.99999e-01,9.99999e-01,9.99999e-01,8.56690e-01,9.99999e-01
1.016514411e+00,8.59312e-01,9.99999e-01,9.99999e-01,9.99999e-01,8.59312e-01,9.99999e-01
1.021596983e+00,8.61865e-01,9.99999e-01,9.99999e-01,9.99971e-01,8.61889e-01,9.99999e-01
1.026704968e+00,8.62497e-01,9.99999e-01,9.99999e-01,9.97771e-01,8.64423e-01,9.99999e-01
1.031838492e+00,8.41291e-01,9.99999e-01,9.99999e-01,9.70442e-01,8.66914e-01,9.99999e-01
1.036997685e+00,2.09921e-01,9.99999e-01,9.99999e-01,2.41464e-01,8.69363e-01,9.99999e-01
1.042182673e+00,2.32552e-01,9.99999e-01,9.99999e-01,2.66757e-01,8.71771e-01,9.99999e-01
1.047393587e+00,2.29532e-01,9.99999e-01,9.99999e-01,2.62581e-01,8.74137e-01,9.99999e-01
1.052630555e+00,2.29341e-02,9.99999e-01,9.99999e-01,2.61667e-02,8.76462e-01,9.99999e-01
1.057893707e+00,4.64771e-02,9.99999e-01,9.99999e-01,5.28901e-02,8.78748e-01,9.99999e-01
1.063183176e+00,1.03756e-01,9.99999e-01,9.99999e-01,1.17771e-01,8.80995e-01,9.99999e-01
1.068499092e+00,2.09008e-01,9.99999e-01,9.99999e-01,2.36647e-01,8.83202e-01,9.99999e-01
1.073841587e+00,3.56110e-01,9.99999e-01,9.99999e-01,4.02215e-01,8.85372e-01,9.99999e-01
1.079210795e+00,4.99417e-01,9.99999e-01,9.99999e-01,5.62721e-01,8.87503e-01,9.99999e-01
1.084606849e+00,6.49413e-01,9.99999e-01,9.99999e-01,7.30007e-01,8.89598e-01,9.99999e-01
1.090029883e+00,7.57619e-01,9.99999e-01,9.99999e-01,8.49675e-01,8.91656e-01,9.99999e-01
1.095480033e+00,8.24747e-01,9.99999e-01,9.99999e-01,9.22867e-01,8.93678e-01,9.99999e-01
1.100957433e+00,8.61735e-01,9.99999e-01,9.99999e-01,9.62117e-01,8.95664e-01,9.99999e-01
1.106462220e+00,8.83391e-01,9.99999e-01,9.99999e-01,9.84152e-01,8.97616e-01,9.99999e-01
1.111994531e+00,8.94225e-01,9.99999e-01,9.99999e-01,9.94098e-01,8.99533e-01,9.99999e-01
1.117554504e+00,9.00112e-01,9.99999e-01,9.99999e-01,9.98552e-01,9.01416e-01,9.99999e-01
1.123142276e+00,9.03180e-01,9.99999e-01,9.99999e-01,9.99904e-01,9.03266e-01,9.99999e-01
1.128757988e+00,9.05083e-01,9.99999e-01,9.99999e-01,9.99999e-01,9.05083e-01,9.99999e-01
1.134401778e+00,9.06868e-01,9.99999e-01,9.99999e-01,9.99999e-01,9.06868e-01,9.99999e-01
1.140073787e+00,9.08621e-01,9.99999e-01,9.99999e-01,9.99999e-01,9.08621e-01,9.99999e-01
1.145774156e+00,9.10342e-01,9.99999e-01,9.99999e-01,9.99999e-01,9.10342e-01,9.99999e-01
1.151503026e+00,9.12033e-01,9.99999e-01,9.99999e-01,9.99999e-01,9.12033e-01,9.99999e-01
1.157260541e+00,9.13693e-01,9.99999e-01,9.99999e-01,9.99999e-01,9.13693e-01,9.99999e-01
1.163046844e+00,9.15323e-01,9.99999e-01,9.99999e-01,9.99999e-01,9.15323e-01,9.99999e-01
1.168862078e+00,9.16924e-01,9.99999e-01,9.99999e-01,9.99999e-01,9.16924e-01,9.99999e-01
1.174706389e+00,9.18497e-01,9.99999e-01,9.99999e-01,9.99999e-01,9.18497e-01,9.99999e-01
1.180579921e+00,9.20040e-01,9.99999e-01,9.99999e-01,9.99999e-01,9.20040e-01,9.99999e-01
1.186482820e+00,9.21553e-01,9.99999e-01,9.99999e-01,9.99996e-01,9.21556e-01,9.99999e-01
1.192415234e+00,9.15697e-01,9.99999e-01,9.99999e-01,9.92039e-01,9.23044e-01,9.99999e-01
1.198377311e+00,5.33862e-01,9.99999e-01,9.99999e-01,5.77457e-01,9.24505e-01,9.99999e-01
1.204369197e+00,1.22479e-07,9.99999e-01,9.99999e-01,1.32275e-07,9.25940e-01,9.99999e-01
1.210391043e+00,2.10840e-25,9.99999e-01,9.99999e-01,2.27358e-25,9.27348e-01,9.99999e-01
1.216442998e+00,3.17328e-22,9.99999e-01,9.99999e-01,3.41679e-22,9.28731e-01,9.99999e-01
1.222525213e+00,6.53275e-22,9.99999e-01,9.99999e-01,7.02379e-22,9.30088e-01,9.99999e-01
1.228637839e+00,6.57925e-17,9.99999e-01,9.99999e-01,7.06367e-17,9.31421e-01,9.99999e-01
