#,Wave/freq,Total,N2,O2,CO2,Rayleigh,CIA
4.000000000e-01,2.83520e-10,9.99999e-01,9.99999e-01,9.99999e-01,2.83520e-10,9.99999e-01
4.020000000e-01,4.37891e-10,9.99999e-01,9.99999e-01,9.99999e-01,4.37891e-10,9.99999e-01
4.040100000e-01,6.70227e-10,9.99999e-01,9.99999e-01,9.99999e-01,6.70227e-10,9.99999e-01
4.060300500e-01,1.01725e-09,9.99999e-01,9.99999e-01,9.99999e-01,1.01725e-09,9.99999e-01
4.080602003e-01,1.53127e-09,9.99999e-01,9.99999e-01,9.99999e-01,1.53127e-09,9.99999e-01
4.101005013e-01,2.28649e-09,9.99999e-01,9.99999e-01,9.99999e-01,2.28649e-09,9.99999e-01
4.121510038e-01,3.38725e-09,9.99999e-01,9.99999e-01,9.99999e-01,3.38725e-09,9.99999e-01
4.142117588e-01,4.97913e-09,9.99999e-01,9.99999e-01,9.99999e-01,4.97913e-09,9.99999e-01
4.162828176e-01,7.26366e-09,9.99999e-01,9.99999e-01,9.99999e-01,7.26366e-09,9.99999e-01
4.183642317e-01,1.05176e-08,9.99999e-01,9.99999e-01,9.99999e-01,1.05176e-08,9.99999e-01
4.204560528e-01,1.51184e-08,9.99999e-01,9.99999e-01,9.99999e-01,1.51184e-08,9.99999e-01
4.225583331e-01,2.15764e-08,9.99999e-01,9.99999e-01,9.99999e-01,2.15764e-08,9.99999e-01
4.246711247e-01,3.05775e-08,9.99999e-01,9.99999e-01,9.99999e-01,3.05775e-08,9.99999e-01
4.267944804e-01,4.30362e-08,9.99999e-01,9.99999e-01,9.99999e-01,4.30362e-08,9.99999e-01
4.289284528e-01,6.01636e-08,9.99999e-01,9.99999e-01,9.99999e-01,6.01636e-08,9.99999e-01
4.310730950e-01,8.35526e-08,9.99999e-01,9.99999e-01,9.99999e-01,8.35526e-08,9.99999e-01
4.332284605e-01,1.15284e-07,9.99999e-01,9.99999e-01,9.99999e-01,1.15284e-07,9.99999e-01
4.353946028e-01,1.58058e-07,9.99999e-01,9.99999e-01,9.99999e-01,1.58058e-07,9.99999e-01
4.375715758e-01,2.15356e-07,9.99999e-01,9.99999e-01,9.99999e-01,2.15356e-07,9.99999e-01
4.397594337e-01,2.91637e-07,9.99999e-01,9.99999e-01,9.99999e-01,2.91637e-07,9.99999e-01
4.419582309e-01,3.92580e-07,9.99999e-01,9.99999e-01,9.99999e-01,3.92580e-07,9.99999e-01
4.441680220e-01,5.25369e-07,9.99999e-01,9.99999e-01,9.99999e-01,5.25369e-07,9.99999e-01
4.463888621e-01,6.99038e-07,9.99999e-01,9.99999e-01,9.99999e-01,6.99038e-07,9.99999e-01
4.486208064e-01,9.24883e-07,9.99999e-01,9.99999e-01,9.99999e-01,9.24883e-07,9.99999e-01
4.508639105e-01,1.21695e-06,9.99999e-01,9.99999e-01,9.99999e-01,1.21695e-06,9.99999e-01
4.531182300e-01,1.59258e-06,9.99999e-01,9.99999e-01,9.99999e-01,1.59258e-06,9.99999e-01
4.553838212e-01,2.07312e-06,9.99999e-01,9.99999e-01,9.99999e-01,2.07312e-06,9.99999e-01
4.576607403e-01,2.68464e-06,9.99999e-01,9.99999e-01,9.99999e-01,2.68464e-06,9.99999e-01
4.599490440e-01,3.45883e-06,9.99999e-01,9.99999e-01,9.99999e-01,3.45883e-06,9.99999e-01
4.622487892e-01,4.43403e-06,9.99999e-01,9.99999e-01,9.99999e-01,4.43403e-06,9.99999e-01
4.645600332e-01,5.65637e-06,9.99999e-01,9.99999e-01,9.99999e-01,5.65637e-06,9.99999e-01
4.668828333e-01,7.18105e-06,9.99999e-01,9.99999e-01,9.99999e-01,7.18105e-06,9.99999e-01
4.692172475e-01,9.07384e-06,9.99999e-01,9.99999e-01,9.99999e-01,9.07384e-06,9.99999e-01
4.715633337e-01,1.14127e-05,9.99999e-01,9.99999e-01,9.99999e-01,1.14127e-05,9.99999e-01
4.739211504e-01,1.42895e-05,9.99999e-01,9.99999e-01,9.99999e-01,1.42895e-05,9.99999e-01
4.762907561e-01,1.78122e-05,9.99999e-01,9.99999e-01,9.99999e-01,1.78122e-05,9.99999e-01
4.786722099e-01,2.21068e-05,9.99999e-01,9.99999e-01,9.99999e-01,2.21068e-05,9.99999e-01
4.810655710e-01,2.73202e-05,9.99999e-01,9.99999e-01,9.99999e-01,2.73202e-05,9.99999e-01
4.834708988e-01,3.36221e-05,9.99999e-01,9.99999e-01,9.99999e-01,3.36221e-05,9.99999e-01
4.858882533e-01,4.12083e-05,9.99999e-01,9.99999e-01,9.99999e-01,4.12083e-05,9.99999e-01
4.883176946e-01,5.03037e-05,9.99999e-01,9.99999e-01,9.99999e-01,5.03037e-05,9.99999e-01
4.907592831e-01,6.11651e-05,9.99999e-01,9.99999e-01,9.99999e-01,6.11651e-05,9.99999e-01
4.932130795e-01,7.40851e-05,9.99999e-01,9.99999e-01,9.99999e-01,7.40851e-05,9.99999e-01
4.956791449e-01,8.93951e-05,9.99999e-01,9.99999e-01,9.99999e-01,8.93951e-05,9.99999e-01
4.981575406e-01,1.07470e-04,9.99999e-01,9.99999e-01,9.99999e-01,1.07470e-04,9.99999e-01
5.006483283e-01,1.28729e-04,9.99999e-01,9.99999e-01,9.99999e-01,1.28729e-04,9.99999e-01
5.031515699e-01,1.53646e-04,9.99999e-01,9.99999e-01,9.99999e-01,1.53646e-04,9.99999e-01
5.056673278e-01,1.82745e-04,9.99999e-01,9.99999e-01,9.99999e-01,1.82745e-04,9.99999e-01
5.081956644e-01,2.16613e-04,9.99999e-01,9.99999e-01,9.99999e-01,2.16613e-04,9.99999e-01
5.107366428e-01,2.55896e-04,9.99999e-01,9.99999e-01,9.99999e-01,2.55896e-04,9.99999e-01
5.132903260e-01,3.01310e-04,9.99999e-01,9.99999e-01,9.99999e-01,3.01310e-04,9.99999e-01
5.158567776e-01,3.53640e-04,9.99999e-01,9.99999e-01,9.99999e-01,3.53640e-04,9.99999e-01
5.184360615e-01,4.13748e-04,9.99999e-01,9.99999e-01,9.99999e-01,4.13748e-04,9.99999e-01
5.210282418e-01,4.82574e-04,9.99999e-01,9.99999e-01,9.99999e-01,4.82574e-04,9.99999e-01
5.236333830e-01,5.61140e-04,9.99999e-01,9.99999e-01,9.99999e-01,5.61140e-04,9.99999e-01
5.262515499e-01,6.50557e-04,9.99999e-01,9.99999e-01,9.99999e-01,6.50557e-04,9.99999e-01
5.288828077e-01,7.52023e-04,9.99999e-01,9.99999e-01,9.99999e-01,7.52023e-04,9.99999e-01
5.315272217e-01,8.66828e-04,9.99999e-01,9.99999e-01,9.99999e-01,8.66828e-04,9.99999e-01
5.341848578e-01,9.96360e-04,9.99999e-01,9.99999e-01,9.99999e-01,9.96360e-04,9.99999e-01
5.368557821e-01,1.14210e-03,9.99999e-01,9.99999e-01,9.99999e-01,1.14210e-03,9.99999e-01
5.395400610e-01,1.30564e-03,9.99999e-01,9.99999e-01,9.99999e-01,1.30564e-03,9.99999e-01
5.422377613e-01,1.48865e-03,9.99999e-01,9.99999e-01,9.99999e-01,1.48865e-03,9.99999e-01
5.449489501e-01,1.69292e-03,9.99999e-01,9.99999e-01,9.99999e-01,1.69292e-03,9.99999e-01
5.476736949e-01,1.92034e-03,9.99999e-01,9.99999e-01,9.99999e-01,1.92034e-03,9.99999e-01
5.504120634e-01,2.17289e-03,9.99999e-01,9.99999e-01,9.99999e-01,2.17289e-03,9.99999e-01
5.531641237e-01,2.45266e-03,9.99999e-01,9.99999e-01,9.99999e-01,2.45266e-03,9.99999e-01
5.559299443e-01,2.76184e-03,9.99999e-01,9.99999e-01,9.99999e-01,2.76184e-03,9.99999e-01
5.587095940e-01,3.10272e-03,9.99999e-01,9.99999e-01,9.99999e-01,3.10272e-03,9.99999e-01
5.615031420e-01,3.47765e-03,9.99999e-01,9.99999e-01,9.99999e-01,3.47765e-03,9.99999e-01
5.643106577e-01,3.88912e-03,9.99999e-01,9.99999e-01,9.99999e-01,3.88912e-03,9.99999e-01
5.671322110e-01,4.33969e-03,9.99999e-01,9.99999e-01,9.99999e-01,4.33969e-03,9.99999e-01
5.699678720e-01,4.83197e-03,9.99999e-01,9.99999e-01,9.99999e-01,4.83197e-03,9.99999e-01
5.728177114e-01,5.36869e-03,9.99999e-01,9.99999e-01,9.99999e-01,5.36869e-03,9.99999e-01
5.756818000e-01,5.95264e-03,9.99999e-01,9.99999e-01,9.99999e-01,5.95264e-03,9.99999e-01
5.785602090e-01,6.58665e-03,9.99999e-01,9.99999e-01,9.99999e-01,6.58665e-03,9.99999e-01
5.814530100e-01,7.27363e-03,9.99999e-01,9.99999e-01,9.99999e-01,7.27363e-03,9.99999e-01
5.843602750e-01,8.01654e-03,9.99999e-01,9.99999e-01,9.99999e-01,8.01654e-03,9.99999e-01
5.872820764e-01,8.81837e-03,9.99999e-01,9.99999e-01,9.99999e-01,8.81837e-03,9.99999e-01
5.902184868e-01,9.68215e-03,9.99999e-01,9.99999e-01,9.99999e-01,9.68215e-03,9.99999e-01
5.931695792e-01,1.06109e-02,9.99999e-01,9.99999e-01,9.99999e-01,1.06109e-02,9.99999e-01
5.961354271e-01,1.16078e-02,9.99999e-01,9.99999e-01,9.99999e-01,1.16078e-02,9.99999e-01
5.991161043e-01,1.26758e-02,9.99999e-01,9.99999e-01,9.99999e-01,1.26758e-02,9.99999e-01
6.021116848e-01,1.38181e-02,9.99999e-01,9.99999e-01,9.99999e-01,1.38181e-02,9.99999e-01
6.051222432e-01,1.50376e-02,9.99999e-01,9.99999e-01,9.99999e-01,1.50376e-02,9.99999e-01
6.081478544e-01,1.63374e-02,9.99999e-01,9.99999e-01,9.99999e-01,1.63374e-02,9.99999e-01
6.111885937e-01,1.77205e-02,9.99999e-01,9.99999e-01,9.99999e-01,1.77205e-02,9.99999e-01
6.142445367e-01,1.91900e-02,9.99999e-01,9.99999e-01,9.99999e-01,1.91900e-02,9.99999e-01
6.173157594e-01,2.07485e-02,9.99999e-01,9.99999e-01,9.99999e-01,2.07485e-02,9.99999e-01
6.204023382e-01,2.23991e-02,9.99999e-01,9.99999e-01,9.99999e-01,2.23991e-02,9.99999e-01
6.235043498e-01,2.41445e-02,9.99999e-01,9.99999e-01,9.99999e-01,2.41445e-02,9.99999e-01
6.266218716e-01,2.59873e-02,9.99999e-01,9.99999e-01,9.99999e-01,2.59873e-02,9.99999e-01
6.297549810e-01,2.79302e-02,9.99999e-01,9.99999e-01,9.99999e-01,2.79302e-02,9.99999e-01
6.329037559e-01,2.99756e-02,9.99999e-01,9.99999e-01,9.99999e-01,2.99756e-02,9.99999e-01
6.360682746e-01,3.21259e-02,9.99999e-01,9.99999e-01,9.99999e-01,3.21259e-02,9.99999e-01
6.392486160e-01,3.43834e-02,9.99999e-01,9.99999e-01,9.99999e-01,3.43834e-02,9.99999e-01
6.424448591e-01,3.67502e-02,9.99999e-01,9.99999e-01,9.99999e-01,3.67502e-02,9.99999e-01
6.456570834e-01,3.92283e-02,9.99999e-01,9.99999e-01,9.99999e-01,3.92283e-02,9.99999e-01
6.488853688e-01,4.18195e-02,9.99999e-01,9.99999e-01,9.99999e-01,4.18195e-02,9.99999e-01
6.521297956e-01,4.45256e-02,9.99999e-01,9.99999e-01,9.99999e-01,4.45256e-02,9.99999e-01
6.553904446e-01,4.73482e-02,9.99999e-01,9.99999e-01,9.99999e-01,4.73482e-02,9.99999e-01
6.586673968e-01,5.02886e-02,9.99999e-01,9.99999e-01,9.99999e-01,5.02886e-02,9.99999e-01
6.619607338e-01,5.33481e-02,9.99999e-01,9.99999e-01,9.99999e-01,5.33481e-02,9.99999e-01
6.652705375e-01,5.65277e-02,9.99999e-01,9.99999e-01,9.99999e-01,5.65277e-02,9.99999e-01
6.685968902e-01,5.98284e-02,9.99999e-01,9.99999e-01,9.99999e-01,5.98284e-02,9.99999e-01
6.719398746e-01,6.32508e-02,9.99999e-01,9.99999e-01,9.99999e-01,6.32508e-02,9.99999e-01
6.752995740e-01,6.67957e-02,9.99999e-01,9.99999e-01,9.99999e-01,6.67957e-02,9.99999e-01
6.786760719e-01,7.04632e-02,9.99999e-01,9.99999e-01,9.99999e-01,7.04632e-02,9.99999e-01
6.820694522e-01,7.42537e-02,9.99999e-01,9.99999e-01,9.99999e-01,7.42537e-02,9.99999e-01
6.854797995e-01,7.81671e-02,9.99999e-01,9.99999e-01,9.99999e-01,7.81671e-02,9.99999e-01
6.889071985e-01,8.22034e-02,9.99999e-01,9.99999e-01,9.99999e-01,8.22034e-02,9.99999e-01
6.923517345e-01,8.63621e-02,9.99999e-01,9.99999e-01,9.99999e-01,8.63621e-02,9.99999e-01
6.958134932e-01,9.06428e-02,9.99999e-01,9.99999e-01,9.99999e-01,9.06428e-02,9.99999e-01
6.992925606e-01,9.50449e-02,9.99999e-01,9.99999e-01,9.99999e-01,9.50449e-02,9.99999e-01
7.027890234e-01,9.95674e-02,9.99999e-01,9.99999e-01,9.99999e-01,9.95674e-02,9.99999e-01
7.063029686e-01,1.04209e-01,9.99999e-01,9.99999e-01,9.99999e-01,1.04209e-01,9.99999e-01
7.098344834e-01,1.08970e-01,9.99999e-01,9.99999e-01,9.99999e-01,1.08970e-01,9.99999e-01
7.133836558e-01,1.13847e-01,9.99999e-01,9.99999e-01,9.99999e-01,1.13847e-01,9.99999e-01
7.169505741e-01,1.18840e-01,9.99999e-01,9.99999e-01,9.99999e-01,1.18840e-01,9.99999e-01
7.205353270e-01,1.23946e-01,9.99999e-01,9.99999e-01,9.99999e-01,1.23946e-01,9.99999e-01
7.241380036e-01,1.29165e-01,9.99999e-01,9.99999e-01,9.99999e-01,1.29165e-01,9.99999e-01
7.277586936e-01,1.34493e-01,9.99999e-01,9.99999e-01,9.99999e-01,1.34493e-01,9.99999e-01
7.313974871e-01,1.39930e-01,9.99999e-01,9.99999e-01,9.99999e-01,1.39930e-01,9.99999e-01
7.350544745e-01,1.45473e-01,9.99999e-01,9.99999e-01,9.99999e-01,1.45473e-01,9.99999e-01
7.387297469e-01,1.51119e-01,9.99999e-01,9.99999e-01,9.99999e-01,1.51119e-01,9.99999e-01
7.424233956e-01,1.56866e-01,9.99999e-01,9.99999e-01,9.99999e-01,1.56866e-01,9.99999e-01
7.461355126e-01,1.62712e-01,9.99999e-01,9.99999e-01,9.99999e-01,1.62712e-01,9.99999e-01
7.498661902e-01,1.68654e-01,9.99999e-01,9.99999e-01,9.99999e-01,1.68654e-01,9.99999e-01
7.536155211e-01,1.74689e-01,9.99999e-01,9.99999e-01,9.99999e-01,1.74689e-01,9.99999e-01
7.573835987e-01,1.80814e-01,9.99999e-01,9.99999e-01,9.99999e-01,1.80814e-01,9.99999e-01
7.611705167e-01,1.87027e-01,9.99999e-01,9.99999e-01,9.99999e-01,1.87027e-01,9.99999e-01
7.649763693e-01,1.93324e-01,9.99999e-01,9.99999e-01,9.99999e-01,1.93324e-01,9.99999e-01
7.688012511e-01,1.99702e-01,9.99999e-01,9.99999e-01,9.99999e-01,1.99702e-01,9.99999e-01
7.726452574e-01,2.06159e-01,9.99999e-01,9.99999e-01,9.99999e-01,2.06159e-01,9.99999e-01
7.765084837e-01,2.12690e-01,9.99999e-01,9.99999e-01,9.99999e-01,2.12690e-01,9.99999e-01
7.803910261e-01,2.05796e-01,9.99999e-01,9.99999e-01,9.38446e-01,2.19294e-01,9.99999e-01
7.842929812e-01,1.66300e-01,9.99999e-01,9.99999e-01,7.35953e-01,2.25966e-01,9.99999e-01
7.882144461e-01,1.68219e-01,9.99999e-01,9.99999e-01,7.22891e-01,2.32703e-01,9.99999e-01
7.921555184e-01,1.97113e-01,9.99999e-01,9.99999e-01,8.23012e-01,2.39502e-01,9.99999e-01
7.961162960e-01,2.15937e-01,9.99999e-01,9.99999e-01,8.76512e-01,2.46360e-01,9.99999e-01
8.000968774e-01,2.35812e-01,9.99999e-01,9.99999e-01,9.31061e-01,2.53272e-01,9.99999e-01
8.040973618e-01,2.50750e-01,9.99999e-01,9.99999e-01,9.63544e-01,2.60236e-01,9.99999e-01
8.081178486e-01,2.62743e-01,9.99999e-01,9.99999e-01,9.83138e-01,2.67249e-01,9.99999e-01
8.121584379e-01,2.72862e-01,9.99999e-01,9.99999e-01,9.94733e-01,2.74306e-01,9.99999e-01
8.162192301e-01,2.81077e-01,9.99999e-01,9.99999e-01,9.98834e-01,2.81405e-01,9.99999e-01
8.203003262e-01,2.88537e-01,9.99999e-01,9.99999e-01,9.99980e-01,2.88542e-01,9.99999e-01
8.244018279e-01,2.95714e-01,9.99999e-01,9.99999e-01,9.99999e-01,2.95714e-01,9.99999e-01
8.285238370e-01,3.02917e-01,9.99999e-01,9.99999e-01,9.99999e-01,3.02917e-01,9.99999e-01
8.326664562e-01,3.10147e-01,9.99999e-01,9.99999e-01,9.99999e-01,3.10147e-01,9.99999e-01
8.368297885e-01,3.17403e-01,9.99999e-01,9.99999e-01,9.99999e-01,3.17403e-01,9.99999e-01
8.410139374e-01,3.24680e-01,9.99999e-01,9.99999e-01,9.99999e-01,3.24680e-01,9.99999e-01
8.452190071e-01,3.31975e-01,9.99999e-01,9.99999e-01,9.99999e-01,3.31975e-01,9.99999e-01
8.494451021e-01,3.39285e-01,9.99999e-01,9.99999e-01,9.99999e-01,3.39285e-01,9.99999e-01
8.536923276e-01,3.46607e-01,9.99999e-01,9.99999e-01,9.99999e-01,3.46607e-01,9.99999e-01
8.579607893e-01,3.53937e-01,9.99999e-01,9.99999e-01,9.99999e-01,3.53937e-01,9.99999e-01
8.622505932e-01,3.61274e-01,9.99999e-01,9.99999e-01,9.99999e-01,3.61274e-01,9.99999e-01
8.665618462e-01,3.29008e-01,9.99999e-01,9.99999e-01,8.92557e-01,3.68613e-01,9.99999e-01
8.708946554e-01,1.75746e-01,9.99999e-01,9.99999e-01,4.67469e-01,3.75951e-01,9.99999e-01
8.752491287e-01,2.04898e-01,9.99999e-01,9.99999e-01,5.34582e-01,3.83287e-01,9.99999e-01
8.796253743e-01,2.75308e-01,9.99999e-01,9.99999e-01,7.04804e-01,3.90616e-01,9.99999e-01
8.840235012e-01,3.31336e-01,9.99999e-01,9.99999e-01,8.32634e-01,3.97937e-01,9.99999e-01
8.884436187e-01,3.76860e-01,9.99999e-01,9.99999e-01,9.29953e-01,4.05246e-01,9.99999e-01
8.928858368e-01,4.00589e-01,9.99999e-01,9.99999e-01,9.71027e-01,4.12541e-01,9.99999e-01
8.973502660e-01,4.16820e-01,9.99999e-01,9.99999e-01,9.92854e-01,4.19820e-01,9.99999e-01
9.018370173e-01,4.26741e-01,9.99999e-01,9.99999e-01,9.99208e-01,4.27079e-01,9.99999e-01
9.063462024e-01,4.25850e-01,9.99999e-01,9.99999e-01,9.80504e-01,4.34317e-01,9.99999e-01
9.108779334e-01,4.21555e-01,9.99999e-01,9.99999e-01,9.54758e-01,4.41530e-01,9.99999e-01
9.154323231e-01,4.43838e-01,9.99999e-01,9.99999e-01,9.89124e-01,4.48718e-01,9.99999e-01
9.200094847e-01,3.94114e-01,9.99999e-01,9.99999e-01,8.64516e-01,4.55877e-01,9.99999e-01
9.246095321e-01,3.69461e-01,9.99999e-01,9.99999e-01,7.97962e-01,4.63006e-01,9.99999e-01
9.292325798e-01,3.95019e-01,9.99999e-01,9.99999e-01,8.40283e-01,4.70102e-01,9.99999e-01
9.338787427e-01,4.02425e-01,9.99999e-01,9.99999e-01,8.43369e-01,4.77163e-01,9.99999e-01
9.385481364e-01,4.26988e-01,9.99999e-01,9.99999e-01,8.81863e-01,4.84188e-01,9.99999e-01
9.432408771e-01,4.54616e-01,9.99999e-01,9.99999e-01,9.25568e-01,4.91175e-01,9.99999e-01
9.479570815e-01,4.78769e-01,9.99999e-01,9.99999e-01,9.61149e-01,4.98121e-01,9.99999e-01
9.526968669e-01,4.95462e-01,9.99999e-01,9.99999e-01,9.81063e-01,5.05025e-01,9.99999e-01
9.574603512e-01,5.07715e-01,9.99999e-01,9.99999e-01,9.91851e-01,5.11886e-01,9.99999e-01
9.622476530e-01,5.17379e-01,9.99999e-01,9.99999e-01,9.97449e-01,5.18702e-01,9.99999e-01
9.670588912e-01,5.25069e-01,9.99999e-01,9.99999e-01,9.99234e-01,5.25471e-01,9.99999e-01
9.718941857e-01,5.32164e-01,9.99999e-01,9.99999e-01,9.99944e-01,5.32193e-01,9.99999e-01
9.767536566e-01,5.38865e-01,9.99999e-01,9.99999e-01,9.99999e-01,5.38865e-01,9.99999e-01
9.816374249e-01,5.45486e-01,9.99999e-01,9.99999e-01,9.99999e-01,5.45486e-01,9.99999e-01
9.865456120e-01,5.52056e-01,9.99999e-01,9.99999e-01,9.99999e-01,5.52056e-01,9.99999e-01
9.914783401e-01,5.58572e-01,9.99999e-01,9.99999e-01,9.99999e-01,5.58572e-01,9.99999e-01
9.964357318e-01,5.65035e-01,9.99999e-01,9.99999e-01,9.99999e-01,5.65035e-01,9.99999e-01
1.001417910e+00,5.71442e-01,9.99999e-01,9.99999e-01,9.99999e-01,5.71442e-01,9.99999e-01
1.006425000e+00,5.77793e-01,9.99999e-01,9.99999e-01,9.99999e-01,5.77793e-01,9.99999e-01
1.011457125e+00,5.84088e-01,9.99999e-01,9.99999e-01,9.99999e-01,5.84088e-01,9.99999e-01
1.016514411e+00,5.90324e-01,9.99999e-01,9.99999e-01,9.99999e-01,5.90324e-01,9.99999e-01
1.021596983e+00,5.96444e-01,9.99999e-01,9.99999e-01,9.99901e-01,5.96503e-01,9.99999e-01
1.026704968e+00,5.97996e-01,9.99999e-01,9.99999e-01,9.92323e-01,6.02621e-01,9.99999e-01
1.031838492e+00,5.66198e-01,9.99999e-01,9.99999e-01,9.30206e-01,6.08680e-01,9.99999e-01
1.036997685e+00,4.81849e-02,9.99999e-01,9.99999e-01,7.83903e-02,6.14678e-01,9.99999e-01
1.042182673e+00,1.05578e-02,9.99999e-01,9.99999e-01,1.70119e-02,6.20616e-01,9.99999e-01
1.047393587e+00,2.06119e-02,9.99999e-01,9.99999e-01,3.29005e-02,6.26491e-01,9.99999e-01
1.052630555e+00,2.94352e-05,9.99999e-01,9.99999e-01,4.65522e-05,6.32305e-01,9.99999e-01
1.057893707e+00,1.02180e-04,9.99999e-01,9.99999e-01,1.60143e-04,6.38056e-01,9.99999e-01
1.063183176e+00,9.57519e-04,9.99999e-01,9.99999e-01,1.48742e-03,6.43744e-01,9.99999e-01
1.068499092e+00,5.61468e-03,9.99999e-01,9.99999e-01,8.64636e-03,6.49369e-01,9.99999e-01
1.073841587e+00,3.14870e-02,9.99999e-01,9.99999e-01,4.80768e-02,6.54930e-01,9.99999e-01
1.079210795e+00,9.70926e-02,9.99999e-01,9.99999e-01,1.47014e-01,6.60428e-01,9.99999e-01
1.084606849e+00,2.27308e-01,9.99999e-01,9.99999e-01,3.41373e-01,6.65863e-01,9.99999e-01
1.090029883e+00,3.83184e-01,9.99999e-01,9.99999e-01,5.70865e-01,6.71233e-01,9.99999e-01
1.095480033e+00,5.12823e-01,9.99999e-01,9.99999e-01,7.58008e-01,6.76539e-01,9.99999e-01
1.100957433e+00,5.96372e-01,9.99999e-01,9.99999e-01,8.74726e-01,6.81781e-01,9.99999e-01
1.106462220e+00,6.49912e-01,9.99999e-01,9.99999e-01,9.46069e-01,6.86959e-01,9.99999e-01
1.111994531e+00,6.77989e-01,9.99999e-01,9.99999e-01,9.79649e-01,6.92073e-01,9.99999e-01
1.117554504e+00,6.93623e-01,9.99999e-01,9.99999e-01,9.94978e-01,6.97123e-01,9.99999e-01
1.123142276e+00,7.01876e-01,9.99999e-01,9.99999e-01,9.99668e-01,7.02109e-01,9.99999e-01
1.128757988e+00,7.07031e-01,9.99999e-01,9.99999e-01,9.99999e-01,7.07031e-01,9.99999e-01
1.134401778e+00,7.11889e-01,9.99999e-01,9.99999e-01,9.99999e-01,7.11889e-01,9.99999e-01
1.140073787e+00,7.16684e-01,9.99999e-01,9.99999e-01,9.99999e-01,7.16684e-01,9.99999e-01
1.145774156e+00,7.21415e-01,9.99999e-01,9.99999e-01,9.99999e-01,7.21415e-01,9.99999e-01
1.151503026e+00,7.26083e-01,9.99999e-01,9.99999e-01,9.99999e-01,7.26083e-01,9.99999e-01
1.157260541e+00,7.30688e-01,9.99999e-01,9.99999e-01,9.99999e-01,7.30688e-01,9.99999e-01
1.163046844e+00,7.35231e-01,9.99999e-01,9.99999e-01,9.99999e-01,7.35231e-01,9.99999e-01
1.168862078e+00,7.39711e-01,9.99999e-01,9.99999e-01,9.99999e-01,7.39711e-01,9.99999e-01
1.174706389e+00,7.44130e-01,9.99999e-01,9.99999e-01,9.99999e-01,7.44130e-01,9.99999e-01
1.180579921e+00,7.48486e-01,9.99999e-01,9.99999e-01,9.99999e-01,7.48486e-01,9.99999e-01
1.186482820e+00,7.52773e-01,9.99999e-01,9.99999e-01,9.99988e-01,7.52782e-01,9.99999e-01
1.192415234e+00,7.36891e-01,9.99999e-01,9.99999e-01,9.73414e-01,7.57016e-01,9.99999e-01
1.198377311e+00,4.09999e-01,9.99999e-01,9.99999e-01,5.38628e-01,7.61190e-01,9.99999e-01
1.204369197e+00,5.55297e-21,9.99999e-01,9.99999e-01,7.25590e-21,7.65304e-01,9.99999e-01
1.210391043e+00,9.97148e-83,9.99999e-01,9.99999e-01,1.29608e-82,7.69358e-01,9.99999e-01
1.216442998e+00,1.09718e-71,9.99999e-01,9.99999e-01,1.41873e-71,7.73353e-01,9.99999e-01
1.222525213e+00,1.27393e-70,9.99999e-01,9.99999e-01,1.63894e-70,7.77289e-01,9.99999e-01
1.228637839e+00,1.35198e-54,9.99999e-01,9.99999e-01,1.73072e-54,7.81167e-01,9.99999e-01
