#,Wave/freq,Total,N2,O2,CO2,Rayleigh,CIA
4.000000000e-01,2.28491e-20,9.99999e-01,9.99999e-01,9.99999e-01,2.28491e-20,9.99999e-01
4.020000000e-01,5.58758e-20,9.99999e-01,9.99999e-01,9.99999e-01,5.58758e-20,9.99999e-01
4.040100000e-01,1.34126e-19,9.99999e-01,9.99999e-01,9.99999e-01,1.34126e-19,9.99999e-01
4.060300500e-01,3.16440e-19,9.99999e-01,9.99999e-01,9.99999e-01,3.16440e-19,9.99999e-01
4.080602003e-01,7.34018e-19,9.99999e-01,9.99999e-01,9.99999e-01,7.34018e-19,9.99999e-01
4.101005013e-01,1.67457e-18,9.99999e-01,9.99999e-01,9.99999e-01,1.67457e-18,9.99999e-01
4.121510038e-01,3.75860e-18,9.99999e-01,9.99999e-01,9.99999e-01,3.75860e-18,9.99999e-01
4.142117588e-01,8.30257e-18,9.99999e-01,9.99999e-01,9.99999e-01,8.30257e-18,9.99999e-01
4.162828176e-01,1.80551e-17,9.99999e-01,9.99999e-01,9.99999e-01,1.80551e-17,9.99999e-01
4.183642317e-01,3.86655e-17,9.99999e-01,9.99999e-01,9.99999e-01,3.86655e-17,9.99999e-01
4.204560528e-01,8.15671e-17,9.99999e-01,9.99999e-01,9.99999e-01,8.15671e-17,9.99999e-01
4.225583331e-01,1.69552e-16,9.99999e-01,9.99999e-01,9.99999e-01,1.69552e-16,9.99999e-01
4.246711247e-01,3.47386e-16,9.99999e-01,9.99999e-01,9.99999e-01,3.47386e-16,9.99999e-01
4.267944804e-01,7.01730e-16,9.99999e-01,9.99999e-01,9.99999e-01,7.01730e-16,9.99999e-01
4.289284528e-01,1.39796e-15,9.99999e-01,9.99999e-01,9.99999e-01,1.39796e-15,9.99999e-01
4.310730950e-01,2.74732e-15,9.99999e-01,9.99999e-01,9.99999e-01,2.74732e-15,9.99999e-01
4.332284605e-01,5.32754e-15,9.99999e-01,9.99999e-01,9.99999e-01,5.32754e-15,9.99999e-01
4.353946028e-01,1.01968e-14,9.99999e-01,9.99999e-01,9.99999e-01,1.01968e-14,9.99999e-01
4.375715758e-01,1.92677e-14,9.99999e-01,9.99999e-01,9.99999e-01,1.92677e-14,9.99999e-01
4.397594337e-01,3.59533e-14,9.99999e-01,9.99999e-01,9.99999e-01,3.59533e-14,9.99999e-01
4.419582309e-01,6.62669e-14,9.99999e-01,9.99999e-01,9.99999e-01,6.62669e-14,9.99999e-01
4.441680220e-01,1.20673e-13,9.99999e-01,9.99999e-01,9.99999e-01,1.20673e-13,9.99999e-01
4.463888621e-01,2.17160e-13,9.99999e-01,9.99999e-01,9.99999e-01,2.17160e-13,9.99999e-01
4.486208064e-01,3.86286e-13,9.99999e-01,9.99999e-01,9.99999e-01,3.86286e-13,9.99999e-01
4.508639105e-01,6.79357e-13,9.99999e-01,9.99999e-01,9.99999e-01,6.79357e-13,9.99999e-01
4.531182300e-01,1.18153e-12,9.99999e-01,9.99999e-01,9.99999e-01,1.18153e-12,9.99999e-01
4.553838212e-01,2.03256e-12,9.99999e-01,9.99999e-01,9.99999e-01,2.03256e-12,9.99999e-01
4.576607403e-01,3.45930e-12,9.99999e-01,9.99999e-01,9.99999e-01,3.45930e-12,9.99999e-01
4.599490440e-01,5.82602e-12,9.99999e-01,9.99999e-01,9.99999e-01,5.82602e-12,9.99999e-01
4.622487892e-01,9.71144e-12,9.99999e-01,9.99999e-01,9.99999e-01,9.71144e-12,9.99999e-01
4.645600332e-01,1.60255e-11,9.99999e-01,9.99999e-01,9.99999e-01,1.60255e-11,9.99999e-01
4.668828333e-01,2.61845e-11,9.99999e-01,9.99999e-01,9.99999e-01,2.61845e-11,9.99999e-01
4.692172475e-01,4.23705e-11,9.99999e-01,9.99999e-01,9.99999e-01,4.23705e-11,9.99999e-01
4.715633337e-01,6.79133e-11,9.99999e-01,9.99999e-01,9.99999e-01,6.79133e-11,9.99999e-01
4.739211504e-01,1.07845e-10,9.99999e-01,9.99999e-01,9.99999e-01,1.07845e-10,9.99999e-01
4.762907561e-01,1.69698e-10,9.99999e-01,9.99999e-01,9.99999e-01,1.69698e-10,9.99999e-01
4.786722099e-01,2.64645e-10,9.99999e-01,9.99999e-01,9.99999e-01,2.64645e-10,9.99999e-01
4.810655710e-01,4.09110e-10,9.99999e-01,9.99999e-01,9.99999e-01,4.09110e-10,9.99999e-01
4.834708988e-01,6.27017e-10,9.99999e-01,9.99999e-01,9.99999e-01,6.27017e-10,9.99999e-01
4.858882533e-01,9.52919e-10,9.99999e-01,9.99999e-01,9.99999e-01,9.52919e-10,9.99999e-01
4.883176946e-01,1.43629e-09,9.99999e-01,9.99999e-01,9.99999e-01,1.43629e-09,9.99999e-01
4.907592831e-01,2.14738e-09,9.99999e-01,9.99999e-01,9.99999e-01,2.14738e-09,9.99999e-01
4.932130795e-01,3.18511e-09,9.99999e-01,9.99999e-01,9.99999e-01,3.18511e-09,9.99999e-01
4.956791449e-01,4.68769e-09,9.99999e-01,9.99999e-01,9.99999e-01,4.68769e-09,9.99999e-01
4.981575406e-01,6.84665e-09,9.99999e-01,9.99999e-01,9.99999e-01,6.84665e-09,9.99999e-01
5.006483283e-01,9.92539e-09,9.99999e-01,9.99999e-01,9.99999e-01,9.92539e-09,9.99999e-01
5.031515699e-01,1.42834e-08,9.99999e-01,9.99999e-01,9.99999e-01,1.42834e-08,9.99999e-01
5.056673278e-01,2.04077e-08,9.99999e-01,9.99999e-01,9.99999e-01,2.04077e-08,9.99999e-01
5.081956644e-01,2.89530e-08,9.99999e-01,9.99999e-01,9.99999e-01,2.89530e-08,9.99999e-01
5.107366428e-01,4.07938e-08,9.99999e-01,9.99999e-01,9.99999e-01,4.07938e-08,9.99999e-01
5.132903260e-01,5.70891e-08,9.99999e-01,9.99999e-01,9.99999e-01,5.70891e-08,9.99999e-01
5.158567776e-01,7.93650e-08,9.99999e-01,9.99999e-01,9.99999e-01,7.93650e-08,9.99999e-01
5.184360615e-01,1.09617e-07,9.99999e-01,9.99999e-01,9.99999e-01,1.09617e-07,9.99999e-01
5.210282418e-01,1.50438e-07,9.99999e-01,9.99999e-01,9.99999e-01,1.50438e-07,9.99999e-01
5.236333830e-01,2.05174e-07,9.99999e-01,9.99999e-01,9.99999e-01,2.05174e-07,9.99999e-01
5.262515499e-01,2.78115e-07,9.99999e-01,9.99999e-01,9.99999e-01,2.78115e-07,9.99999e-01
5.288828077e-01,3.74729e-07,9.99999e-01,9.99999e-01,9.99999e-01,3.74729e-07,9.99999e-01
5.315272217e-01,5.01941e-07,9.99999e-01,9.99999e-01,9.99999e-01,5.01941e-07,9.99999e-01
5.341848578e-01,6.68468e-07,9.99999e-01,9.99999e-01,9.99999e-01,6.68468e-07,9.99999e-01
5.368557821e-01,8.85218e-07,9.99999e-01,9.99999e-01,9.99999e-01,8.85218e-07,9.99999e-01
5.395400610e-01,1.16577e-06,9.99999e-01,9.99999e-01,9.99999e-01,1.16577e-06,9.99999e-01
5.422377613e-01,1.52690e-06,9.99999e-01,9.99999e-01,9.99999e-01,1.52690e-06,9.99999e-01
5.449489501e-01,1.98927e-06,9.99999e-01,9.99999e-01,9.99999e-01,1.98927e-06,9.99999e-01
5.476736949e-01,2.57816e-06,9.99999e-01,9.99999e-01,9.99999e-01,2.57816e-06,9.99999e-01
5.504120634e-01,3.32430e-06,9.99999e-01,9.99999e-01,9.99999e-01,3.32430e-06,9.99999e-01
5.531641237e-01,4.26491e-06,9.99999e-01,9.99999e-01,9.99999e-01,4.26491e-06,9.99999e-01
5.559299443e-01,5.44480e-06,9.99999e-01,9.99999e-01,9.99999e-01,5.44480e-06,9.99999e-01
5.587095940e-01,6.91767e-06,9.99999e-01,9.99999e-01,9.99999e-01,6.91767e-06,9.99999e-01
5.615031420e-01,8.74749e-06,9.99999e-01,9.99999e-01,9.99999e-01,8.74749e-06,9.99999e-01
5.643106577e-01,1.10102e-05,9.99999e-01,9.99999e-01,9.99999e-01,1.10102e-05,9.99999e-01
5.671322110e-01,1.37953e-05,9.99999e-01,9.99999e-01,9.99999e-01,1.37953e-05,9.99999e-01
5.699678720e-01,1.72081e-05,9.99999e-01,9.99999e-01,9.99999e-01,1.72081e-05,9.99999e-01
5.728177114e-01,2.13717e-05,9.99999e-01,9.99999e-01,9.99999e-01,2.13717e-05,9.99999e-01
5.756818000e-01,2.64293e-05,9.99999e-01,9.99999e-01,9.99999e-01,2.64293e-05,9.99999e-01
5.785602090e-01,3.25470e-05,9.99999e-01,9.99999e-01,9.99999e-01,3.25470e-05,9.99999e-01
5.814530100e-01,3.99163e-05,9.99999e-01,9.99999e-01,9.99999e-01,3.99163e-05,9.99999e-01
5.843602750e-01,4.87572e-05,9.99999e-01,9.99999e-01,9.99999e-01,4.87572e-05,9.99999e-01
5.872820764e-01,5.93213e-05,9.99999e-01,9.99999e-01,9.99999e-01,5.93213e-05,9.99999e-01
5.902184868e-01,7.18952e-05,9.99999e-01,9.99999e-01,9.99999e-01,7.18952e-05,9.99999e-01
5.931695792e-01,8.68041e-05,9.99999e-01,9.99999e-01,9.99999e-01,8.68041e-05,9.99999e-01
5.961354271e-01,1.04415e-04,9.99999e-01,9.99999e-01,9.99999e-01,1.04415e-04,9.99999e-01
5.991161043e-01,1.25142e-04,9.99999e-01,9.99999e-01,9.99999e-01,1.25142e-04,9.99999e-01
6.021116848e-01,1.49448e-04,9.99999e-01,9.99999e-01,9.99999e-01,1.49448e-04,9.99999e-01
6.051222432e-01,1.77850e-04,9.99999e-01,9.99999e-01,9.99999e-01,1.77850e-04,9.99999e-01
6.081478544e-01,2.10923e-04,9.99999e-01,9.99999e-01,9.99999e-01,2.10923e-04,9.99999e-01
6.111885937e-01,2.49305e-04,9.99999e-01,9.99999e-01,9.99999e-01,2.49305e-04,9.99999e-01
6.142445367e-01,2.93700e-04,9.99999e-01,9.99999e-01,9.99999e-01,2.93700e-04,9.99999e-01
6.173157594e-01,3.44883e-04,9.99999e-01,9.99999e-01,9.99999e-01,3.44883e-04,9.99999e-01
6.204023382e-01,4.03703e-04,9.99999e-01,9.99999e-01,9.99999e-01,4.03703e-04,9.99999e-01
6.235043498e-01,4.71086e-04,9.99999e-01,9.99999e-01,9.99999e-01,4.71086e-04,9.99999e-01
6.266218716e-01,5.48043e-04,9.99999e-01,9.99999e-01,9.99999e-01,5.48043e-04,9.99999e-01
6.297549810e-01,6.35670e-04,9.99999e-01,9.99999e-01,9.99999e-01,6.35670e-04,9.99999e-01
6.329037559e-01,7.35149e-04,9.99999e-01,9.99999e-01,9.99999e-01,7.35149e-04,9.99999e-01
6.360682746e-01,8.47759e-04,9.99999e-01,9.99999e-01,9.99999e-01,8.47759e-04,9.99999e-01
6.392486160e-01,9.74870e-04,9.99999e-01,9.99999e-01,9.99999e-01,9.74870e-04,9.99999e-01
6.424448591e-01,1.11795e-03,9.99999e-01,9.99999e-01,9.99999e-01,1.11795e-03,9.99999e-01
6.456570834e-01,1.27857e-03,9.99999e-01,9.99999e-01,9.99999e-01,1.27857e-03,9.99999e-01
6.488853688e-01,1.45839e-03,9.99999e-01,9.99999e-01,9.99999e-01,1.45839e-03,9.99999e-01
6.521297956e-01,1.65918e-03,9.99999e-01,9.99999e-01,9.99999e-01,1.65918e-03,9.99999e-01
6.553904446e-01,1.88281e-03,9.99999e-01,9.99999e-01,9.99999e-01,1.88281e-03,9.99999e-01
6.586673968e-01,2.13126e-03,9.99999e-01,9.99999e-01,9.99999e-01,2.13126e-03,9.99999e-01
6.619607338e-01,2.40659e-03,9.99999e-01,9.99999e-01,9.99999e-01,2.40659e-03,9.99999e-01
6.652705375e-01,2.71098e-03,9.99999e-01,9.99999e-01,9.99999e-01,2.71098e-03,9.99999e-01
6.685968902e-01,3.04669e-03,9.99999e-01,9.99999e-01,9.99999e-01,3.04669e-03,9.99999e-01
6.719398746e-01,3.41609e-03,9.99999e-01,9.99999e-01,9.99999e-01,3.41609e-03,9.99999e-01
6.752995740e-01,3.82162e-03,9.99999e-01,9.99999e-01,9.99999e-01,3.82162e-03,9.99999e-01
6.786760719e-01,4.26584e-03,9.99999e-01,9.99999e-01,9.99999e-01,4.26584e-03,9.99999e-01
6.820694522e-01,4.75136e-03,9.99999e-01,9.99999e-01,9.99999e-01,4.75136e-03,9.99999e-01
6.854797995e-01,5.28088e-03,9.99999e-01,9.99999e-01,9.99999e-01,5.28088e-03,9.99999e-01
6.889071985e-01,5.85718e-03,9.99999e-01,9.99999e-01,9.99999e-01,5.85718e-03,9.99999e-01
6.923517345e-01,6.48309e-03,9.99999e-01,9.99999e-01,9.99999e-01,6.48309e-03,9.99999e-01
6.958134932e-01,7.16152e-03,9.99999e-01,9.99999e-01,9.99999e-01,7.16152e-03,9.99999e-01
6.992925606e-01,7.89540e-03,9.99999e-01,9.99999e-01,9.99999e-01,7.89540e-03,9.99999e-01
7.027890234e-01,8.68773e-03,9.99999e-01,9.99999e-01,9.99999e-01,8.68773e-03,9.99999e-01
7.063029686e-01,9.54152e-03,9.99999e-01,9.99999e-01,9.99999e-01,9.54152e-03,9.99999e-01
7.098344834e-01,1.04598e-02,9.99999e-01,9.99999e-01,9.99999e-01,1.04598e-02,9.99999e-01
7.133836558e-01,1.14458e-02,9.99999e-01,9.99999e-01,9.99999e-01,1.14458e-02,9.99999e-01
7.169505741e-01,1.25023e-02,9.99999e-01,9.99999e-01,9.99999e-01,1.25023e-02,9.99999e-01
7.205353270e-01,1.36327e-02,9.99999e-01,9.99999e-01,9.99999e-01,1.36327e-02,9.99999e-01
7.241380036e-01,1.48398e-02,9.99999e-01,9.99999e-01,9.99999e-01,1.48398e-02,9.99999e-01
7.277586936e-01,1.61267e-02,9.99999e-01,9.99999e-01,9.99999e-01,1.61267e-02,9.99999e-01
7.313974871e-01,1.74965e-02,9.99999e-01,9.99999e-01,9.99999e-01,1.74965e-02,9.99999e-01
7.350544745e-01,1.89521e-02,9.99999e-01,9.99999e-01,9.99999e-01,1.89521e-02,9.99999e-01
7.387297469e-01,2.04964e-02,9.99999e-01,9.99999e-01,9.99999e-01,2.04964e-02,9.99999e-01
7.424233956e-01,2.21323e-02,9.99999e-01,9.99999e-01,9.99999e-01,2.21323e-02,9.99999e-01
7.461355126e-01,2.38625e-02,9.99999e-01,9.99999e-01,9.99999e-01,2.38625e-02,9.99999e-01
7.498661902e-01,2.56898e-02,9.99999e-01,9.99999e-01,9.99999e-01,2.56898e-02,9.99999e-01
7.536155211e-01,2.76167e-02,9.99999e-01,9.99999e-01,9.99999e-01,2.76167e-02,9.99999e-01
7.573835987e-01,2.96457e-02,9.99999e-01,9.99999e-01,9.99999e-01,2.96457e-02,9.99999e-01
7.611705167e-01,3.17793e-02,9.99999e-01,9.99999e-01,9.99999e-01,3.17793e-02,9.99999e-01
7.649763693e-01,3.40197e-02,9.99999e-01,9.99999e-01,9.99999e-01,3.40197e-02,9.99999e-01
7.688012511e-01,3.63691e-02,9.99999e-01,9.99999e-01,9.99999e-01,3.63691e-02,9.99999e-01
7.726452574e-01,3.88295e-02,9.99999e-01,9.99999e-01,9.99999e-01,3.88295e-02,9.99999e-01
7.765084837e-01,4.14028e-02,9.99999e-01,9.99999e-01,9.99999e-01,4.14028e-02,9.99999e-01
7.803910261e-01,3.91538e-02,9.99999e-01,9.99999e-01,8.88028e-01,4.40907e-02,9.99999e-01
7.842929812e-01,2.58493e-02,9.99999e-01,9.99999e-01,5.51220e-01,4.68947e-02,9.99999e-01
7.882144461e-01,2.66058e-02,9.99999e-01,9.99999e-01,5.34077e-01,4.98164e-02,9.99999e-01
7.921555184e-01,3.56179e-02,9.99999e-01,9.99999e-01,6.73852e-01,5.28570e-02,9.99999e-01
7.961162960e-01,4.28701e-02,9.99999e-01,9.99999e-01,7.65295e-01,5.60176e-02,9.99999e-01
8.000968774e-01,5.12692e-02,9.99999e-01,9.99999e-01,8.64585e-01,5.92991e-02,9.99999e-01
8.040973618e-01,5.81507e-02,9.99999e-01,9.99999e-01,9.27408e-01,6.27023e-02,9.99999e-01
8.081178486e-01,6.39656e-02,9.99999e-01,9.99999e-01,9.65841e-01,6.62278e-02,9.99999e-01
8.121584379e-01,6.91355e-02,9.99999e-01,9.99999e-01,9.89402e-01,6.98760e-02,9.99999e-01
8.162192301e-01,7.34739e-02,9.99999e-01,9.99999e-01,9.97649e-01,7.36470e-02,9.99999e-01
8.203003262e-01,7.75385e-02,9.99999e-01,9.99999e-01,9.99967e-01,7.75410e-02,9.99999e-01
8.244018279e-01,8.15579e-02,9.99999e-01,9.99999e-01,9.99999e-01,8.15579e-02,9.99999e-01
8.285238370e-01,8.56973e-02,9.99999e-01,9.99999e-01,9.99999e-01,8.56973e-02,9.99999e-01
8.326664562e-01,8.99588e-02,9.99999e-01,9.99999e-01,9.99999e-01,8.99588e-02,9.99999e-01
8.368297885e-01,9.43418e-02,9.99999e-01,9.99999e-01,9.99999e-01,9.43418e-02,9.99999e-01
8.410139374e-01,9.88453e-02,9.99999e-01,9.99999e-01,9.99999e-01,9.88453e-02,9.99999e-01
8.452190071e-01,1.03469e-01,9.99999e-01,9.99999e-01,9.99999e-01,1.03469e-01,9.99999e-01
8.494451021e-01,1.08210e-01,9.99999e-01,9.99999e-01,9.99999e-01,1.08210e-01,9.99999e-01
8.536923276e-01,1.13069e-01,9.99999e-01,9.99999e-01,9.99999e-01,1.13069e-01,9.99999e-01
8.579607893e-01,1.18044e-01,9.99999e-01,9.99999e-01,9.99999e-01,1.18044e-01,9.99999e-01
8.622505932e-01,1.23132e-01,9.99999e-01,9.99999e-01,9.99999e-01,1.23132e-01,9.99999e-01
8.665618462e-01,1.08727e-01,9.99999e-01,9.99999e-01,8.47220e-01,1.28333e-01,9.99999e-01
8.708946554e-01,3.13082e-02,9.99999e-01,9.99999e-01,2.34264e-01,1.33645e-01,9.99999e-01
8.752491287e-01,4.07766e-02,9.99999e-01,9.99999e-01,2.93220e-01,1.39065e-01,9.99999e-01
8.796253743e-01,7.22454e-02,9.99999e-01,9.99999e-01,4.99654e-01,1.44591e-01,9.99999e-01
8.840235012e-01,1.03809e-01,9.99999e-01,9.99999e-01,6.91044e-01,1.50221e-01,9.99999e-01
8.884436187e-01,1.34674e-01,9.99999e-01,9.99999e-01,8.63561e-01,1.55952e-01,9.99999e-01
8.928858368e-01,1.52394e-01,9.99999e-01,9.99999e-01,9.41968e-01,1.61782e-01,9.99999e-01
8.973502660e-01,1.65301e-01,9.99999e-01,9.99999e-01,9.85637e-01,1.67709e-01,9.99999e-01
9.018370173e-01,1.73454e-01,9.99999e-01,9.99999e-01,9.98410e-01,1.73730e-01,9.99999e-01
9.063462024e-01,1.72661e-01,9.99999e-01,9.99999e-01,9.60078e-01,1.79841e-01,9.99999e-01
9.108779334e-01,1.69310e-01,9.99999e-01,9.99999e-01,9.10071e-01,1.86040e-01,9.99999e-01
9.154323231e-01,1.88145e-01,9.99999e-01,9.99999e-01,9.78268e-01,1.92324e-01,9.99999e-01
9.200094847e-01,1.52160e-01,9.99999e-01,9.99999e-01,7.65814e-01,1.98690e-01,9.99999e-01
9.246095321e-01,1.29832e-01,9.99999e-01,9.99999e-01,6.32910e-01,2.05134e-01,9.99999e-01
9.292325798e-01,1.48912e-01,9.99999e-01,9.99999e-01,7.03560e-01,2.11654e-01,9.99999e-01
9.338787427e-01,1.54779e-01,9.99999e-01,9.99999e-01,7.09192e-01,2.18247e-01,9.99999e-01
9.385481364e-01,1.74189e-01,9.99999e-01,9.99999e-01,7.74490e-01,2.24908e-01,9.99999e-01
9.432408771e-01,1.97889e-01,9.99999e-01,9.99999e-01,8.54310e-01,2.31635e-01,9.99999e-01
9.479570815e-01,2.19864e-01,9.99999e-01,9.99999e-01,9.22152e-01,2.38425e-01,9.99999e-01
9.526968669e-01,2.35901e-01,9.99999e-01,9.99999e-01,9.61789e-01,2.45273e-01,9.99999e-01
9.574603512e-01,2.48007e-01,9.99999e-01,9.99999e-01,9.83463e-01,2.52177e-01,9.99999e-01
9.622476530e-01,2.57790e-01,9.99999e-01,9.99999e-01,9.94815e-01,2.59134e-01,9.99999e-01
9.670588912e-01,2.65725e-01,9.99999e-01,9.99999e-01,9.98446e-01,2.66139e-01,9.99999e-01
9.718941857e-01,2.73160e-01,9.99999e-01,9.99999e-01,9.99891e-01,2.73189e-01,9.99999e-01
9.767536566e-01,2.80282e-01,9.99999e-01,9.99999e-01,9.99999e-01,2.80282e-01,9.99999e-01
9.816374249e-01,2.87413e-01,9.99999e-01,9.99999e-01,9.99999e-01,2.87413e-01,9.99999e-01
9.865456120e-01,2.94579e-01,9.99999e-01,9.99999e-01,9.99999e-01,2.94579e-01,9.99999e-01
9.914783401e-01,3.01777e-01,9.99999e-01,9.99999e-01,9.99999e-01,3.01777e-01,9.99999e-01
9.964357318e-01,3.09004e-01,9.99999e-01,9.99999e-01,9.99999e-01,3.09004e-01,9.99999e-01
1.001417910e+00,3.16256e-01,9.99999e-01,9.99999e-01,9.99999e-01,3.16256e-01,9.99999e-01
1.006425000e+00,3.23530e-01,9.99999e-01,9.99999e-01,9.99999e-01,3.23530e-01,9.99999e-01
1.011457125e+00,3.30822e-01,9.99999e-01,9.99999e-01,9.99999e-01,3.30822e-01,9.99999e-01
1.016514411e+00,3.38130e-01,9.99999e-01,9.99999e-01,9.99999e-01,3.38130e-01,9.99999e-01
1.021596983e+00,3.45366e-01,9.99999e-01,9.99999e-01,9.99756e-01,3.45450e-01,9.99999e-01
1.026704968e+00,3.47090e-01,9.99999e-01,9.99999e-01,9.83873e-01,3.52780e-01,9.99999e-01
1.031838492e+00,3.17126e-01,9.99999e-01,9.99999e-01,8.80622e-01,3.60115e-01,9.99999e-01
1.036997685e+00,1.26221e-02,9.99999e-01,9.99999e-01,3.43503e-02,3.67454e-01,9.99999e-01
1.042182673e+00,2.97886e-04,9.99999e-01,9.99999e-01,7.94802e-04,3.74793e-01,9.99999e-01
1.047393587e+00,8.63718e-04,9.99999e-01,9.99999e-01,2.26028e-03,3.82129e-01,9.99999e-01
1.052630555e+00,7.46745e-09,9.99999e-01,9.99999e-01,1.91739e-08,3.89459e-01,9.99999e-01
1.057893707e+00,2.83673e-08,9.99999e-01,9.99999e-01,7.14933e-08,3.96782e-01,9.99999e-01
1.063183176e+00,2.48709e-06,9.99999e-01,9.99999e-01,6.15475e-06,4.04093e-01,9.99999e-01
1.068499092e+00,4.06177e-05,9.99999e-01,9.99999e-01,9.87327e-05,4.11390e-01,9.99999e-01
1.073841587e+00,1.02794e-03,9.99999e-01,9.99999e-01,2.45524e-03,4.18672e-01,9.99999e-01
1.079210795e+00,1.00556e-02,9.99999e-01,9.99999e-01,2.36084e-02,4.25934e-01,9.99999e-01
1.084606849e+00,5.03225e-02,9.99999e-01,9.99999e-01,1.16171e-01,4.33175e-01,9.99999e-01
1.090029883e+00,1.41900e-01,9.99999e-01,9.99999e-01,3.22212e-01,4.40393e-01,9.99999e-01
1.095480033e+00,2.55398e-01,9.99999e-01,9.99999e-01,5.70612e-01,4.47585e-01,9.99999e-01
1.100957433e+00,3.46254e-01,9.99999e-01,9.99999e-01,7.61418e-01,4.54749e-01,9.99999e-01
1.106462220e+00,4.12573e-01,9.99999e-01,9.99999e-01,8.93241e-01,4.61882e-01,9.99999e-01
1.111994531e+00,4.49725e-01,9.99999e-01,9.99999e-01,9.58935e-01,4.68984e-01,9.99999e-01
1.117554504e+00,4.71221e-01,9.99999e-01,9.99999e-01,9.89854e-01,4.76051e-01,9.99999e-01
1.123142276e+00,4.82760e-01,9.99999e-01,9.99999e-01,9.99334e-01,4.83081e-01,9.99999e-01
1.128757988e+00,4.90074e-01,9.99999e-01,9.99999e-01,9.99999e-01,4.90074e-01,9.99999e-01
1.134401778e+00,4.97027e-01,9.99999e-01,9.99999e-01,9.99999e-01,4.97027e-01,9.99999e-01
1.140073787e+00,5.03938e-01,9.99999e-01,9.99999e-01,9.99999e-01,5.03938e-01,9.99999e-01
1.145774156e+00,5.10806e-01,9.99999e-01,9.99999e-01,9.99999e-01,5.10806e-01,9.99999e-01
1.151503026e+00,5.17629e-01,9.99999e-01,9.99999e-01,9.99999e-01,5.17629e-01,9.99999e-01
1.157260541e+00,5.24406e-01,9.99999e-01,9.99999e-01,9.99999e-01,5.24406e-01,9.99999e-01
1.163046844e+00,5.31135e-01,9.99999e-01,9.99999e-01,9.99999e-01,5.31135e-01,9.99999e-01
1.168862078e+00,5.37814e-01,9.99999e-01,9.99999e-01,9.99999e-01,5.37814e-01,9.99999e-01
1.174706389e+00,5.44444e-01,9.99999e-01,9.99999e-01,9.99999e-01,5.44444e-01,9.99999e-01
1.180579921e+00,5.51022e-01,9.99999e-01,9.99999e-01,9.99999e-01,5.51022e-01,9.99999e-01
1.186482820e+00,5.57527e-01,9.99999e-01,9.99999e-01,9.99964e-01,5.57547e-01,9.99999e-01
1.192415234e+00,5.33684e-01,9.99999e-01,9.99999e-01,9.46218e-01,5.64018e-01,9.99999e-01
1.198377311e+00,2.81779e-01,9.99999e-01,9.99999e-01,4.93972e-01,5.70434e-01,9.99999e-01
1.204369197e+00,8.63650e-41,9.99999e-01,9.99999e-01,1.49733e-40,5.76794e-01,9.99999e-01
1.210391043e+00,7.77512e-168,9.99999e-01,9.99999e-01,1.33342e-167,5.83098e-01,9.99999e-01
1.216442998e+00,4.07632e-145,9.99999e-01,9.99999e-01,6.91671e-145,5.89344e-01,9.99999e-01
1.222525213e+00,6.31599e-143,9.99999e-01,9.99999e-01,1.06056e-142,5.95531e-01,9.99999e-01
1.228637839e+00,4.47945e-110,9.99999e-01,9.99999e-01,7.44515e-110,6.01659e-01,9.99999e-01
