#,Wave/freq,Total,N2,O2,CO2,Rayleigh,CIA
4.000000000e-01,7.59928e-07,9.99999e-01,9.99999e-01,9.99999e-01,7.59928e-07,9.99999e-01
4.020000000e-01,1.00408e-06,9.99999e-01,9.99999e-01,9.99999e-01,1.00408e-06,9.99999e-01
4.040100000e-01,1.31901e-06,9.99999e-01,9.99999e-01,9.99999e-01,1.31901e-06,9.99999e-01
4.060300500e-01,1.72341e-06,9.99999e-01,9.99999e-01,9.99999e-01,1.72341e-06,9.99999e-01
4.080602003e-01,2.23993e-06,9.99999e-01,9.99999e-01,9.99999e-01,2.23993e-06,9.99999e-01
4.101005013e-01,2.89622e-06,9.99999e-01,9.99999e-01,9.99999e-01,2.89622e-06,9.99999e-01
4.121510038e-01,3.72583e-06,9.99999e-01,9.99999e-01,9.99999e-01,3.72583e-06,9.99999e-01
4.142117588e-01,4.76931e-06,9.99999e-01,9.99999e-01,9.99999e-01,4.76931e-06,9.99999e-01
4.162828176e-01,6.07532e-06,9.99999e-01,9.99999e-01,9.99999e-01,6.07532e-06,9.99999e-01
4.183642317e-01,7.70205e-06,9.99999e-01,9.99999e-01,9.99999e-01,7.70205e-06,9.99999e-01
4.204560528e-01,9.71871e-06,9.99999e-01,9.99999e-01,9.99999e-01,9.71871e-06,9.99999e-01
4.225583331e-01,1.22072e-05,9.99999e-01,9.99999e-01,9.99999e-01,1.22072e-05,9.99999e-01
4.246711247e-01,1.52640e-05,9.99999e-01,9.99999e-01,9.99999e-01,1.52640e-05,9.99999e-01
4.267944804e-01,1.90021e-05,9.99999e-01,9.99999e-01,9.99999e-01,1.90021e-05,9.99999e-01
4.289284528e-01,2.35536e-05,9.99999e-01,9.99999e-01,9.99999e-01,2.35536e-05,9.99999e-01
4.310730950e-01,2.90717e-05,9.99999e-01,9.99999e-01,9.99999e-01,2.90717e-05,9.99999e-01
4.332284605e-01,3.57337e-05,9.99999e-01,9.99999e-01,9.99999e-01,3.57337e-05,9.99999e-01
4.353946028e-01,4.37437e-05,9.99999e-01,9.99999e-01,9.99999e-01,4.37437e-05,9.99999e-01
4.375715758e-01,5.33358e-05,9.99999e-01,9.99999e-01,9.99999e-01,5.33358e-05,9.99999e-01
4.397594337e-01,6.47770e-05,9.99999e-01,9.99999e-01,9.99999e-01,6.47770e-05,9.99999e-01
4.419582309e-01,7.83710e-05,9.99999e-01,9.99999e-01,9.99999e-01,7.83710e-05,9.99999e-01
4.441680220e-01,9.44617e-05,9.99999e-01,9.99999e-01,9.99999e-01,9.44617e-05,9.99999e-01
4.463888621e-01,1.13437e-04,9.99999e-01,9.99999e-01,9.99999e-01,1.13437e-04,9.99999e-01
4.486208064e-01,1.35732e-04,9.99999e-01,9.99999e-01,9.99999e-01,1.35732e-04,9.99999e-01
4.508639105e-01,1.61835e-04,9.99999e-01,9.99999e-01,9.99999e-01,1.61835e-04,9.99999e-01
4.531182300e-01,1.92288e-04,9.99999e-01,9.99999e-01,9.99999e-01,1.92288e-04,9.99999e-01
4.553838212e-01,2.27695e-04,9.99999e-01,9.99999e-01,9.99999e-01,2.27695e-04,9.99999e-01
4.576607403e-01,2.68723e-04,9.99999e-01,9.99999e-01,9.99999e-01,2.68723e-04,9.99999e-01
4.599490440e-01,3.16108e-04,9.99999e-01,9.99999e-01,9.99999e-01,3.16108e-04,9.99999e-01
4.622487892e-01,3.70657e-04,9.99999e-01,9.99999e-01,9.99999e-01,3.70657e-04,9.99999e-01
4.645600332e-01,4.33254e-04,9.99999e-01,9.99999e-01,9.99999e-01,4.33254e-04,9.99999e-01
4.668828333e-01,5.04865e-04,9.99999e-01,9.99999e-01,9.99999e-01,5.04865e-04,9.99999e-01
4.692172475e-01,5.86538e-04,9.99999e-01,9.99999e-01,9.99999e-01,5.86538e-04,9.99999e-01
4.715633337e-01,6.79407e-04,9.99999e-01,9.99999e-01,9.99999e-01,6.79407e-04,9.99999e-01
4.739211504e-01,7.84700e-04,9.99999e-01,9.99999e-01,9.99999e-01,7.84700e-04,9.99999e-01
4.762907561e-01,9.03734e-04,9.99999e-01,9.99999e-01,9.99999e-01,9.03734e-04,9.99999e-01
4.786722099e-01,1.03793e-03,9.99999e-01,9.99999e-01,9.99999e-01,1.03793e-03,9.99999e-01
4.810655710e-01,1.18879e-03,9.99999e-01,9.99999e-01,9.99999e-01,1.18879e-03,9.99999e-01
4.834708988e-01,1.35793e-03,9.99999e-01,9.99999e-01,9.99999e-01,1.35793e-03,9.99999e-01
4.858882533e-01,1.54707e-03,9.99999e-01,9.99999e-01,9.99999e-01,1.54707e-03,9.99999e-01
4.883176946e-01,1.75803e-03,9.99999e-01,9.99999e-01,9.99999e-01,1.75803e-03,9.99999e-01
4.907592831e-01,1.99270e-03,9.99999e-01,9.99999e-01,9.99999e-01,1.99270e-03,9.99999e-01
4.932130795e-01,2.25313e-03,9.99999e-01,9.99999e-01,9.99999e-01,2.25313e-03,9.99999e-01
4.956791449e-01,2.54141e-03,9.99999e-01,9.99999e-01,9.99999e-01,2.54141e-03,9.99999e-01
4.981575406e-01,2.85977e-03,9.99999e-01,9.99999e-01,9.99999e-01,2.85977e-03,9.99999e-01
5.006483283e-01,3.21051e-03,9.99999e-01,9.99999e-01,9.99999e-01,3.21051e-03,9.99999e-01
5.031515699e-01,3.59605e-03,9.99999e-01,9.99999e-01,9.99999e-01,3.59605e-03,9.99999e-01
5.056673278e-01,4.01887e-03,9.99999e-01,9.99999e-01,9.99999e-01,4.01887e-03,9.99999e-01
5.081956644e-01,4.48156e-03,9.99999e-01,9.99999e-01,9.99999e-01,4.48156e-03,9.99999e-01
5.107366428e-01,4.98677e-03,9.99999e-01,9.99999e-01,9.99999e-01,4.98677e-03,9.99999e-01
5.132903260e-01,5.53724e-03,9.99999e-01,9.99999e-01,9.99999e-01,5.53724e-03,9.99999e-01
5.158567776e-01,6.13577e-03,9.99999e-01,9.99999e-01,9.99999e-01,6.13577e-03,9.99999e-01
5.184360615e-01,6.78522e-03,9.99999e-01,9.99999e-01,9.99999e-01,6.78522e-03,9.99999e-01
5.210282418e-01,7.48852e-03,9.99999e-01,9.99999e-01,9.99999e-01,7.48852e-03,9.99999e-01
5.236333830e-01,8.24863e-03,9.99999e-01,9.99999e-01,9.99999e-01,8.24863e-03,9.99999e-01
5.262515499e-01,9.06856e-03,9.99999e-01,9.99999e-01,9.99999e-01,9.06856e-03,9.99999e-01
5.288828077e-01,9.95135e-03,9.99999e-01,9.99999e-01,9.99999e-01,9.95135e-03,9.99999e-01
5.315272217e-01,1.09001e-02,9.99999e-01,9.99999e-01,9.99999e-01,1.09001e-02,9.99999e-01
5.341848578e-01,1.19178e-02,9.99999e-01,9.99999e-01,9.99999e-01,1.19178e-02,9.99999e-01
5.368557821e-01,1.30075e-02,9.99999e-01,9.99999e-01,9.99999e-01,1.30075e-02,9.99999e-01
5.395400610e-01,1.41724e-02,9.99999e-01,9.99999e-01,9.99999e-01,1.41724e-02,9.99999e-01
5.422377613e-01,1.54155e-02,9.99999e-01,9.99999e-01,9.99999e-01,1.54155e-02,9.99999e-01
5.449489501e-01,1.67398e-02,9.99999e-01,9.99999e-01,9.99999e-01,1.67398e-02,9.99999e-01
5.476736949e-01,1.81483e-02,9.99999e-01,9.99999e-01,9.99999e-01,1.81483e-02,9.99999e-01
5.504120634e-01,1.96439e-02,9.99999e-01,9.99999e-01,9.99999e-01,1.96439e-02,9.99999e-01
5.531641237e-01,2.12295e-02,9.99999e-01,9.99999e-01,9.99999e-01,2.12295e-02,9.99999e-01
5.559299443e-01,2.29080e-02,9.99999e-01,9.99999e-01,9.99999e-01,2.29080e-02,9.99999e-01
5.587095940e-01,2.46821e-02,9.99999e-01,9.99999e-01,9.99999e-01,2.46821e-02,9.99999e-01
5.615031420e-01,2.65544e-02,9.99999e-01,9.99999e-01,9.99999e-01,2.65544e-02,9.99999e-01
5.643106577e-01,2.85275e-02,9.99999e-01,9.99999e-01,9.99999e-01,2.85275e-02,9.99999e-01
5.671322110e-01,3.06038e-02,9.99999e-01,9.99999e-01,9.99999e-01,3.06038e-02,9.99999e-01
5.699678720e-01,3.27858e-02,9.99999e-01,9.99999e-01,9.99999e-01,3.27858e-02,9.99999e-01
5.728177114e-01,3.50755e-02,9.99999e-01,9.99999e-01,9.99999e-01,3.50755e-02,9.99999e-01
5.756818000e-01,3.74752e-02,9.99999e-01,9.99999e-01,9.99999e-01,3.74752e-02,9.99999e-01
5.785602090e-01,3.99867e-02,9.99999e-01,9.99999e-01,9.99999e-01,3.99867e-02,9.99999e-01
5.814530100e-01,4.26120e-02,9.99999e-01,9.99999e-01,9.99999e-01,4.26120e-02,9.99999e-01
5.843602750e-01,4.53526e-02,9.99999e-01,9.99999e-01,9.99999e-01,4.53526e-02,9.99999e-01
5.872820764e-01,4.82100e-02,9.99999e-01,9.99999e-01,9.99999e-01,4.82100e-02,9.99999e-01
5.902184868e-01,5.11857e-02,9.99999e-01,9.99999e-01,9.99999e-01,5.11857e-02,9.99999e-01
5.931695792e-01,5.42808e-02,9.99999e-01,9.99999e-01,9.99999e-01,5.42808e-02,9.99999e-01
5.961354271e-01,5.74963e-02,9.99999e-01,9.99999e-01,9.99999e-01,5.74963e-02,9.99999e-01
5.991161043e-01,6.08331e-02,9.99999e-01,9.99999e-01,9.99999e-01,6.08331e-02,9.99999e-01
6.021116848e-01,6.42919e-02,9.99999e-01,9.99999e-01,9.99999e-01,6.42919e-02,9.99999e-01
6.051222432e-01,6.78732e-02,9.99999e-01,9.99999e-01,9.99999e-01,6.78732e-02,9.99999e-01
6.081478544e-01,7.15772e-02,9.99999e-01,9.99999e-01,9.99999e-01,7.15772e-02,9.99999e-01
6.111885937e-01,7.54043e-02,9.99999e-01,9.99999e-01,9.99999e-01,7.54043e-02,9.99999e-01
6.142445367e-01,7.93543e-02,9.99999e-01,9.99999e-01,9.99999e-01,7.93543e-02,9.99999e-01
6.173157594e-01,8.34270e-02,9.99999e-01,9.99999e-01,9.99999e-01,8.34270e-02,9.99999e-01
6.204023382e-01,8.76220e-02,9.99999e-01,9.99999e-01,9.99999e-01,8.76220e-02,9.99999e-01
6.235043498e-01,9.19389e-02,9.99999e-01,9.99999e-01,9.99999e-01,9.19389e-02,9.99999e-01
6.266218716e-01,9.63769e-02,9.99999e-01,9.99999e-01,9.99999e-01,9.63769e-02,9.99999e-01
6.297549810e-01,1.00935e-01,9.99999e-01,9.99999e-01,9.99999e-01,1.00935e-01,9.99999e-01
6.329037559e-01,1.05612e-01,9.99999e-01,9.99999e-01,9.99999e-01,1.05612e-01,9.99999e-01
6.360682746e-01,1.10407e-01,9.99999e-01,9.99999e-01,9.99999e-01,1.10407e-01,9.99999e-01
6.392486160e-01,1.15319e-01,9.99999e-01,9.99999e-01,9.99999e-01,1.15319e-01,9.99999e-01
6.424448591e-01,1.20346e-01,9.99999e-01,9.99999e-01,9.99999e-01,1.20346e-01,9.99999e-01
6.456570834e-01,1.25486e-01,9.99999e-01,9.99999e-01,9.99999e-01,1.25486e-01,9.99999e-01
6.488853688e-01,1.30737e-01,9.99999e-01,9.99999e-01,9.99999e-01,1.30737e-01,9.99999e-01
6.521297956e-01,1.36099e-01,9.99999e-01,9.99999e-01,9.99999e-01,1.36099e-01,9.99999e-01
6.553904446e-01,1.41567e-01,9.99999e-01,9.99999e-01,9.99999e-01,1.41567e-01,9.99999e-01
6.586673968e-01,1.47141e-01,9.99999e-01,9.99999e-01,9.99999e-01,1.47141e-01,9.99999e-01
6.619607338e-01,1.52817e-01,9.99999e-01,9.99999e-01,9.99999e-01,1.52817e-01,9.99999e-01
6.652705375e-01,1.58594e-01,9.99999e-01,9.99999e-01,9.99999e-01,1.58594e-01,9.99999e-01
6.685968902e-01,1.64469e-01,9.99999e-01,9.99999e-01,9.99999e-01,1.64469e-01,9.99999e-01
6.719398746e-01,1.70438e-01,9.99999e-01,9.99999e-01,9.99999e-01,1.70438e-01,9.99999e-01
6.752995740e-01,1.76500e-01,9.99999e-01,9.99999e-01,9.99999e-01,1.76500e-01,9.99999e-01
6.786760719e-01,1.82652e-01,9.99999e-01,9.99999e-01,9.99999e-01,1.82652e-01,9.99999e-01
6.820694522e-01,1.88890e-01,9.99999e-01,9.99999e-01,9.99999e-01,1.88890e-01,9.99999e-01
6.854797995e-01,1.95212e-01,9.99999e-01,9.99999e-01,9.99999e-01,1.95212e-01,9.99999e-01
6.889071985e-01,2.01614e-01,9.99999e-01,9.99999e-01,9.99999e-01,2.01614e-01,9.99999e-01
6.923517345e-01,2.08093e-01,9.99999e-01,9.99999e-01,9.99999e-01,2.08093e-01,9.99999e-01
6.958134932e-01,2.14646e-01,9.99999e-01,9.99999e-01,9.99999e-01,2.14646e-01,9.99999e-01
6.992925606e-01,2.21270e-01,9.99999e-01,9.99999e-01,9.99999e-01,2.21270e-01,9.99999e-01
7.027890234e-01,2.27962e-01,9.99999e-01,9.99999e-01,9.99999e-01,2.27962e-01,9.99999e-01
7.063029686e-01,2.34718e-01,9.99999e-01,9.99999e-01,9.99999e-01,2.34718e-01,9.99999e-01
7.098344834e-01,2.41535e-01,9.99999e-01,9.99999e-01,9.99999e-01,2.41535e-01,9.99999e-01
7.133836558e-01,2.48409e-01,9.99999e-01,9.99999e-01,9.99999e-01,2.48409e-01,9.99999e-01
7.169505741e-01,2.55337e-01,9.99999e-01,9.99999e-01,9.99999e-01,2.55337e-01,9.99999e-01
7.205353270e-01,2.62316e-01,9.99999e-01,9.99999e-01,9.99999e-01,2.62316e-01,9.99999e-01
7.241380036e-01,2.69343e-01,9.99999e-01,9.99999e-01,9.99999e-01,2.69343e-01,9.99999e-01
7.277586936e-01,2.76413e-01,9.99999e-01,9.99999e-01,9.99999e-01,2.76413e-01,9.99999e-01
7.313974871e-01,2.83523e-01,9.99999e-01,9.99999e-01,9.99999e-01,2.83523e-01,9.99999e-01
7.350544745e-01,2.90671e-01,9.99999e-01,9.99999e-01,9.99999e-01,2.90671e-01,9.99999e-01
7.387297469e-01,2.97852e-01,9.99999e-01,9.99999e-01,9.99999e-01,2.97852e-01,9.99999e-01
7.424233956e-01,3.05063e-01,9.99999e-01,9.99999e-01,9.99999e-01,3.05063e-01,9.99999e-01
7.461355126e-01,3.12302e-01,9.99999e-01,9.99999e-01,9.99999e-01,3.12302e-01,9.99999e-01
7.498661902e-01,3.19564e-01,9.99999e-01,9.99999e-01,9.99999e-01,3.19564e-01,9.99999e-01
7.536155211e-01,3.26847e-01,9.99999e-01,9.99999e-01,9.99999e-01,3.26847e-01,9.99999e-01
7.573835987e-01,3.34147e-01,9.99999e-01,9.99999e-01,9.99999e-01,3.34147e-01,9.99999e-01
7.611705167e-01,3.41461e-01,9.99999e-01,9.99999e-01,9.99999e-01,3.41461e-01,9.99999e-01
7.649763693e-01,3.48785e-01,9.99999e-01,9.99999e-01,9.99999e-01,3.48785e-01,9.99999e-01
7.688012511e-01,3.56118e-01,9.99999e-01,9.99999e-01,9.99999e-01,3.56118e-01,9.99999e-01
7.726452574e-01,3.63455e-01,9.99999e-01,9.99999e-01,9.99999e-01,3.63455e-01,9.99999e-01
7.765084837e-01,3.70794e-01,9.99999e-01,9.99999e-01,9.99999e-01,3.70794e-01,9.99999e-01
7.803910261e-01,3.62202e-01,9.99999e-01,9.99999e-01,9.57869e-01,3.78132e-01,9.99999e-01
7.842929812e-01,3.15338e-01,9.99999e-01,9.99999e-01,8.18069e-01,3.85466e-01,9.99999e-01
7.882144461e-01,3.17300e-01,9.99999e-01,9.99999e-01,8.07802e-01,3.92793e-01,9.99999e-01
7.921555184e-01,3.52885e-01,9.99999e-01,9.99999e-01,8.81967e-01,4.00111e-01,9.99999e-01
7.961162960e-01,3.74318e-01,9.99999e-01,9.99999e-01,9.18758e-01,4.07416e-01,9.99999e-01
8.000968774e-01,3.96111e-01,9.99999e-01,9.99999e-01,9.55159e-01,4.14707e-01,9.99999e-01
8.040973618e-01,4.12036e-01,9.99999e-01,9.99999e-01,9.76435e-01,4.21980e-01,9.99999e-01
8.081178486e-01,4.24576e-01,9.99999e-01,9.99999e-01,9.89149e-01,4.29233e-01,9.99999e-01
8.121584379e-01,4.34986e-01,9.99999e-01,9.99999e-01,9.96614e-01,4.36464e-01,9.99999e-01
8.162192301e-01,4.43338e-01,9.99999e-01,9.99999e-01,9.99251e-01,4.43670e-01,9.99999e-01
8.203003262e-01,4.50844e-01,9.99999e-01,9.99999e-01,9.99987e-01,4.50850e-01,9.99999e-01
8.244018279e-01,4.58000e-01,9.99999e-01,9.99999e-01,9.99999e-01,4.58000e-01,9.99999e-01
8.285238370e-01,4.65119e-01,9.99999e-01,9.99999e-01,9.99999e-01,4.65119e-01,9.99999e-01
8.326664562e-01,4.72205e-01,9.99999e-01,9.99999e-01,9.99999e-01,4.72205e-01,9.99999e-01
8.368297885e-01,4.79256e-01,9.99999e-01,9.99999e-01,9.99999e-01,4.79256e-01,9.99999e-01
8.410139374e-01,4.86269e-01,9.99999e-01,9.99999e-01,9.99999e-01,4.86269e-01,9.99999e-01
8.452190071e-01,4.93244e-01,9.99999e-01,9.99999e-01,9.99999e-01,4.93244e-01,9.99999e-01
8.494451021e-01,5.00178e-01,9.99999e-01,9.99999e-01,9.99999e-01,5.00178e-01,9.99999e-01
8.536923276e-01,5.07070e-01,9.99999e-01,9.99999e-01,9.99999e-01,5.07070e-01,9.99999e-01
8.579607893e-01,5.13917e-01,9.99999e-01,9.99999e-01,9.99999e-01,5.13917e-01,9.99999e-01
8.622505932e-01,5.20719e-01,9.99999e-01,9.99999e-01,9.99999e-01,5.20719e-01,9.99999e-01
8.665618462e-01,4.82334e-01,9.99999e-01,9.99999e-01,9.14421e-01,5.27475e-01,9.99999e-01
8.708946554e-01,3.22650e-01,9.99999e-01,9.99999e-01,6.04007e-01,5.34181e-01,9.99999e-01
8.752491287e-01,3.58845e-01,9.99999e-01,9.99999e-01,6.63497e-01,5.40838e-01,9.99999e-01
8.796253743e-01,4.36328e-01,9.99999e-01,9.99999e-01,7.97026e-01,5.47445e-01,9.99999e-01
8.840235012e-01,4.92356e-01,9.99999e-01,9.99999e-01,8.88731e-01,5.53998e-01,9.99999e-01
8.884436187e-01,5.34936e-01,9.99999e-01,9.99999e-01,9.54392e-01,5.60499e-01,9.99999e-01
8.928858368e-01,5.56347e-01,9.99999e-01,9.99999e-01,9.81305e-01,5.66945e-01,9.99999e-01
8.973502660e-01,5.70702e-01,9.99999e-01,9.99999e-01,9.95404e-01,5.73336e-01,9.99999e-01
9.018370173e-01,5.79376e-01,9.99999e-01,9.99999e-01,9.99491e-01,5.79671e-01,9.99999e-01
9.063462024e-01,5.78567e-01,9.99999e-01,9.99999e-01,9.87402e-01,5.85948e-01,9.99999e-01
9.108779334e-01,5.74819e-01,9.99999e-01,9.99999e-01,9.70703e-01,5.92167e-01,9.99999e-01
9.154323231e-01,5.94137e-01,9.99999e-01,9.99999e-01,9.92994e-01,5.98328e-01,9.99999e-01
9.200094847e-01,5.48043e-01,9.99999e-01,9.99999e-01,9.06712e-01,6.04429e-01,9.99999e-01
9.246095321e-01,5.27929e-01,9.99999e-01,9.99999e-01,8.64790e-01,6.10470e-01,9.99999e-01
9.292325798e-01,5.50820e-01,9.99999e-01,9.99999e-01,8.93535e-01,6.16450e-01,9.99999e-01
9.338787427e-01,5.57602e-01,9.99999e-01,9.99999e-01,8.95935e-01,6.22369e-01,9.99999e-01
9.385481364e-01,5.79438e-01,9.99999e-01,9.99999e-01,9.22340e-01,6.28226e-01,9.99999e-01
9.432408771e-01,6.03305e-01,9.99999e-01,9.99999e-01,9.51553e-01,6.34021e-01,9.99999e-01
9.479570815e-01,6.23696e-01,9.99999e-01,9.99999e-01,9.74900e-01,6.39753e-01,9.99999e-01
9.526968669e-01,6.37552e-01,9.99999e-01,9.99999e-01,9.87804e-01,6.45423e-01,9.99999e-01
9.574603512e-01,6.47621e-01,9.99999e-01,9.99999e-01,9.94764e-01,6.51029e-01,9.99999e-01
9.622476530e-01,6.55497e-01,9.99999e-01,9.99999e-01,9.98362e-01,6.56572e-01,9.99999e-01
9.670588912e-01,6.61725e-01,9.99999e-01,9.99999e-01,9.99508e-01,6.62051e-01,9.99999e-01
9.718941857e-01,6.67442e-01,9.99999e-01,9.99999e-01,9.99964e-01,6.67466e-01,9.99999e-01
9.767536566e-01,6.72817e-01,9.99999e-01,9.99999e-01,9.99999e-01,6.72817e-01,9.99999e-01
9.816374249e-01,6.78104e-01,9.99999e-01,9.99999e-01,9.99999e-01,6.78104e-01,9.99999e-01
9.865456120e-01,6.83327e-01,9.99999e-01,9.99999e-01,9.99999e-01,6.83327e-01,9.99999e-01
9.914783401e-01,6.88486e-01,9.99999e-01,9.99999e-01,9.99999e-01,6.88486e-01,9.99999e-01
9.964357318e-01,6.93581e-01,9.99999e-01,9.99999e-01,9.99999e-01,6.93581e-01,9.99999e-01
1.001417910e+00,6.98612e-01,9.99999e-01,9.99999e-01,9.99999e-01,6.98612e-01,9.99999e-01
1.006425000e+00,7.03579e-01,9.99999e-01,9.99999e-01,9.99999e-01,7.03579e-01,9.99999e-01
1.011457125e+00,7.08482e-01,9.99999e-01,9.99999e-01,9.99999e-01,7.08482e-01,9.99999e-01
1.016514411e+00,7.13321e-01,9.99999e-01,9.99999e-01,9.99999e-01,7.13321e-01,9.99999e-01
1.021596983e+00,7.18052e-01,9.99999e-01,9.99999e-01,9.99937e-01,7.18097e-01,9.99999e-01
1.026704968e+00,7.19250e-01,9.99999e-01,9.99999e-01,9.95075e-01,7.22809e-01,9.99999e-01
1.031838492e+00,6.90309e-01,9.99999e-01,9.99999e-01,9.48932e-01,7.27459e-01,9.99999e-01
1.036997685e+00,8.67548e-02,9.99999e-01,9.99999e-01,1.18510e-01,7.32045e-01,9.99999e-01
1.042182673e+00,4.63848e-02,9.99999e-01,9.99999e-01,6.29740e-02,7.36569e-01,9.99999e-01
1.047393587e+00,6.58326e-02,9.99999e-01,9.99999e-01,8.88391e-02,7.41031e-01,9.99999e-01
1.052630555e+00,6.81489e-04,9.99999e-01,9.99999e-01,9.14220e-04,7.45431e-01,9.99999e-01
1.057893707e+00,1.96950e-03,9.99999e-01,9.99999e-01,2.62680e-03,7.49770e-01,9.99999e-01
1.063183176e+00,9.18170e-03,9.99999e-01,9.99999e-01,1.21766e-02,7.54047e-01,9.99999e-01
1.068499092e+00,3.35282e-02,9.99999e-01,9.99999e-01,4.42171e-02,7.58263e-01,9.99999e-01
1.073841587e+00,1.05225e-01,9.99999e-01,9.99999e-01,1.38015e-01,7.62419e-01,9.99999e-01
1.079210795e+00,2.18689e-01,9.99999e-01,9.99999e-01,2.85303e-01,7.66515e-01,9.99999e-01
1.084606849e+00,3.84489e-01,9.99999e-01,9.99999e-01,4.98979e-01,7.70552e-01,9.99999e-01
1.090029883e+00,5.39682e-01,9.99999e-01,9.99999e-01,6.96786e-01,7.74529e-01,9.99999e-01
1.095480033e+00,6.51307e-01,9.99999e-01,9.99999e-01,8.36673e-01,7.78448e-01,9.99999e-01
1.100957433e+00,7.17864e-01,9.99999e-01,9.99999e-01,9.17622e-01,7.82308e-01,9.99999e-01
1.106462220e+00,7.58625e-01,9.99999e-01,9.99999e-01,9.65034e-01,7.86111e-01,9.99999e-01
1.111994531e+00,7.79505e-01,9.99999e-01,9.99999e-01,9.86893e-01,7.89857e-01,9.99999e-01
1.117554504e+00,7.90986e-01,9.99999e-01,9.99999e-01,9.96773e-01,7.93546e-01,9.99999e-01
1.123142276e+00,7.97009e-01,9.99999e-01,9.99999e-01,9.99786e-01,7.97179e-01,9.99999e-01
1.128757988e+00,8.00756e-01,9.99999e-01,9.99999e-01,9.99999e-01,8.00756e-01,9.99999e-01
1.134401778e+00,8.04278e-01,9.99999e-01,9.99999e-01,9.99999e-01,8.04278e-01,9.99999e-01
1.140073787e+00,8.07746e-01,9.99999e-01,9.99999e-01,9.99999e-01,8.07746e-01,9.99999e-01
1.145774156e+00,8.11160e-01,9.99999e-01,9.99999e-01,9.99999e-01,8.11160e-01,9.99999e-01
1.151503026e+00,8.14520e-01,9.99999e-01,9.99999e-01,9.99999e-01,8.14520e-01,9.99999e-01
1.157260541e+00,8.17827e-01,9.99999e-01,9.99999e-01,9.99999e-01,8.17827e-01,9.99999e-01
1.163046844e+00,8.21083e-01,9.99999e-01,9.99999e-01,9.99999e-01,8.21083e-01,9.99999e-01
1.168862078e+00,8.24286e-01,9.99999e-01,9.99999e-01,9.99999e-01,8.24286e-01,9.99999e-01
1.174706389e+00,8.27438e-01,9.99999e-01,9.99999e-01,9.99999e-01,8.27438e-01,9.99999e-01
1.180579921e+00,8.30540e-01,9.99999e-01,9.99999e-01,9.99999e-01,8.30540e-01,9.99999e-01
1.186482820e+00,8.33586e-01,9.99999e-01,9.99999e-01,9.99992e-01,8.33591e-01,9.99999e-01
1.192415234e+00,8.22121e-01,9.99999e-01,9.99999e-01,9.82699e-01,8.36594e-01,9.99999e-01
1.198377311e+00,4.65299e-01,9.99999e-01,9.99999e-01,5.54225e-01,8.39547e-01,9.99999e-01
1.204369197e+00,2.95311e-14,9.99999e-01,9.99999e-01,3.50537e-14,8.42453e-01,9.99999e-01
1.210391043e+00,7.84953e-54,9.99999e-01,9.99999e-01,9.28597e-54,8.45310e-01,9.99999e-01
1.216442998e+00,9.36880e-47,9.99999e-01,9.99999e-01,1.10465e-46,8.48121e-01,9.99999e-01
1.222525213e+00,4.51162e-46,9.99999e-01,9.99999e-01,5.30227e-46,8.50885e-01,9.99999e-01
1.228637839e+00,1.10985e-35,9.99999e-01,9.99999e-01,1.30019e-35,8.53603e-01,9.99999e-01
