#,Wave/freq,Total,N2,O2,CO2,Rayleigh,CIA
4.000000000e-01,3.05966e-26,9.99999e-01,9.99999e-01,9.99999e-01,3.05966e-26,9.99999e-01
4.020000000e-01,9.77614e-26,9.99999e-01,9.99999e-01,9.99999e-01,9.77614e-26,9.99999e-01
4.040100000e-01,3.04911e-25,9.99999e-01,9.99999e-01,9.99999e-01,3.04911e-25,9.99999e-01
4.060300500e-01,9.29869e-25,9.99999e-01,9.99999e-01,9.99999e-01,9.29869e-25,9.99999e-01
4.080602003e-01,2.77399e-24,9.99999e-01,9.99999e-01,9.99999e-01,2.77399e-24,9.99999e-01
4.101005013e-01,8.09864e-24,9.99999e-01,9.99999e-01,9.99999e-01,8.09864e-24,9.99999e-01
4.121510038e-01,2.31488e-23,9.99999e-01,9.99999e-01,9.99999e-01,2.31488e-23,9.99999e-01
4.142117588e-01,6.48089e-23,9.99999e-01,9.99999e-01,9.99999e-01,6.48089e-23,9.99999e-01
4.162828176e-01,1.77791e-22,9.99999e-01,9.99999e-01,9.99999e-01,1.77791e-22,9.99999e-01
4.183642317e-01,4.78110e-22,9.99999e-01,9.99999e-01,9.99999e-01,4.78110e-22,9.99999e-01
4.204560528e-01,1.26084e-21,9.99999e-01,9.99999e-01,9.99999e-01,1.26084e-21,9.99999e-01
4.225583331e-01,3.26193e-21,9.99999e-01,9.99999e-01,9.99999e-01,3.26193e-21,9.99999e-01
4.246711247e-01,8.28197e-21,9.99999e-01,9.99999e-01,9.99999e-01,8.28197e-21,9.99999e-01
4.267944804e-01,2.06443e-20,9.99999e-01,9.99999e-01,9.99999e-01,2.06443e-20,9.99999e-01
4.289284528e-01,5.05396e-20,9.99999e-01,9.99999e-01,9.99999e-01,5.05396e-20,9.99999e-01
4.310730950e-01,1.21558e-19,9.99999e-01,9.99999e-01,9.99999e-01,1.21558e-19,9.99999e-01
4.332284605e-01,2.87346e-19,9.99999e-01,9.99999e-01,9.99999e-01,2.87346e-19,9.99999e-01
4.353946028e-01,6.67802e-19,9.99999e-01,9.99999e-01,9.99999e-01,6.67802e-19,9.99999e-01
4.375715758e-01,1.52636e-18,9.99999e-01,9.99999e-01,9.99999e-01,1.52636e-18,9.99999e-01
4.397594337e-01,3.43220e-18,9.99999e-01,9.99999e-01,9.99999e-01,3.43220e-18,9.99999e-01
4.419582309e-01,7.59519e-18,9.99999e-01,9.99999e-01,9.99999e-01,7.59519e-18,9.99999e-01
4.441680220e-01,1.65459e-17,9.99999e-01,9.99999e-01,9.99999e-01,1.65459e-17,9.99999e-01
4.463888621e-01,3.54946e-17,9.99999e-01,9.99999e-01,9.99999e-01,3.54946e-17,9.99999e-01
4.486208064e-01,7.50046e-17,9.99999e-01,9.99999e-01,9.99999e-01,7.50046e-17,9.99999e-01
4.508639105e-01,1.56169e-16,9.99999e-01,9.99999e-01,9.99999e-01,1.56169e-16,9.99999e-01
4.531182300e-01,3.20487e-16,9.99999e-01,9.99999e-01,9.99999e-01,3.20487e-16,9.99999e-01
4.553838212e-01,6.48424e-16,9.99999e-01,9.99999e-01,9.99999e-01,6.48424e-16,9.99999e-01
4.576607403e-01,1.29379e-15,9.99999e-01,9.99999e-01,9.99999e-01,1.29379e-15,9.99999e-01
4.599490440e-01,2.54648e-15,9.99999e-01,9.99999e-01,9.99999e-01,2.54648e-15,9.99999e-01
4.622487892e-01,4.94549e-15,9.99999e-01,9.99999e-01,9.99999e-01,4.94549e-15,9.99999e-01
4.645600332e-01,9.47946e-15,9.99999e-01,9.99999e-01,9.99999e-01,9.47946e-15,9.99999e-01
4.668828333e-01,1.79381e-14,9.99999e-01,9.99999e-01,9.99999e-01,1.79381e-14,9.99999e-01
4.692172475e-01,3.35196e-14,9.99999e-01,9.99999e-01,9.99999e-01,3.35196e-14,9.99999e-01
4.715633337e-01,6.18668e-14,9.99999e-01,9.99999e-01,9.99999e-01,6.18668e-14,9.99999e-01
4.739211504e-01,1.12813e-13,9.99999e-01,9.99999e-01,9.99999e-01,1.12813e-13,9.99999e-01
4.762907561e-01,2.03286e-13,9.99999e-01,9.99999e-01,9.99999e-01,2.03286e-13,9.99999e-01
4.786722099e-01,3.62079e-13,9.99999e-01,9.99999e-01,9.99999e-01,3.62079e-13,9.99999e-01
4.810655710e-01,6.37600e-13,9.99999e-01,9.99999e-01,9.99999e-01,6.37600e-13,9.99999e-01
4.834708988e-01,1.11029e-12,9.99999e-01,9.99999e-01,9.99999e-01,1.11029e-12,9.99999e-01
4.858882533e-01,1.91236e-12,9.99999e-01,9.99999e-01,9.99999e-01,1.91236e-12,9.99999e-01
4.883176946e-01,3.25866e-12,9.99999e-01,9.99999e-01,9.99999e-01,3.25866e-12,9.99999e-01
4.907592831e-01,5.49458e-12,9.99999e-01,9.99999e-01,9.99999e-01,5.49458e-12,9.99999e-01
4.932130795e-01,9.16956e-12,9.99999e-01,9.99999e-01,9.99999e-01,9.16956e-12,9.99999e-01
4.956791449e-01,1.51485e-11,9.99999e-01,9.99999e-01,9.99999e-01,1.51485e-11,9.99999e-01
4.981575406e-01,2.47790e-11,9.99999e-01,9.99999e-01,9.99999e-01,2.47790e-11,9.99999e-01
5.006483283e-01,4.01400e-11,9.99999e-01,9.99999e-01,9.99999e-01,4.01400e-11,9.99999e-01
5.031515699e-01,6.44069e-11,9.99999e-01,9.99999e-01,9.99999e-01,6.44069e-11,9.99999e-01
5.056673278e-01,1.02384e-10,9.99999e-01,9.99999e-01,9.99999e-01,1.02384e-10,9.99999e-01
5.081956644e-01,1.61270e-10,9.99999e-01,9.99999e-01,9.99999e-01,1.61270e-10,9.99999e-01
5.107366428e-01,2.51756e-10,9.99999e-01,9.99999e-01,9.99999e-01,2.51756e-10,9.99999e-01
5.132903260e-01,3.89568e-10,9.99999e-01,9.99999e-01,9.99999e-01,3.89568e-10,9.99999e-01
5.158567776e-01,5.97644e-10,9.99999e-01,9.99999e-01,9.99999e-01,5.97644e-10,9.99999e-01
5.184360615e-01,9.09140e-10,9.99999e-01,9.99999e-01,9.99999e-01,9.09140e-10,9.99999e-01
5.210282418e-01,1.37158e-09,9.99999e-01,9.99999e-01,9.99999e-01,1.37158e-09,9.99999e-01
5.236333830e-01,2.05250e-09,9.99999e-01,9.99999e-01,9.99999e-01,2.05250e-09,9.99999e-01
5.262515499e-01,3.04710e-09,9.99999e-01,9.99999e-01,9.99999e-01,3.04710e-09,9.99999e-01
5.288828077e-01,4.48849e-09,9.99999e-01,9.99999e-01,9.99999e-01,4.48849e-09,9.99999e-01
5.315272217e-01,6.56133e-09,9.99999e-01,9.99999e-01,9.99999e-01,6.56133e-09,9.99999e-01
5.341848578e-01,9.51978e-09,9.99999e-01,9.99999e-01,9.99999e-01,9.51978e-09,9.99999e-01
5.368557821e-01,1.37110e-08,9.99999e-01,9.99999e-01,9.99999e-01,1.37110e-08,9.99999e-01
5.395400610e-01,1.96056e-08,9.99999e-01,9.99999e-01,9.99999e-01,1.96056e-08,9.99999e-01
5.422377613e-01,2.78372e-08,9.99999e-01,9.99999e-01,9.99999e-01,2.78372e-08,9.99999e-01
5.449489501e-01,3.92521e-08,9.99999e-01,9.99999e-01,9.99999e-01,3.92521e-08,9.99999e-01
5.476736949e-01,5.49734e-08,9.99999e-01,9.99999e-01,9.99999e-01,5.49734e-08,9.99999e-01
5.504120634e-01,7.64808e-08,9.99999e-01,9.99999e-01,9.99999e-01,7.64808e-08,9.99999e-01
5.531641237e-01,1.05711e-07,9.99999e-01,9.99999e-01,9.99999e-01,1.05711e-07,9.99999e-01
5.559299443e-01,1.45181e-07,9.99999e-01,9.99999e-01,9.99999e-01,1.45181e-07,9.99999e-01
5.587095940e-01,1.98144e-07,9.99999e-01,9.99999e-01,9.99999e-01,1.98144e-07,9.99999e-01
5.615031420e-01,2.68770e-07,9.99999e-01,9.99999e-01,9.99999e-01,2.68770e-07,9.99999e-01
5.643106577e-01,3.62383e-07,9.99999e-01,9.99999e-01,9.99999e-01,3.62383e-07,9.99999e-01
5.671322110e-01,4.85724e-07,9.99999e-01,9.99999e-01,9.99999e-01,4.85724e-07,9.99999e-01
5.699678720e-01,6.47291e-07,9.99999e-01,9.99999e-01,9.99999e-01,6.47291e-07,9.99999e-01
5.728177114e-01,8.57720e-07,9.99999e-01,9.99999e-01,9.99999e-01,8.57720e-07,9.99999e-01
5.756818000e-01,1.13026e-06,9.99999e-01,9.99999e-01,9.99999e-01,1.13026e-06,9.99999e-01
5.785602090e-01,1.48129e-06,9.99999e-01,9.99999e-01,9.99999e-01,1.48129e-06,9.99999e-01
5.814530100e-01,1.93101e-06,9.99999e-01,9.99999e-01,9.99999e-01,1.93101e-06,9.99999e-01
5.843602750e-01,2.50412e-06,9.99999e-01,9.99999e-01,9.99999e-01,2.50412e-06,9.99999e-01
5.872820764e-01,3.23069e-06,9.99999e-01,9.99999e-01,9.99999e-01,3.23069e-06,9.99999e-01
5.902184868e-01,4.14716e-06,9.99999e-01,9.99999e-01,9.99999e-01,4.14716e-06,9.99999e-01
5.931695792e-01,5.29741e-06,9.99999e-01,9.99999e-01,9.99999e-01,5.29741e-06,9.99999e-01
5.961354271e-01,6.73405e-06,9.99999e-01,9.99999e-01,9.99999e-01,6.73405e-06,9.99999e-01
5.991161043e-01,8.51983e-06,9.99999e-01,9.99999e-01,9.99999e-01,8.51983e-06,9.99999e-01
6.021116848e-01,1.07292e-05,9.99999e-01,9.99999e-01,9.99999e-01,1.07292e-05,9.99999e-01
6.051222432e-01,1.34501e-05,9.99999e-01,9.99999e-01,9.99999e-01,1.34501e-05,9.99999e-01
6.081478544e-01,1.67859e-05,9.99999e-01,9.99999e-01,9.99999e-01,1.67859e-05,9.99999e-01
6.111885937e-01,2.08576e-05,9.99999e-01,9.99999e-01,9.99999e-01,2.08576e-05,9.99999e-01
6.142445367e-01,2.58060e-05,9.99999e-01,9.99999e-01,9.99999e-01,2.58060e-05,9.99999e-01
6.173157594e-01,3.17944e-05,9.99999e-01,9.99999e-01,9.99999e-01,3.17944e-05,9.99999e-01
6.204023382e-01,3.90113e-05,9.99999e-01,9.99999e-01,9.99999e-01,3.90113e-05,9.99999e-01
6.235043498e-01,4.76733e-05,9.99999e-01,9.99999e-01,9.99999e-01,4.76733e-05,9.99999e-01
6.266218716e-01,5.80283e-05,9.99999e-01,9.99999e-01,9.99999e-01,5.80283e-05,9.99999e-01
6.297549810e-01,7.03589e-05,9.99999e-01,9.99999e-01,9.99999e-01,7.03589e-05,9.99999e-01
6.329037559e-01,8.49854e-05,9.99999e-01,9.99999e-01,9.99999e-01,8.49854e-05,9.99999e-01
6.360682746e-01,1.02270e-04,9.99999e-01,9.99999e-01,9.99999e-01,1.02270e-04,9.99999e-01
6.392486160e-01,1.22622e-04,9.99999e-01,9.99999e-01,9.99999e-01,1.22622e-04,9.99999e-01
6.424448591e-01,1.46497e-04,9.99999e-01,9.99999e-01,9.99999e-01,1.46497e-04,9.99999e-01
6.456570834e-01,1.74406e-04,9.99999e-01,9.99999e-01,9.99999e-01,1.74406e-04,9.99999e-01
6.488853688e-01,2.06919e-04,9.99999e-01,9.99999e-01,9.99999e-01,2.06919e-04,9.99999e-01
6.521297956e-01,2.44666e-04,9.99999e-01,9.99999e-01,9.99999e-01,2.44666e-04,9.99999e-01
6.553904446e-01,2.88342e-04,9.99999e-01,9.99999e-01,9.99999e-01,2.88342e-04,9.99999e-01
6.586673968e-01,3.38714e-04,9.99999e-01,9.99999e-01,9.99999e-01,3.38714e-04,9.99999e-01
6.619607338e-01,3.96623e-04,9.99999e-01,9.99999e-01,9.99999e-01,3.96623e-04,9.99999e-01
6.652705375e-01,4.62986e-04,9.99999e-01,9.99999e-01,9.99999e-01,4.62986e-04,9.99999e-01
6.685968902e-01,5.38804e-04,9.99999e-01,9.99999e-01,9.99999e-01,5.38804e-04,9.99999e-01
6.719398746e-01,6.25163e-04,9.99999e-01,9.99999e-01,9.99999e-01,6.25163e-04,9.99999e-01
6.752995740e-01,7.23237e-04,9.99999e-01,9.99999e-01,9.99999e-01,7.23237e-04,9.99999e-01
6.786760719e-01,8.34291e-04,9.99999e-01,9.99999e-01,9.99999e-01,8.34291e-04,9.99999e-01
6.820694522e-01,9.59686e-04,9.99999e-01,9.99999e-01,9.99999e-01,9.59686e-04,9.99999e-01
6.854797995e-01,1.10088e-03,9.99999e-01,9.99999e-01,9.99999e-01,1.10088e-03,9.99999e-01
6.889071985e-01,1.25943e-03,9.99999e-01,9.99999e-01,9.99999e-01,1.25943e-03,9.99999e-01
6.923517345e-01,1.43698e-03,9.99999e-01,9.99999e-01,9.99999e-01,1.43698e-03,9.99999e-01
6.958134932e-01,1.63530e-03,9.99999e-01,9.99999e-01,9.99999e-01,1.63530e-03,9.99999e-01
6.992925606e-01,1.85625e-03,9.99999e-01,9.99999e-01,9.99999e-01,1.85625e-03,9.99999e-01
7.027890234e-01,2.10178e-03,9.99999e-01,9.99999e-01,9.99999e-01,2.10178e-03,9.99999e-01
7.063029686e-01,2.37396e-03,9.99999e-01,9.99999e-01,9.99999e-01,2.37396e-03,9.99999e-01
7.098344834e-01,2.67494e-03,9.99999e-01,9.99999e-01,9.99999e-01,2.67494e-03,9.99999e-01
7.133836558e-01,3.00699e-03,9.99999e-01,9.99999e-01,9.99999e-01,3.00699e-03,9.99999e-01
7.169505741e-01,3.37244e-03,9.99999e-01,9.99999e-01,9.99999e-01,3.37244e-03,9.99999e-01
7.205353270e-01,3.77376e-03,9.99999e-01,9.99999e-01,9.99999e-01,3.77376e-03,9.99999e-01
7.241380036e-01,4.21346e-03,9.99999e-01,9.99999e-01,9.99999e-01,4.21346e-03,9.99999e-01
7.277586936e-01,4.69416e-03,9.99999e-01,9.99999e-01,9.99999e-01,4.69416e-03,9.99999e-01
7.313974871e-01,5.21856e-03,9.99999e-01,9.99999e-01,9.99999e-01,5.21856e-03,9.99999e-01
7.350544745e-01,5.78941e-03,9.99999e-01,9.99999e-01,9.99999e-01,5.78941e-03,9.99999e-01
7.387297469e-01,6.40955e-03,9.99999e-01,9.99999e-01,9.99999e-01,6.40955e-03,9.99999e-01
7.424233956e-01,7.08188e-03,9.99999e-01,9.99999e-01,9.99999e-01,7.08188e-03,9.99999e-01
7.461355126e-01,7.80932e-03,9.99999e-01,9.99999e-01,9.99999e-01,7.80932e-03,9.99999e-01
7.498661902e-01,8.59487e-03,9.99999e-01,9.99999e-01,9.99999e-01,8.59487e-03,9.99999e-01
7.536155211e-01,9.44155e-03,9.99999e-01,9.99999e-01,9.99999e-01,9.44155e-03,9.99999e-01
7.573835987e-01,1.03524e-02,9.99999e-01,9.99999e-01,9.99999e-01,1.03524e-02,9.99999e-01
7.611705167e-01,1.13305e-02,9.99999e-01,9.99999e-01,9.99999e-01,1.13305e-02,9.99999e-01
7.649763693e-01,1.23789e-02,9.99999e-01,9.99999e-01,9.99999e-01,1.23789e-02,9.99999e-01
7.688012511e-01,1.35007e-02,9.99999e-01,9.99999e-01,9.99999e-01,1.35007e-02,9.99999e-01
7.726452574e-01,1.46990e-02,9.99999e-01,9.99999e-01,9.99999e-01,1.46990e-02,9.99999e-01
7.765084837e-01,1.59767e-02,9.99999e-01,9.99999e-01,9.99999e-01,1.59767e-02,9.99999e-01
7.803910261e-01,1.51057e-02,9.99999e-01,9.99999e-01,8.71298e-01,1.73370e-02,9.99999e-01
7.842929812e-01,8.79053e-03,9.99999e-01,9.99999e-01,4.68012e-01,1.87827e-02,9.99999e-01
7.882144461e-01,9.23035e-03,9.99999e-01,9.99999e-01,4.54321e-01,2.03168e-02,9.99999e-01
7.921555184e-01,1.32133e-02,9.99999e-01,9.99999e-01,6.02187e-01,2.19421e-02,9.99999e-01
7.961162960e-01,1.67025e-02,9.99999e-01,9.99999e-01,7.05890e-01,2.36615e-02,9.99999e-01
8.000968774e-01,2.10832e-02,9.99999e-01,9.99999e-01,8.27516e-01,2.54777e-02,9.99999e-01
8.040973618e-01,2.48205e-02,9.99999e-01,9.99999e-01,9.06083e-01,2.73931e-02,9.99999e-01
8.081178486e-01,2.81077e-02,9.99999e-01,9.99999e-01,9.55701e-01,2.94105e-02,9.99999e-01
8.121584379e-01,3.10927e-02,9.99999e-01,9.99999e-01,9.86063e-01,3.15321e-02,9.99999e-01
8.162192301e-01,3.36558e-02,9.99999e-01,9.99999e-01,9.96903e-01,3.37603e-02,9.99999e-01
8.203003262e-01,3.60955e-02,9.99999e-01,9.99999e-01,9.99951e-01,3.60973e-02,9.99999e-01
8.244018279e-01,3.85450e-02,9.99999e-01,9.99999e-01,9.99999e-01,3.85450e-02,9.99999e-01
8.285238370e-01,4.11053e-02,9.99999e-01,9.99999e-01,9.99999e-01,4.11053e-02,9.99999e-01
8.326664562e-01,4.37801e-02,9.99999e-01,9.99999e-01,9.99999e-01,4.37801e-02,9.99999e-01
8.368297885e-01,4.65710e-02,9.99999e-01,9.99999e-01,9.99999e-01,4.65710e-02,9.99999e-01
8.410139374e-01,4.94793e-02,9.99999e-01,9.99999e-01,9.99999e-01,4.94793e-02,9.99999e-01
8.452190071e-01,5.25063e-02,9.99999e-01,9.99999e-01,9.99999e-01,5.25063e-02,9.99999e-01
8.494451021e-01,5.56533e-02,9.99999e-01,9.99999e-01,9.99999e-01,5.56533e-02,9.99999e-01
8.536923276e-01,5.89210e-02,9.99999e-01,9.99999e-01,9.99999e-01,5.89210e-02,9.99999e-01
8.579607893e-01,6.23104e-02,9.99999e-01,9.99999e-01,9.99999e-01,6.23104e-02,9.99999e-01
8.622505932e-01,6.58220e-02,9.99999e-01,9.99999e-01,9.99999e-01,6.58220e-02,9.99999e-01
8.665618462e-01,5.81513e-02,9.99999e-01,9.99999e-01,8.37236e-01,6.94562e-02,9.99999e-01
8.708946554e-01,1.19481e-02,9.99999e-01,9.99999e-01,1.63195e-01,7.32133e-02,9.99999e-01
8.752491287e-01,1.60476e-02,9.99999e-01,9.99999e-01,2.08158e-01,7.70934e-02,9.99999e-01
8.796253743e-01,3.32149e-02,9.99999e-01,9.99999e-01,4.09573e-01,8.10964e-02,9.99999e-01
8.840235012e-01,5.27658e-02,9.99999e-01,9.99999e-01,6.19157e-01,8.52219e-02,9.99999e-01
8.884436187e-01,7.38395e-02,9.99999e-01,9.99999e-01,8.25301e-01,8.94696e-02,9.99999e-01
8.928858368e-01,8.67825e-02,9.99999e-01,9.99999e-01,9.24802e-01,9.38388e-02,9.99999e-01
8.973502660e-01,9.64736e-02,9.99999e-01,9.99999e-01,9.81132e-01,9.83288e-02,9.99999e-01
9.018370173e-01,1.02722e-01,9.99999e-01,9.99999e-01,9.97900e-01,1.02938e-01,9.99999e-01
9.063462024e-01,1.02292e-01,9.99999e-01,9.99999e-01,9.50074e-01,1.07667e-01,9.99999e-01
9.108779334e-01,9.95179e-02,9.99999e-01,9.99999e-01,8.84505e-01,1.12512e-01,9.99999e-01
9.154323231e-01,1.14122e-01,9.99999e-01,9.99999e-01,9.71463e-01,1.17474e-01,9.99999e-01
9.200094847e-01,8.91874e-02,9.99999e-01,9.99999e-01,7.27764e-01,1.22550e-01,9.99999e-01
9.246095321e-01,7.06021e-02,9.99999e-01,9.99999e-01,5.52709e-01,1.27738e-01,9.99999e-01
9.292325798e-01,8.50166e-02,9.99999e-01,9.99999e-01,6.39043e-01,1.33037e-01,9.99999e-01
9.338787427e-01,8.88195e-02,9.99999e-01,9.99999e-01,6.41551e-01,1.38445e-01,9.99999e-01
9.385481364e-01,1.03357e-01,9.99999e-01,9.99999e-01,7.17958e-01,1.43959e-01,9.99999e-01
9.432408771e-01,1.21795e-01,9.99999e-01,9.99999e-01,8.14261e-01,1.49577e-01,9.99999e-01
9.479570815e-01,1.39738e-01,9.99999e-01,9.99999e-01,8.99812e-01,1.55297e-01,9.99999e-01
9.526968669e-01,1.53130e-01,9.99999e-01,9.99999e-01,9.50432e-01,1.61117e-01,9.99999e-01
9.574603512e-01,1.63432e-01,9.99999e-01,9.99999e-01,9.78443e-01,1.67033e-01,9.99999e-01
9.622476530e-01,1.71869e-01,9.99999e-01,9.99999e-01,9.93219e-01,1.73043e-01,9.99999e-01
9.670588912e-01,1.78779e-01,9.99999e-01,9.99999e-01,9.97962e-01,1.79144e-01,9.99999e-01
9.718941857e-01,1.85306e-01,9.99999e-01,9.99999e-01,9.99854e-01,1.85333e-01,9.99999e-01
9.767536566e-01,1.91607e-01,9.99999e-01,9.99999e-01,9.99999e-01,1.91607e-01,9.99999e-01
9.816374249e-01,1.97964e-01,9.99999e-01,9.99999e-01,9.99999e-01,1.97964e-01,9.99999e-01
9.865456120e-01,2.04400e-01,9.99999e-01,9.99999e-01,9.99999e-01,2.04400e-01,9.99999e-01
9.914783401e-01,2.10911e-01,9.99999e-01,9.99999e-01,9.99999e-01,2.10911e-01,9.99999e-01
9.964357318e-01,2.17496e-01,9.99999e-01,9.99999e-01,9.99999e-01,2.17496e-01,9.99999e-01
1.001417910e+00,2.24150e-01,9.99999e-01,9.99999e-01,9.99999e-01,2.24150e-01,9.99999e-01
1.006425000e+00,2.30869e-01,9.99999e-01,9.99999e-01,9.99999e-01,2.30869e-01,9.99999e-01
1.011457125e+00,2.37652e-01,9.99999e-01,9.99999e-01,9.99999e-01,2.37652e-01,9.99999e-01
1.016514411e+00,2.44494e-01,9.99999e-01,9.99999e-01,9.99999e-01,2.44494e-01,9.99999e-01
1.021596983e+00,2.51324e-01,9.99999e-01,9.99999e-01,9.99728e-01,2.51392e-01,9.99999e-01
1.026704968e+00,2.53097e-01,9.99999e-01,9.99999e-01,9.79693e-01,2.58342e-01,9.99999e-01
1.031838492e+00,2.29657e-01,9.99999e-01,9.99999e-01,8.65511e-01,2.65342e-01,9.99999e-01
1.036997685e+00,6.58928e-03,9.99999e-01,9.99999e-01,2.41908e-02,2.72388e-01,9.99999e-01
1.042182673e+00,5.47137e-05,9.99999e-01,9.99999e-01,1.95773e-04,2.79476e-01,9.99999e-01
1.047393587e+00,1.56356e-04,9.99999e-01,9.99999e-01,5.45548e-04,2.86603e-01,9.99999e-01
1.052630555e+00,7.45523e-11,9.99999e-01,9.99999e-01,2.53782e-10,2.93765e-01,9.99999e-01
1.057893707e+00,2.77336e-10,9.99999e-01,9.99999e-01,9.21503e-10,3.00960e-01,9.99999e-01
1.063183176e+00,1.06166e-07,9.99999e-01,9.99999e-01,3.44489e-07,3.08183e-01,9.99999e-01
1.068499092e+00,2.84869e-06,9.99999e-01,9.99999e-01,9.03106e-06,3.15433e-01,9.99999e-01
1.073841587e+00,1.48552e-04,9.99999e-01,9.99999e-01,4.60335e-04,3.22704e-01,9.99999e-01
1.079210795e+00,2.81562e-03,9.99999e-01,9.99999e-01,8.53233e-03,3.29994e-01,9.99999e-01
1.084606849e+00,2.10462e-02,9.99999e-01,9.99999e-01,6.23960e-02,3.37301e-01,9.99999e-01
1.090029883e+00,7.97294e-02,9.99999e-01,9.99999e-01,2.31355e-01,3.44620e-01,9.99999e-01
1.095480033e+00,1.69969e-01,9.99999e-01,9.99999e-01,4.82936e-01,3.51948e-01,9.99999e-01
1.100957433e+00,2.52013e-01,9.99999e-01,9.99999e-01,7.01432e-01,3.59283e-01,9.99999e-01
1.106462220e+00,3.16417e-01,9.99999e-01,9.99999e-01,8.63061e-01,3.66622e-01,9.99999e-01
1.111994531e+00,3.54039e-01,9.99999e-01,9.99999e-01,9.46727e-01,3.73961e-01,9.99999e-01
1.117554504e+00,3.76227e-01,9.99999e-01,9.99999e-01,9.86702e-01,3.81297e-01,9.99999e-01
1.123142276e+00,3.88287e-01,9.99999e-01,9.99999e-01,9.99119e-01,3.88629e-01,9.99999e-01
1.128757988e+00,3.95952e-01,9.99999e-01,9.99999e-01,9.99999e-01,3.95952e-01,9.99999e-01
1.134401778e+00,4.03265e-01,9.99999e-01,9.99999e-01,9.99999e-01,4.03265e-01,9.99999e-01
1.140073787e+00,4.10564e-01,9.99999e-01,9.99999e-01,9.99999e-01,4.10564e-01,9.99999e-01
1.145774156e+00,4.17847e-01,9.99999e-01,9.99999e-01,9.99999e-01,4.17847e-01,9.99999e-01
1.151503026e+00,4.25112e-01,9.99999e-01,9.99999e-01,9.99999e-01,4.25112e-01,9.99999e-01
1.157260541e+00,4.32356e-01,9.99999e-01,9.99999e-01,9.99999e-01,4.32356e-01,9.99999e-01
1.163046844e+00,4.39576e-01,9.99999e-01,9.99999e-01,9.99999e-01,4.39576e-01,9.99999e-01
1.168862078e+00,4.46771e-01,9.99999e-01,9.99999e-01,9.99999e-01,4.46771e-01,9.99999e-01
1.174706389e+00,4.53938e-01,9.99999e-01,9.99999e-01,9.99999e-01,4.53938e-01,9.99999e-01
1.180579921e+00,4.61075e-01,9.99999e-01,9.99999e-01,9.99999e-01,4.61075e-01,9.99999e-01
1.186482820e+00,4.68165e-01,9.99999e-01,9.99999e-01,9.99965e-01,4.68180e-01,9.99999e-01
1.192415234e+00,4.43923e-01,9.99999e-01,9.99999e-01,9.34079e-01,4.75251e-01,9.99999e-01
1.198377311e+00,2.29158e-01,9.99999e-01,9.99999e-01,4.75149e-01,4.82286e-01,9.99999e-01
1.204369197e+00,2.64391e-52,9.99999e-01,9.99999e-01,5.40363e-52,4.89283e-01,9.99999e-01
1.210391043e+00,2.63844e-217,9.99999e-01,9.99999e-01,5.31684e-217,4.96241e-01,9.99999e-01
1.216442998e+00,8.48216e-188,9.99999e-01,9.99999e-01,1.68579e-187,5.03157e-01,9.99999e-01
1.222525213e+00,5.92856e-185,9.99999e-01,9.99999e-01,1.16239e-184,5.10030e-01,9.99999e-01
1.228637839e+00,2.71749e-142,9.99999e-01,9.99999e-01,5.25770e-142,5.16858e-01,9.99999e-01
