#,Wave/freq,Total,N2,O2,CO2,Rayleigh,CIA
4.000000000e-01,3.29646e-06,9.99999e-01,9.99999e-01,9.99999e-01,3.29646e-06,9.99999e-01
4.020000000e-01,4.23098e-06,9.99999e-01,9.99999e-01,9.99999e-01,4.23098e-06,9.99999e-01
4.040100000e-01,5.40234e-06,9.99999e-01,9.99999e-01,9.99999e-01,5.40234e-06,9.99999e-01
4.060300500e-01,6.86478e-06,9.99999e-01,9.99999e-01,9.99999e-01,6.86478e-06,9.99999e-01
4.080602003e-01,8.68192e-06,9.99999e-01,9.99999e-01,9.99999e-01,8.68192e-06,9.99999e-01
4.101005013e-01,1.09293e-05,9.99999e-01,9.99999e-01,9.99999e-01,1.09293e-05,9.99999e-01
4.121510038e-01,1.36959e-05,9.99999e-01,9.99999e-01,9.99999e-01,1.36959e-05,9.99999e-01
4.142117588e-01,1.70866e-05,9.99999e-01,9.99999e-01,9.99999e-01,1.70866e-05,9.99999e-01
4.162828176e-01,2.12238e-05,9.99999e-01,9.99999e-01,9.99999e-01,2.12238e-05,9.99999e-01
4.183642317e-01,2.62500e-05,9.99999e-01,9.99999e-01,9.99999e-01,2.62500e-05,9.99999e-01
4.204560528e-01,3.23305e-05,9.99999e-01,9.99999e-01,9.99999e-01,3.23305e-05,9.99999e-01
4.225583331e-01,3.96560e-05,9.99999e-01,9.99999e-01,9.99999e-01,3.96560e-05,9.99999e-01
4.246711247e-01,4.84455e-05,9.99999e-01,9.99999e-01,9.99999e-01,4.84455e-05,9.99999e-01
4.267944804e-01,5.89495e-05,9.99999e-01,9.99999e-01,9.99999e-01,5.89495e-05,9.99999e-01
4.289284528e-01,7.14535e-05,9.99999e-01,9.99999e-01,9.99999e-01,7.14535e-05,9.99999e-01
4.310730950e-01,8.62813e-05,9.99999e-01,9.99999e-01,9.99999e-01,8.62813e-05,9.99999e-01
4.332284605e-01,1.03799e-04,9.99999e-01,9.99999e-01,9.99999e-01,1.03799e-04,9.99999e-01
4.353946028e-01,1.24418e-04,9.99999e-01,9.99999e-01,9.99999e-01,1.24418e-04,9.99999e-01
4.375715758e-01,1.48600e-04,9.99999e-01,9.99999e-01,9.99999e-01,1.48600e-04,9.99999e-01
4.397594337e-01,1.76860e-04,9.99999e-01,9.99999e-01,9.99999e-01,1.76860e-04,9.99999e-01
4.419582309e-01,2.09773e-04,9.99999e-01,9.99999e-01,9.99999e-01,2.09773e-04,9.99999e-01
4.441680220e-01,2.47973e-04,9.99999e-01,9.99999e-01,9.99999e-01,2.47973e-04,9.99999e-01
4.463888621e-01,2.92162e-04,9.99999e-01,9.99999e-01,9.99999e-01,2.92162e-04,9.99999e-01
4.486208064e-01,3.43112e-04,9.99999e-01,9.99999e-01,9.99999e-01,3.43112e-04,9.99999e-01
4.508639105e-01,4.01670e-04,9.99999e-01,9.99999e-01,9.99999e-01,4.01670e-04,9.99999e-01
4.531182300e-01,4.68761e-04,9.99999e-01,9.99999e-01,9.99999e-01,4.68761e-04,9.99999e-01
4.553838212e-01,5.45392e-04,9.99999e-01,9.99999e-01,9.99999e-01,5.45392e-04,9.99999e-01
4.576607403e-01,6.32654e-04,9.99999e-01,9.99999e-01,9.99999e-01,6.32654e-04,9.99999e-01
4.599490440e-01,7.31731e-04,9.99999e-01,9.99999e-01,9.99999e-01,7.31731e-04,9.99999e-01
4.622487892e-01,8.43895e-04,9.99999e-01,9.99999e-01,9.99999e-01,8.43895e-04,9.99999e-01
4.645600332e-01,9.70514e-04,9.99999e-01,9.99999e-01,9.99999e-01,9.70514e-04,9.99999e-01
4.668828333e-01,1.11305e-03,9.99999e-01,9.99999e-01,9.99999e-01,1.11305e-03,9.99999e-01
4.692172475e-01,1.27308e-03,9.99999e-01,9.99999e-01,9.99999e-01,1.27308e-03,9.99999e-01
4.715633337e-01,1.45225e-03,9.99999e-01,9.99999e-01,9.99999e-01,1.45225e-03,9.99999e-01
4.739211504e-01,1.65233e-03,9.99999e-01,9.99999e-01,9.99999e-01,1.65233e-03,9.99999e-01
4.762907561e-01,1.87520e-03,9.99999e-01,9.99999e-01,9.99999e-01,1.87520e-03,9.99999e-01
4.786722099e-01,2.12281e-03,9.99999e-01,9.99999e-01,9.99999e-01,2.12281e-03,9.99999e-01
4.810655710e-01,2.39724e-03,9.99999e-01,9.99999e-01,9.99999e-01,2.39724e-03,9.99999e-01
4.834708988e-01,2.70065e-03,9.99999e-01,9.99999e-01,9.99999e-01,2.70065e-03,9.99999e-01
4.858882533e-01,3.03531e-03,9.99999e-01,9.99999e-01,9.99999e-01,3.03531e-03,9.99999e-01
4.883176946e-01,3.40358e-03,9.99999e-01,9.99999e-01,9.99999e-01,3.40358e-03,9.99999e-01
4.907592831e-01,3.80791e-03,9.99999e-01,9.99999e-01,9.99999e-01,3.80791e-03,9.99999e-01
4.932130795e-01,4.25083e-03,9.99999e-01,9.99999e-01,9.99999e-01,4.25083e-03,9.99999e-01
4.956791449e-01,4.73497e-03,9.99999e-01,9.99999e-01,9.99999e-01,4.73497e-03,9.99999e-01
4.981575406e-01,5.26303e-03,9.99999e-01,9.99999e-01,9.99999e-01,5.26303e-03,9.99999e-01
5.006483283e-01,5.83777e-03,9.99999e-01,9.99999e-01,9.99999e-01,5.83777e-03,9.99999e-01
5.031515699e-01,6.46203e-03,9.99999e-01,9.99999e-01,9.99999e-01,6.46203e-03,9.99999e-01
5.056673278e-01,7.13871e-03,9.99999e-01,9.99999e-01,9.99999e-01,7.13871e-03,9.99999e-01
5.081956644e-01,7.87074e-03,9.99999e-01,9.99999e-01,9.99999e-01,7.87074e-03,9.99999e-01
5.107366428e-01,8.66113e-03,9.99999e-01,9.99999e-01,9.99999e-01,8.66113e-03,9.99999e-01
5.132903260e-01,9.51289e-03,9.99999e-01,9.99999e-01,9.99999e-01,9.51289e-03,9.99999e-01
5.158567776e-01,1.04291e-02,9.99999e-01,9.99999e-01,9.99999e-01,1.04291e-02,9.99999e-01
5.184360615e-01,1.14128e-02,9.99999e-01,9.99999e-01,9.99999e-01,1.14128e-02,9.99999e-01
5.210282418e-01,1.24670e-02,9.99999e-01,9.99999e-01,9.99999e-01,1.24670e-02,9.99999e-01
5.236333830e-01,1.35949e-02,9.99999e-01,9.99999e-01,9.99999e-01,1.35949e-02,9.99999e-01
5.262515499e-01,1.47995e-02,9.99999e-01,9.99999e-01,9.99999e-01,1.47995e-02,9.99999e-01
5.288828077e-01,1.60838e-02,9.99999e-01,9.99999e-01,9.99999e-01,1.60838e-02,9.99999e-01
5.315272217e-01,1.74508e-02,9.99999e-01,9.99999e-01,9.99999e-01,1.74508e-02,9.99999e-01
5.341848578e-01,1.89036e-02,9.99999e-01,9.99999e-01,9.99999e-01,1.89036e-02,9.99999e-01
5.368557821e-01,2.04450e-02,9.99999e-01,9.99999e-01,9.99999e-01,2.04450e-02,9.99999e-01
5.395400610e-01,2.20779e-02,9.99999e-01,9.99999e-01,9.99999e-01,2.20779e-02,9.99999e-01
5.422377613e-01,2.38050e-02,9.99999e-01,9.99999e-01,9.99999e-01,2.38050e-02,9.99999e-01
5.449489501e-01,2.56291e-02,9.99999e-01,9.99999e-01,9.99999e-01,2.56291e-02,9.99999e-01
5.476736949e-01,2.75527e-02,9.99999e-01,9.99999e-01,9.99999e-01,2.75527e-02,9.99999e-01
5.504120634e-01,2.95784e-02,9.99999e-01,9.99999e-01,9.99999e-01,2.95784e-02,9.99999e-01
5.531641237e-01,3.17086e-02,9.99999e-01,9.99999e-01,9.99999e-01,3.17086e-02,9.99999e-01
5.559299443e-01,3.39455e-02,9.99999e-01,9.99999e-01,9.99999e-01,3.39455e-02,9.99999e-01
5.587095940e-01,3.62914e-02,9.99999e-01,9.99999e-01,9.99999e-01,3.62914e-02,9.99999e-01
5.615031420e-01,3.87481e-02,9.99999e-01,9.99999e-01,9.99999e-01,3.87481e-02,9.99999e-01
5.643106577e-01,4.13177e-02,9.99999e-01,9.99999e-01,9.99999e-01,4.13177e-02,9.99999e-01
5.671322110e-01,4.40019e-02,9.99999e-01,9.99999e-01,9.99999e-01,4.40019e-02,9.99999e-01
5.699678720e-01,4.68021e-02,9.99999e-01,9.99999e-01,9.99999e-01,4.68021e-02,9.99999e-01
5.728177114e-01,4.97200e-02,9.99999e-01,9.99999e-01,9.99999e-01,4.97200e-02,9.99999e-01
5.756818000e-01,5.27568e-02,9.99999e-01,9.99999e-01,9.99999e-01,5.27568e-02,9.99999e-01
5.785602090e-01,5.59134e-02,9.99999e-01,9.99999e-01,9.99999e-01,5.59134e-02,9.99999e-01
5.814530100e-01,5.91910e-02,9.99999e-01,9.99999e-01,9.99999e-01,5.91910e-02,9.99999e-01
5.843602750e-01,6.25903e-02,9.99999e-01,9.99999e-01,9.99999e-01,6.25903e-02,9.99999e-01
5.872820764e-01,6.61118e-02,9.99999e-01,9.99999e-01,9.99999e-01,6.61118e-02,9.99999e-01
5.902184868e-01,6.97559e-02,9.99999e-01,9.99999e-01,9.99999e-01,6.97559e-02,9.99999e-01
5.931695792e-01,7.35230e-02,9.99999e-01,9.99999e-01,9.99999e-01,7.35230e-02,9.99999e-01
5.961354271e-01,7.74131e-02,9.99999e-01,9.99999e-01,9.99999e-01,7.74131e-02,9.99999e-01
5.991161043e-01,8.14260e-02,9.99999e-01,9.99999e-01,9.99999e-01,8.14260e-02,9.99999e-01
6.021116848e-01,8.55614e-02,9.99999e-01,9.99999e-01,9.99999e-01,8.55614e-02,9.99999e-01
6.051222432e-01,8.98190e-02,9.99999e-01,9.99999e-01,9.99999e-01,8.98190e-02,9.99999e-01
6.081478544e-01,9.41980e-02,9.99999e-01,9.99999e-01,9.99999e-01,9.41980e-02,9.99999e-01
6.111885937e-01,9.86977e-02,9.99999e-01,9.99999e-01,9.99999e-01,9.86977e-02,9.99999e-01
6.142445367e-01,1.03317e-01,9.99999e-01,9.99999e-01,9.99999e-01,1.03317e-01,9.99999e-01
6.173157594e-01,1.08055e-01,9.99999e-01,9.99999e-01,9.99999e-01,1.08055e-01,9.99999e-01
6.204023382e-01,1.12910e-01,9.99999e-01,9.99999e-01,9.99999e-01,1.12910e-01,9.99999e-01
6.235043498e-01,1.17881e-01,9.99999e-01,9.99999e-01,9.99999e-01,1.17881e-01,9.99999e-01
6.266218716e-01,1.22966e-01,9.99999e-01,9.99999e-01,9.99999e-01,1.22966e-01,9.99999e-01
6.297549810e-01,1.28163e-01,9.99999e-01,9.99999e-01,9.99999e-01,1.28163e-01,9.99999e-01
6.329037559e-01,1.33471e-01,9.99999e-01,9.99999e-01,9.99999e-01,1.33471e-01,9.99999e-01
6.360682746e-01,1.38887e-01,9.99999e-01,9.99999e-01,9.99999e-01,1.38887e-01,9.99999e-01
6.392486160e-01,1.44410e-01,9.99999e-01,9.99999e-01,9.99999e-01,1.44410e-01,9.99999e-01
6.424448591e-01,1.50037e-01,9.99999e-01,9.99999e-01,9.99999e-01,1.50037e-01,9.99999e-01
6.456570834e-01,1.55765e-01,9.99999e-01,9.99999e-01,9.99999e-01,1.55765e-01,9.99999e-01
6.488853688e-01,1.61592e-01,9.99999e-01,9.99999e-01,9.99999e-01,1.61592e-01,9.99999e-01
6.521297956e-01,1.67516e-01,9.99999e-01,9.99999e-01,9.99999e-01,1.67516e-01,9.99999e-01
6.553904446e-01,1.73533e-01,9.99999e-01,9.99999e-01,9.99999e-01,1.73533e-01,9.99999e-01
6.586673968e-01,1.79642e-01,9.99999e-01,9.99999e-01,9.99999e-01,1.79642e-01,9.99999e-01
6.619607338e-01,1.85838e-01,9.99999e-01,9.99999e-01,9.99999e-01,1.85838e-01,9.99999e-01
6.652705375e-01,1.92119e-01,9.99999e-01,9.99999e-01,9.99999e-01,1.92119e-01,9.99999e-01
6.685968902e-01,1.98482e-01,9.99999e-01,9.99999e-01,9.99999e-01,1.98482e-01,9.99999e-01
6.719398746e-01,2.04924e-01,9.99999e-01,9.99999e-01,9.99999e-01,2.04924e-01,9.99999e-01
6.752995740e-01,2.11442e-01,9.99999e-01,9.99999e-01,9.99999e-01,2.11442e-01,9.99999e-01
6.786760719e-01,2.18032e-01,9.99999e-01,9.99999e-01,9.99999e-01,2.18032e-01,9.99999e-01
6.820694522e-01,2.24691e-01,9.99999e-01,9.99999e-01,9.99999e-01,2.24691e-01,9.99999e-01
6.854797995e-01,2.31416e-01,9.99999e-01,9.99999e-01,9.99999e-01,2.31416e-01,9.99999e-01
6.889071985e-01,2.38204e-01,9.99999e-01,9.99999e-01,9.99999e-01,2.38204e-01,9.99999e-01
6.923517345e-01,2.45051e-01,9.99999e-01,9.99999e-01,9.99999e-01,2.45051e-01,9.99999e-01
6.958134932e-01,2.51953e-01,9.99999e-01,9.99999e-01,9.99999e-01,2.51953e-01,9.99999e-01
6.992925606e-01,2.58908e-01,9.99999e-01,9.99999e-01,9.99999e-01,2.58908e-01,9.99999e-01
7.027890234e-01,2.65911e-01,9.99999e-01,9.99999e-01,9.99999e-01,2.65911e-01,9.99999e-01
7.063029686e-01,2.72960e-01,9.99999e-01,9.99999e-01,9.99999e-01,2.72960e-01,9.99999e-01
7.098344834e-01,2.80052e-01,9.99999e-01,9.99999e-01,9.99999e-01,2.80052e-01,9.99999e-01
7.133836558e-01,2.87181e-01,9.99999e-01,9.99999e-01,9.99999e-01,2.87181e-01,9.99999e-01
7.169505741e-01,2.94347e-01,9.99999e-01,9.99999e-01,9.99999e-01,2.94347e-01,9.99999e-01
7.205353270e-01,3.01544e-01,9.99999e-01,9.99999e-01,9.99999e-01,3.01544e-01,9.99999e-01
7.241380036e-01,3.08770e-01,9.99999e-01,9.99999e-01,9.99999e-01,3.08770e-01,9.99999e-01
7.277586936e-01,3.16021e-01,9.99999e-01,9.99999e-01,9.99999e-01,3.16021e-01,9.99999e-01
7.313974871e-01,3.23294e-01,9.99999e-01,9.99999e-01,9.99999e-01,3.23294e-01,9.99999e-01
7.350544745e-01,3.30586e-01,9.99999e-01,9.99999e-01,9.99999e-01,3.30586e-01,9.99999e-01
7.387297469e-01,3.37893e-01,9.99999e-01,9.99999e-01,9.99999e-01,3.37893e-01,9.99999e-01
7.424233956e-01,3.45213e-01,9.99999e-01,9.99999e-01,9.99999e-01,3.45213e-01,9.99999e-01
7.461355126e-01,3.52542e-01,9.99999e-01,9.99999e-01,9.99999e-01,3.52542e-01,9.99999e-01
7.498661902e-01,3.59878e-01,9.99999e-01,9.99999e-01,9.99999e-01,3.59878e-01,9.99999e-01
7.536155211e-01,3.67216e-01,9.99999e-01,9.99999e-01,9.99999e-01,3.67216e-01,9.99999e-01
7.573835987e-01,3.74555e-01,9.99999e-01,9.99999e-01,9.99999e-01,3.74555e-01,9.99999e-01
7.611705167e-01,3.81891e-01,9.99999e-01,9.99999e-01,9.99999e-01,3.81891e-01,9.99999e-01
7.649763693e-01,3.89222e-01,9.99999e-01,9.99999e-01,9.99999e-01,3.89222e-01,9.99999e-01
7.688012511e-01,3.96545e-01,9.99999e-01,9.99999e-01,9.99999e-01,3.96545e-01,9.99999e-01
7.726452574e-01,4.03856e-01,9.99999e-01,9.99999e-01,9.99999e-01,4.03856e-01,9.99999e-01
7.765084837e-01,4.11154e-01,9.99999e-01,9.99999e-01,9.99999e-01,4.11154e-01,9.99999e-01
7.803910261e-01,4.01609e-01,9.99999e-01,9.99999e-01,9.59785e-01,4.18436e-01,9.99999e-01
7.842929812e-01,3.55759e-01,9.99999e-01,9.99999e-01,8.35705e-01,4.25699e-01,9.99999e-01
7.882144461e-01,3.57128e-01,9.99999e-01,9.99999e-01,8.24888e-01,4.32941e-01,9.99999e-01
7.921555184e-01,3.93163e-01,9.99999e-01,9.99999e-01,8.93227e-01,4.40160e-01,9.99999e-01
7.961162960e-01,4.14859e-01,9.99999e-01,9.99999e-01,9.27363e-01,4.47353e-01,9.99999e-01
8.000968774e-01,4.36297e-01,9.99999e-01,9.99999e-01,9.59911e-01,4.54517e-01,9.99999e-01
8.040973618e-01,4.51989e-01,9.99999e-01,9.99999e-01,9.79067e-01,4.61652e-01,9.99999e-01
8.081178486e-01,4.64216e-01,9.99999e-01,9.99999e-01,9.90318e-01,4.68754e-01,9.99999e-01
8.121584379e-01,4.74402e-01,9.99999e-01,9.99999e-01,9.97013e-01,4.75823e-01,9.99999e-01
8.162192301e-01,4.82536e-01,9.99999e-01,9.99999e-01,9.99339e-01,4.82854e-01,9.99999e-01
8.203003262e-01,4.89844e-01,9.99999e-01,9.99999e-01,9.99990e-01,4.89848e-01,9.99999e-01
8.244018279e-01,4.96802e-01,9.99999e-01,9.99999e-01,9.99999e-01,4.96802e-01,9.99999e-01
8.285238370e-01,5.03715e-01,9.99999e-01,9.99999e-01,9.99999e-01,5.03715e-01,9.99999e-01
8.326664562e-01,5.10584e-01,9.99999e-01,9.99999e-01,9.99999e-01,5.10584e-01,9.99999e-01
8.368297885e-01,5.17409e-01,9.99999e-01,9.99999e-01,9.99999e-01,5.17409e-01,9.99999e-01
8.410139374e-01,5.24187e-01,9.99999e-01,9.99999e-01,9.99999e-01,5.24187e-01,9.99999e-01
8.452190071e-01,5.30918e-01,9.99999e-01,9.99999e-01,9.99999e-01,5.30918e-01,9.99999e-01
8.494451021e-01,5.37599e-01,9.99999e-01,9.99999e-01,9.99999e-01,5.37599e-01,9.99999e-01
8.536923276e-01,5.44230e-01,9.99999e-01,9.99999e-01,9.99999e-01,5.44230e-01,9.99999e-01
8.579607893e-01,5.50810e-01,9.99999e-01,9.99999e-01,9.99999e-01,5.50810e-01,9.99999e-01
8.622505932e-01,5.57336e-01,9.99999e-01,9.99999e-01,9.99999e-01,5.57336e-01,9.99999e-01
8.665618462e-01,5.16458e-01,9.99999e-01,9.99999e-01,9.16014e-01,5.63809e-01,9.99999e-01
8.708946554e-01,3.61771e-01,9.99999e-01,9.99999e-01,6.34432e-01,5.70227e-01,9.99999e-01
8.752491287e-01,3.99320e-01,9.99999e-01,9.99999e-01,6.92555e-01,5.76589e-01,9.99999e-01
8.796253743e-01,4.76113e-01,9.99999e-01,9.99999e-01,8.16808e-01,5.82895e-01,9.99999e-01
8.840235012e-01,5.30352e-01,9.99999e-01,9.99999e-01,9.00210e-01,5.89142e-01,9.99999e-01
8.884436187e-01,5.71199e-01,9.99999e-01,9.99999e-01,9.59463e-01,5.95332e-01,9.99999e-01
8.928858368e-01,5.91457e-01,9.99999e-01,9.99999e-01,9.83365e-01,6.01462e-01,9.99999e-01
8.973502660e-01,6.05070e-01,9.99999e-01,9.99999e-01,9.95946e-01,6.07532e-01,9.99999e-01
9.018370173e-01,6.13268e-01,9.99999e-01,9.99999e-01,9.99552e-01,6.13542e-01,9.99999e-01
9.063462024e-01,6.12322e-01,9.99999e-01,9.99999e-01,9.88426e-01,6.19491e-01,9.99999e-01
9.108779334e-01,6.09026e-01,9.99999e-01,9.99999e-01,9.73852e-01,6.25378e-01,9.99999e-01
9.154323231e-01,6.27309e-01,9.99999e-01,9.99999e-01,9.93830e-01,6.31203e-01,9.99999e-01
9.200094847e-01,5.82187e-01,9.99999e-01,9.99999e-01,9.13999e-01,6.36966e-01,9.99999e-01
9.246095321e-01,5.64503e-01,9.99999e-01,9.99999e-01,8.78375e-01,6.42666e-01,9.99999e-01
9.292325798e-01,5.85496e-01,9.99999e-01,9.99999e-01,9.03119e-01,6.48304e-01,9.99999e-01
9.338787427e-01,5.92724e-01,9.99999e-01,9.99999e-01,9.06475e-01,6.53877e-01,9.99999e-01
9.385481364e-01,6.13442e-01,9.99999e-01,9.99999e-01,9.30321e-01,6.59387e-01,9.99999e-01
9.432408771e-01,6.36102e-01,9.99999e-01,9.99999e-01,9.56783e-01,6.64834e-01,9.99999e-01
9.479570815e-01,6.55183e-01,9.99999e-01,9.99999e-01,9.77568e-01,6.70216e-01,9.99999e-01
9.526968669e-01,6.68194e-01,9.99999e-01,9.99999e-01,9.89133e-01,6.75535e-01,9.99999e-01
9.574603512e-01,6.77618e-01,9.99999e-01,9.99999e-01,9.95341e-01,6.80789e-01,9.99999e-01
9.622476530e-01,6.84982e-01,9.99999e-01,9.99999e-01,9.98545e-01,6.85979e-01,9.99999e-01
9.670588912e-01,6.90804e-01,9.99999e-01,9.99999e-01,9.99564e-01,6.91105e-01,9.99999e-01
9.718941857e-01,6.96146e-01,9.99999e-01,9.99999e-01,9.99969e-01,6.96167e-01,9.99999e-01
9.767536566e-01,7.01165e-01,9.99999e-01,9.99999e-01,9.99999e-01,7.01165e-01,9.99999e-01
9.816374249e-01,7.06099e-01,9.99999e-01,9.99999e-01,9.99999e-01,7.06099e-01,9.99999e-01
9.865456120e-01,7.10970e-01,9.99999e-01,9.99999e-01,9.99999e-01,7.10970e-01,9.99999e-01
9.914783401e-01,7.15776e-01,9.99999e-01,9.99999e-01,9.99999e-01,7.15776e-01,9.99999e-01
9.964357318e-01,7.20520e-01,9.99999e-01,9.99999e-01,9.99999e-01,7.20520e-01,9.99999e-01
1.001417910e+00,7.25200e-01,9.99999e-01,9.99999e-01,9.99999e-01,7.25200e-01,9.99999e-01
1.006425000e+00,7.29817e-01,9.99999e-01,9.99999e-01,9.99999e-01,7.29817e-01,9.99999e-01
1.011457125e+00,7.34371e-01,9.99999e-01,9.99999e-01,9.99999e-01,7.34371e-01,9.99999e-01
1.016514411e+00,7.38864e-01,9.99999e-01,9.99999e-01,9.99999e-01,7.38864e-01,9.99999e-01
1.021596983e+00,7.43245e-01,9.99999e-01,9.99999e-01,9.99934e-01,7.43294e-01,9.99999e-01
1.026704968e+00,7.44269e-01,9.99999e-01,9.99999e-01,9.95461e-01,7.47662e-01,9.99999e-01
1.031838492e+00,7.13150e-01,9.99999e-01,9.99999e-01,9.48376e-01,7.51969e-01,9.99999e-01
1.036997685e+00,9.72526e-02,9.99999e-01,9.99999e-01,1.28604e-01,7.56215e-01,9.99999e-01
1.042182673e+00,6.26722e-02,9.99999e-01,9.99999e-01,8.24199e-02,7.60400e-01,9.99999e-01
1.047393587e+00,8.12295e-02,9.99999e-01,9.99999e-01,1.06248e-01,7.64526e-01,9.99999e-01
1.052630555e+00,1.26170e-03,9.99999e-01,9.99999e-01,1.64157e-03,7.68591e-01,9.99999e-01
1.057893707e+00,3.54573e-03,9.99999e-01,9.99999e-01,4.58936e-03,7.72597e-01,9.99999e-01
1.063183176e+00,1.43860e-02,9.99999e-01,9.99999e-01,1.85256e-02,7.76544e-01,9.99999e-01
1.068499092e+00,4.70276e-02,9.99999e-01,9.99999e-01,6.02582e-02,7.80433e-01,9.99999e-01
1.073841587e+00,1.32740e-01,9.99999e-01,9.99999e-01,1.69255e-01,7.84264e-01,9.99999e-01
1.079210795e+00,2.55797e-01,9.99999e-01,9.99999e-01,3.24600e-01,7.88038e-01,9.99999e-01
1.084606849e+00,4.25481e-01,9.99999e-01,9.99999e-01,5.37389e-01,7.91754e-01,9.99999e-01
1.090029883e+00,5.75916e-01,9.99999e-01,9.99999e-01,7.24044e-01,7.95415e-01,9.99999e-01
1.095480033e+00,6.81522e-01,9.99999e-01,9.99999e-01,8.52947e-01,7.99019e-01,9.99999e-01
1.100957433e+00,7.43328e-01,9.99999e-01,9.99999e-01,9.26186e-01,8.02568e-01,9.99999e-01
1.106462220e+00,7.80918e-01,9.99999e-01,9.99999e-01,9.68806e-01,8.06062e-01,9.99999e-01
1.111994531e+00,8.00049e-01,9.99999e-01,9.99999e-01,9.88321e-01,8.09502e-01,9.99999e-01
1.117554504e+00,8.10567e-01,9.99999e-01,9.99999e-01,9.97143e-01,8.12888e-01,9.99999e-01
1.123142276e+00,8.16069e-01,9.99999e-01,9.99999e-01,9.99812e-01,8.16221e-01,9.99999e-01
1.128757988e+00,8.19502e-01,9.99999e-01,9.99999e-01,9.99999e-01,8.19502e-01,9.99999e-01
1.134401778e+00,8.22730e-01,9.99999e-01,9.99999e-01,9.99999e-01,8.22730e-01,9.99999e-01
1.140073787e+00,8.25908e-01,9.99999e-01,9.99999e-01,9.99999e-01,8.25908e-01,9.99999e-01
1.145774156e+00,8.29034e-01,9.99999e-01,9.99999e-01,9.99999e-01,8.29034e-01,9.99999e-01
1.151503026e+00,8.32110e-01,9.99999e-01,9.99999e-01,9.99999e-01,8.32110e-01,9.99999e-01
1.157260541e+00,8.35136e-01,9.99999e-01,9.99999e-01,9.99999e-01,8.35136e-01,9.99999e-01
1.163046844e+00,8.38113e-01,9.99999e-01,9.99999e-01,9.99999e-01,8.38113e-01,9.99999e-01
1.168862078e+00,8.41042e-01,9.99999e-01,9.99999e-01,9.99999e-01,8.41042e-01,9.99999e-01
1.174706389e+00,8.43923e-01,9.99999e-01,9.99999e-01,9.99999e-01,8.43923e-01,9.99999e-01
1.180579921e+00,8.46756e-01,9.99999e-01,9.99999e-01,9.99999e-01,8.46756e-01,9.99999e-01
1.186482820e+00,8.49535e-01,9.99999e-01,9.99999e-01,9.99990e-01,8.49543e-01,9.99999e-01
1.192415234e+00,8.38573e-01,9.99999e-01,9.99999e-01,9.83912e-01,8.52284e-01,9.99999e-01
1.198377311e+00,4.75474e-01,9.99999e-01,9.99999e-01,5.56123e-01,8.54979e-01,9.99999e-01
1.204369197e+00,5.22308e-13,9.99999e-01,9.99999e-01,6.09013e-13,8.57629e-01,9.99999e-01
1.210391043e+00,1.79977e-48,9.99999e-01,9.99999e-01,2.09219e-48,8.60234e-01,9.99999e-01
1.216442998e+00,3.94978e-42,9.99999e-01,9.99999e-01,4.57788e-42,8.62796e-01,9.99999e-01
1.222525213e+00,1.61570e-41,9.99999e-01,9.99999e-01,1.86718e-41,8.65315e-01,9.99999e-01
1.228637839e+00,3.67401e-32,9.99999e-01,9.99999e-01,4.23375e-32,8.67791e-01,9.99999e-01
