#,Wave/freq,Total,N2,O2,CO2,Rayleigh,CIA
4.000000000e-01,2.81484e-27,9.99999e-01,9.99999e-01,9.99999e-01,2.81484e-27,9.99999e-01
4.020000000e-01,9.42808e-27,9.99999e-01,9.99999e-01,9.99999e-01,9.42808e-27,9.99999e-01
4.040100000e-01,3.07959e-26,9.99999e-01,9.99999e-01,9.99999e-01,3.07959e-26,9.99999e-01
4.060300500e-01,9.82671e-26,9.99999e-01,9.99999e-01,9.99999e-01,9.82671e-26,9.99999e-01
4.080602003e-01,3.06457e-25,9.99999e-01,9.99999e-01,9.99999e-01,3.06457e-25,9.99999e-01
4.101005013e-01,9.34491e-25,9.99999e-01,9.99999e-01,9.99999e-01,9.34491e-25,9.99999e-01
4.121510038e-01,2.78751e-24,9.99999e-01,9.99999e-01,9.99999e-01,2.78751e-24,9.99999e-01
4.142117588e-01,8.13732e-24,9.99999e-01,9.99999e-01,9.99999e-01,8.13732e-24,9.99999e-01
4.162828176e-01,2.32571e-23,9.99999e-01,9.99999e-01,9.99999e-01,2.32571e-23,9.99999e-01
4.183642317e-01,6.51063e-23,9.99999e-01,9.99999e-01,9.99999e-01,6.51063e-23,9.99999e-01
4.204560528e-01,1.78591e-22,9.99999e-01,9.99999e-01,9.99999e-01,1.78591e-22,9.99999e-01
4.225583331e-01,4.80218e-22,9.99999e-01,9.99999e-01,9.99999e-01,4.80218e-22,9.99999e-01
4.246711247e-01,1.26629e-21,9.99999e-01,9.99999e-01,9.99999e-01,1.26629e-21,9.99999e-01
4.267944804e-01,3.27574e-21,9.99999e-01,9.99999e-01,9.99999e-01,3.27574e-21,9.99999e-01
4.289284528e-01,8.31636e-21,9.99999e-01,9.99999e-01,9.99999e-01,8.31636e-21,9.99999e-01
4.310730950e-01,2.07283e-20,9.99999e-01,9.99999e-01,9.99999e-01,2.07283e-20,9.99999e-01
4.332284605e-01,5.07412e-20,9.99999e-01,9.99999e-01,9.99999e-01,5.07412e-20,9.99999e-01
4.353946028e-01,1.22033e-19,9.99999e-01,9.99999e-01,9.99999e-01,1.22033e-19,9.99999e-01
4.375715758e-01,2.88447e-19,9.99999e-01,9.99999e-01,9.99999e-01,2.88447e-19,9.99999e-01
4.397594337e-01,6.70311e-19,9.99999e-01,9.99999e-01,9.99999e-01,6.70311e-19,9.99999e-01
4.419582309e-01,1.53198e-18,9.99999e-01,9.99999e-01,9.99999e-01,1.53198e-18,9.99999e-01
4.441680220e-01,3.44459e-18,9.99999e-01,9.99999e-01,9.99999e-01,3.44459e-18,9.99999e-01
4.463888621e-01,7.62206e-18,9.99999e-01,9.99999e-01,9.99999e-01,7.62206e-18,9.99999e-01
4.486208064e-01,1.66033e-17,9.99999e-01,9.99999e-01,9.99999e-01,1.66033e-17,9.99999e-01
4.508639105e-01,3.56153e-17,9.99999e-01,9.99999e-01,9.99999e-01,3.56153e-17,9.99999e-01
4.531182300e-01,7.52545e-17,9.99999e-01,9.99999e-01,9.99999e-01,7.52545e-17,9.99999e-01
4.553838212e-01,1.56679e-16,9.99999e-01,9.99999e-01,9.99999e-01,1.56679e-16,9.99999e-01
4.576607403e-01,3.21513e-16,9.99999e-01,9.99999e-01,9.99999e-01,3.21513e-16,9.99999e-01
4.599490440e-01,6.50459e-16,9.99999e-01,9.99999e-01,9.99999e-01,6.50459e-16,9.99999e-01
4.622487892e-01,1.29777e-15,9.99999e-01,9.99999e-01,9.99999e-01,1.29777e-15,9.99999e-01
4.645600332e-01,2.55416e-15,9.99999e-01,9.99999e-01,9.99999e-01,2.55416e-15,9.99999e-01
4.668828333e-01,4.96011e-15,9.99999e-01,9.99999e-01,9.99999e-01,4.96011e-15,9.99999e-01
4.692172475e-01,9.50693e-15,9.99999e-01,9.99999e-01,9.99999e-01,9.50693e-15,9.99999e-01
4.715633337e-01,1.79891e-14,9.99999e-01,9.99999e-01,9.99999e-01,1.79891e-14,9.99999e-01
4.739211504e-01,3.36129e-14,9.99999e-01,9.99999e-01,9.99999e-01,3.36129e-14,9.99999e-01
4.762907561e-01,6.20356e-14,9.99999e-01,9.99999e-01,9.99999e-01,6.20356e-14,9.99999e-01
4.786722099e-01,1.13115e-13,9.99999e-01,9.99999e-01,9.99999e-01,1.13115e-13,9.99999e-01
4.810655710e-01,2.03819e-13,9.99999e-01,9.99999e-01,9.99999e-01,2.03819e-13,9.99999e-01
4.834708988e-01,3.63010e-13,9.99999e-01,9.99999e-01,9.99999e-01,3.63010e-13,9.99999e-01
4.858882533e-01,6.39206e-13,9.99999e-01,9.99999e-01,9.99999e-01,6.39206e-13,9.99999e-01
4.883176946e-01,1.11304e-12,9.99999e-01,9.99999e-01,9.99999e-01,1.11304e-12,9.99999e-01
4.907592831e-01,1.91699e-12,9.99999e-01,9.99999e-01,9.99999e-01,1.91699e-12,9.99999e-01
4.932130795e-01,3.26639e-12,9.99999e-01,9.99999e-01,9.99999e-01,3.26639e-12,9.99999e-01
4.956791449e-01,5.50736e-12,9.99999e-01,9.99999e-01,9.99999e-01,5.50736e-12,9.99999e-01
4.981575406e-01,9.19047e-12,9.99999e-01,9.99999e-01,9.99999e-01,9.19047e-12,9.99999e-01
5.006483283e-01,1.51824e-11,9.99999e-01,9.99999e-01,9.99999e-01,1.51824e-11,9.99999e-01
5.031515699e-01,2.48333e-11,9.99999e-01,9.99999e-01,9.99999e-01,2.48333e-11,9.99999e-01
5.056673278e-01,4.02262e-11,9.99999e-01,9.99999e-01,9.99999e-01,4.02262e-11,9.99999e-01
5.081956644e-01,6.45425e-11,9.99999e-01,9.99999e-01,9.99999e-01,6.45425e-11,9.99999e-01
5.107366428e-01,1.02595e-10,9.99999e-01,9.99999e-01,9.99999e-01,1.02595e-10,9.99999e-01
5.132903260e-01,1.61596e-10,9.99999e-01,9.99999e-01,9.99999e-01,1.61596e-10,9.99999e-01
5.158567776e-01,2.52255e-10,9.99999e-01,9.99999e-01,9.99999e-01,2.52255e-10,9.99999e-01
5.184360615e-01,3.90325e-10,9.99999e-01,9.99999e-01,9.99999e-01,3.90325e-10,9.99999e-01
5.210282418e-01,5.98783e-10,9.99999e-01,9.99999e-01,9.99999e-01,5.98783e-10,9.99999e-01
5.236333830e-01,9.10838e-10,9.99999e-01,9.99999e-01,9.99999e-01,9.10838e-10,9.99999e-01
5.262515499e-01,1.37409e-09,9.99999e-01,9.99999e-01,9.99999e-01,1.37409e-09,9.99999e-01
5.288828077e-01,2.05618e-09,9.99999e-01,9.99999e-01,9.99999e-01,2.05618e-09,9.99999e-01
5.315272217e-01,3.05245e-09,9.99999e-01,9.99999e-01,9.99999e-01,3.05245e-09,9.99999e-01
5.341848578e-01,4.49623e-09,9.99999e-01,9.99999e-01,9.99999e-01,4.49623e-09,9.99999e-01
5.368557821e-01,6.57242e-09,9.99999e-01,9.99999e-01,9.99999e-01,6.57242e-09,9.99999e-01
5.395400610e-01,9.53555e-09,9.99999e-01,9.99999e-01,9.99999e-01,9.53555e-09,9.99999e-01
5.422377613e-01,1.37333e-08,9.99999e-01,9.99999e-01,9.99999e-01,1.37333e-08,9.99999e-01
5.449489501e-01,1.96368e-08,9.99999e-01,9.99999e-01,9.99999e-01,1.96368e-08,9.99999e-01
5.476736949e-01,2.78806e-08,9.99999e-01,9.99999e-01,9.99999e-01,2.78806e-08,9.99999e-01
5.504120634e-01,3.93121e-08,9.99999e-01,9.99999e-01,9.99999e-01,3.93121e-08,9.99999e-01
5.531641237e-01,5.50558e-08,9.99999e-01,9.99999e-01,9.99999e-01,5.50558e-08,9.99999e-01
5.559299443e-01,7.65932e-08,9.99999e-01,9.99999e-01,9.99999e-01,7.65932e-08,9.99999e-01
5.587095940e-01,1.05863e-07,9.99999e-01,9.99999e-01,9.99999e-01,1.05863e-07,9.99999e-01
5.615031420e-01,1.45386e-07,9.99999e-01,9.99999e-01,9.99999e-01,1.45386e-07,9.99999e-01
5.643106577e-01,1.98418e-07,9.99999e-01,9.99999e-01,9.99999e-01,1.98418e-07,9.99999e-01
5.671322110e-01,2.69135e-07,9.99999e-01,9.99999e-01,9.99999e-01,2.69135e-07,9.99999e-01
5.699678720e-01,3.62865e-07,9.99999e-01,9.99999e-01,9.99999e-01,3.62865e-07,9.99999e-01
5.728177114e-01,4.86357e-07,9.99999e-01,9.99999e-01,9.99999e-01,4.86357e-07,9.99999e-01
5.756818000e-01,6.48118e-07,9.99999e-01,9.99999e-01,9.99999e-01,6.48118e-07,9.99999e-01
5.785602090e-01,8.58794e-07,9.99999e-01,9.99999e-01,9.99999e-01,8.58794e-07,9.99999e-01
5.814530100e-01,1.13164e-06,9.99999e-01,9.99999e-01,9.99999e-01,1.13164e-06,9.99999e-01
5.843602750e-01,1.48308e-06,9.99999e-01,9.99999e-01,9.99999e-01,1.48308e-06,9.99999e-01
5.872820764e-01,1.93329e-06,9.99999e-01,9.99999e-01,9.99999e-01,1.93329e-06,9.99999e-01
5.902184868e-01,2.50702e-06,9.99999e-01,9.99999e-01,9.99999e-01,2.50702e-06,9.99999e-01
5.931695792e-01,3.23436e-06,9.99999e-01,9.99999e-01,9.99999e-01,3.23436e-06,9.99999e-01
5.961354271e-01,4.15177e-06,9.99999e-01,9.99999e-01,9.99999e-01,4.15177e-06,9.99999e-01
5.991161043e-01,5.30318e-06,9.99999e-01,9.99999e-01,9.99999e-01,5.30318e-06,9.99999e-01
6.021116848e-01,6.74124e-06,9.99999e-01,9.99999e-01,9.99999e-01,6.74124e-06,9.99999e-01
6.051222432e-01,8.52874e-06,9.99999e-01,9.99999e-01,9.99999e-01,8.52874e-06,9.99999e-01
6.081478544e-01,1.07402e-05,9.99999e-01,9.99999e-01,9.99999e-01,1.07402e-05,9.99999e-01
6.111885937e-01,1.34636e-05,9.99999e-01,9.99999e-01,9.99999e-01,1.34636e-05,9.99999e-01
6.142445367e-01,1.68025e-05,9.99999e-01,9.99999e-01,9.99999e-01,1.68025e-05,9.99999e-01
6.173157594e-01,2.08778e-05,9.99999e-01,9.99999e-01,9.99999e-01,2.08778e-05,9.99999e-01
6.204023382e-01,2.58305e-05,9.99999e-01,9.99999e-01,9.99999e-01,2.58305e-05,9.99999e-01
6.235043498e-01,3.18239e-05,9.99999e-01,9.99999e-01,9.99999e-01,3.18239e-05,9.99999e-01
6.266218716e-01,3.90468e-05,9.99999e-01,9.99999e-01,9.99999e-01,3.90468e-05,9.99999e-01
6.297549810e-01,4.77159e-05,9.99999e-01,9.99999e-01,9.99999e-01,4.77159e-05,9.99999e-01
6.329037559e-01,5.80791e-05,9.99999e-01,9.99999e-01,9.99999e-01,5.80791e-05,9.99999e-01
6.360682746e-01,7.04192e-05,9.99999e-01,9.99999e-01,9.99999e-01,7.04192e-05,9.99999e-01
6.392486160e-01,8.50568e-05,9.99999e-01,9.99999e-01,9.99999e-01,8.50568e-05,9.99999e-01
6.424448591e-01,1.02355e-04,9.99999e-01,9.99999e-01,9.99999e-01,1.02355e-04,9.99999e-01
6.456570834e-01,1.22721e-04,9.99999e-01,9.99999e-01,9.99999e-01,1.22721e-04,9.99999e-01
6.488853688e-01,1.46613e-04,9.99999e-01,9.99999e-01,9.99999e-01,1.46613e-04,9.99999e-01
6.521297956e-01,1.74542e-04,9.99999e-01,9.99999e-01,9.99999e-01,1.74542e-04,9.99999e-01
6.553904446e-01,2.07077e-04,9.99999e-01,9.99999e-01,9.99999e-01,2.07077e-04,9.99999e-01
6.586673968e-01,2.44848e-04,9.99999e-01,9.99999e-01,9.99999e-01,2.44848e-04,9.99999e-01
6.619607338e-01,2.88552e-04,9.99999e-01,9.99999e-01,9.99999e-01,2.88552e-04,9.99999e-01
6.652705375e-01,3.38956e-04,9.99999e-01,9.99999e-01,9.99999e-01,3.38956e-04,9.99999e-01
6.685968902e-01,3.96901e-04,9.99999e-01,9.99999e-01,9.99999e-01,3.96901e-04,9.99999e-01
6.719398746e-01,4.63305e-04,9.99999e-01,9.99999e-01,9.99999e-01,4.63305e-04,9.99999e-01
6.752995740e-01,5.39168e-04,9.99999e-01,9.99999e-01,9.99999e-01,5.39168e-04,9.99999e-01
6.786760719e-01,6.25577e-04,9.99999e-01,9.99999e-01,9.99999e-01,6.25577e-04,9.99999e-01
6.820694522e-01,7.23706e-04,9.99999e-01,9.99999e-01,9.99999e-01,7.23706e-04,9.99999e-01
6.854797995e-01,8.34821e-04,9.99999e-01,9.99999e-01,9.99999e-01,8.34821e-04,9.99999e-01
6.889071985e-01,9.60284e-04,9.99999e-01,9.99999e-01,9.99999e-01,9.60284e-04,9.99999e-01
6.923517345e-01,1.10155e-03,9.99999e-01,9.99999e-01,9.99999e-01,1.10155e-03,9.99999e-01
6.958134932e-01,1.26018e-03,9.99999e-01,9.99999e-01,9.99999e-01,1.26018e-03,9.99999e-01
6.992925606e-01,1.43782e-03,9.99999e-01,9.99999e-01,9.99999e-01,1.43782e-03,9.99999e-01
7.027890234e-01,1.63624e-03,9.99999e-01,9.99999e-01,9.99999e-01,1.63624e-03,9.99999e-01
7.063029686e-01,1.85730e-03,9.99999e-01,9.99999e-01,9.99999e-01,1.85730e-03,9.99999e-01
7.098344834e-01,2.10295e-03,9.99999e-01,9.99999e-01,9.99999e-01,2.10295e-03,9.99999e-01
7.133836558e-01,2.37525e-03,9.99999e-01,9.99999e-01,9.99999e-01,2.37525e-03,9.99999e-01
7.169505741e-01,2.67636e-03,9.99999e-01,9.99999e-01,9.99999e-01,2.67636e-03,9.99999e-01
7.205353270e-01,3.00855e-03,9.99999e-01,9.99999e-01,9.99999e-01,3.00855e-03,9.99999e-01
7.241380036e-01,3.37416e-03,9.99999e-01,9.99999e-01,9.99999e-01,3.37416e-03,9.99999e-01
7.277586936e-01,3.77564e-03,9.99999e-01,9.99999e-01,9.99999e-01,3.77564e-03,9.99999e-01
7.313974871e-01,4.21552e-03,9.99999e-01,9.99999e-01,9.99999e-01,4.21552e-03,9.99999e-01
7.350544745e-01,4.69641e-03,9.99999e-01,9.99999e-01,9.99999e-01,4.69641e-03,9.99999e-01
7.387297469e-01,5.22101e-03,9.99999e-01,9.99999e-01,9.99999e-01,5.22101e-03,9.99999e-01
7.424233956e-01,5.79208e-03,9.99999e-01,9.99999e-01,9.99999e-01,5.79208e-03,9.99999e-01
7.461355126e-01,6.41246e-03,9.99999e-01,9.99999e-01,9.99999e-01,6.41246e-03,9.99999e-01
7.498661902e-01,7.08502e-03,9.99999e-01,9.99999e-01,9.99999e-01,7.08502e-03,9.99999e-01
7.536155211e-01,7.81272e-03,9.99999e-01,9.99999e-01,9.99999e-01,7.81272e-03,9.99999e-01
7.573835987e-01,8.59854e-03,9.99999e-01,9.99999e-01,9.99999e-01,8.59854e-03,9.99999e-01
7.611705167e-01,9.44549e-03,9.99999e-01,9.99999e-01,9.99999e-01,9.44549e-03,9.99999e-01
7.649763693e-01,1.03566e-02,9.99999e-01,9.99999e-01,9.99999e-01,1.03566e-02,9.99999e-01
7.688012511e-01,1.13350e-02,9.99999e-01,9.99999e-01,9.99999e-01,1.13350e-02,9.99999e-01
7.726452574e-01,1.23838e-02,9.99999e-01,9.99999e-01,9.99999e-01,1.23838e-02,9.99999e-01
7.765084837e-01,1.35059e-02,9.99999e-01,9.99999e-01,9.99999e-01,1.35059e-02,9.99999e-01
7.803910261e-01,1.26895e-02,9.99999e-01,9.99999e-01,8.62963e-01,1.47045e-02,9.99999e-01
7.842929812e-01,7.30235e-03,9.99999e-01,9.99999e-01,4.56892e-01,1.59826e-02,9.99999e-01
7.882144461e-01,7.65212e-03,9.99999e-01,9.99999e-01,4.41215e-01,1.73433e-02,9.99999e-01
7.921555184e-01,1.10847e-02,9.99999e-01,9.99999e-01,5.89943e-01,1.87894e-02,9.99999e-01
7.961162960e-01,1.41763e-02,9.99999e-01,9.99999e-01,6.97519e-01,2.03239e-02,9.99999e-01
8.000968774e-01,1.80414e-02,9.99999e-01,9.99999e-01,8.21944e-01,2.19497e-02,9.99999e-01
8.040973618e-01,2.13808e-02,9.99999e-01,9.99999e-01,9.03307e-01,2.36695e-02,9.99999e-01
8.081178486e-01,2.43175e-02,9.99999e-01,9.99999e-01,9.54149e-01,2.54860e-02,9.99999e-01
8.121584379e-01,2.70105e-02,9.99999e-01,9.99999e-01,9.85713e-01,2.74020e-02,9.99999e-01
8.162192301e-01,2.93264e-02,9.99999e-01,9.99999e-01,9.96825e-01,2.94198e-02,9.99999e-01
8.203003262e-01,3.15405e-02,9.99999e-01,9.99999e-01,9.99955e-01,3.15419e-02,9.99999e-01
8.244018279e-01,3.37706e-02,9.99999e-01,9.99999e-01,9.99999e-01,3.37706e-02,9.99999e-01
8.285238370e-01,3.61080e-02,9.99999e-01,9.99999e-01,9.99999e-01,3.61080e-02,9.99999e-01
8.326664562e-01,3.85562e-02,9.99999e-01,9.99999e-01,9.99999e-01,3.85562e-02,9.99999e-01
8.368297885e-01,4.11171e-02,9.99999e-01,9.99999e-01,9.99999e-01,4.11171e-02,9.99999e-01
8.410139374e-01,4.37924e-02,9.99999e-01,9.99999e-01,9.99999e-01,4.37924e-02,9.99999e-01
8.452190071e-01,4.65838e-02,9.99999e-01,9.99999e-01,9.99999e-01,4.65838e-02,9.99999e-01
8.494451021e-01,4.94926e-02,9.99999e-01,9.99999e-01,9.99999e-01,4.94926e-02,9.99999e-01
8.536923276e-01,5.25202e-02,9.99999e-01,9.99999e-01,9.99999e-01,5.25202e-02,9.99999e-01
8.579607893e-01,5.56677e-02,9.99999e-01,9.99999e-01,9.99999e-01,5.56677e-02,9.99999e-01
8.622505932e-01,5.89360e-02,9.99999e-01,9.99999e-01,9.99999e-01,5.89360e-02,9.99999e-01
8.665618462e-01,5.16598e-02,9.99999e-01,9.99999e-01,8.28864e-01,6.23259e-02,9.99999e-01
8.708946554e-01,1.00829e-02,9.99999e-01,9.99999e-01,1.53146e-01,6.58380e-02,9.99999e-01
8.752491287e-01,1.36970e-02,9.99999e-01,9.99999e-01,1.97156e-01,6.94728e-02,9.99999e-01
8.796253743e-01,2.91415e-02,9.99999e-01,9.99999e-01,3.97942e-01,7.32305e-02,9.99999e-01
8.840235012e-01,4.69884e-02,9.99999e-01,9.99999e-01,6.09359e-01,7.71111e-02,9.99999e-01
8.884436187e-01,6.65725e-02,9.99999e-01,9.99999e-01,8.20720e-01,8.11146e-02,9.99999e-01
8.928858368e-01,7.86337e-02,9.99999e-01,9.99999e-01,9.22488e-01,8.52407e-02,9.99999e-01
8.973502660e-01,8.77580e-02,9.99999e-01,9.99999e-01,9.80656e-01,8.94890e-02,9.99999e-01
9.018370173e-01,9.36573e-02,9.99999e-01,9.99999e-01,9.97853e-01,9.38587e-02,9.99999e-01
9.063462024e-01,9.31524e-02,9.99999e-01,9.99999e-01,9.47159e-01,9.83492e-02,9.99999e-01
9.108779334e-01,9.06770e-02,9.99999e-01,9.99999e-01,8.80705e-01,1.02959e-01,9.99999e-01
9.154323231e-01,1.04544e-01,9.99999e-01,9.99999e-01,9.70799e-01,1.07688e-01,9.99999e-01
9.200094847e-01,8.07434e-02,9.99999e-01,9.99999e-01,7.17498e-01,1.12534e-01,9.99999e-01
9.246095321e-01,6.35645e-02,9.99999e-01,9.99999e-01,5.40990e-01,1.17497e-01,9.99999e-01
9.292325798e-01,7.67877e-02,9.99999e-01,9.99999e-01,6.26465e-01,1.22573e-01,9.99999e-01
9.338787427e-01,8.06461e-02,9.99999e-01,9.99999e-01,6.31222e-01,1.27762e-01,9.99999e-01
9.385481364e-01,9.43740e-02,9.99999e-01,9.99999e-01,7.09252e-01,1.33061e-01,9.99999e-01
9.432408771e-01,1.11966e-01,9.99999e-01,9.99999e-01,8.08597e-01,1.38469e-01,9.99999e-01
9.479570815e-01,1.29059e-01,9.99999e-01,9.99999e-01,8.96342e-01,1.43984e-01,9.99999e-01
9.526968669e-01,1.41940e-01,9.99999e-01,9.99999e-01,9.48779e-01,1.49603e-01,9.99999e-01
9.574603512e-01,1.51864e-01,9.99999e-01,9.99999e-01,9.77730e-01,1.55323e-01,9.99999e-01
9.622476530e-01,1.60015e-01,9.99999e-01,9.99999e-01,9.93001e-01,1.61143e-01,9.99999e-01
9.670588912e-01,1.66709e-01,9.99999e-01,9.99999e-01,9.97901e-01,1.67059e-01,9.99999e-01
9.718941857e-01,1.73045e-01,9.99999e-01,9.99999e-01,9.99853e-01,1.73070e-01,9.99999e-01
9.767536566e-01,1.79171e-01,9.99999e-01,9.99999e-01,9.99999e-01,1.79171e-01,9.99999e-01
9.816374249e-01,1.85361e-01,9.99999e-01,9.99999e-01,9.99999e-01,1.85361e-01,9.99999e-01
9.865456120e-01,1.91636e-01,9.99999e-01,9.99999e-01,9.99999e-01,1.91636e-01,9.99999e-01
9.914783401e-01,1.97993e-01,9.99999e-01,9.99999e-01,9.99999e-01,1.97993e-01,9.99999e-01
9.964357318e-01,2.04429e-01,9.99999e-01,9.99999e-01,9.99999e-01,2.04429e-01,9.99999e-01
1.001417910e+00,2.10941e-01,9.99999e-01,9.99999e-01,9.99999e-01,2.10941e-01,9.99999e-01
1.006425000e+00,2.17526e-01,9.99999e-01,9.99999e-01,9.99999e-01,2.17526e-01,9.99999e-01
1.011457125e+00,2.24180e-01,9.99999e-01,9.99999e-01,9.99999e-01,2.24180e-01,9.99999e-01
1.016514411e+00,2.30900e-01,9.99999e-01,9.99999e-01,9.99999e-01,2.30900e-01,9.99999e-01
1.021596983e+00,2.37605e-01,9.99999e-01,9.99999e-01,9.99671e-01,2.37683e-01,9.99999e-01
1.026704968e+00,2.39235e-01,9.99999e-01,9.99999e-01,9.78367e-01,2.44525e-01,9.99999e-01
1.031838492e+00,2.15466e-01,9.99999e-01,9.99999e-01,8.56985e-01,2.51423e-01,9.99999e-01
1.036997685e+00,5.76393e-03,9.99999e-01,9.99999e-01,2.23085e-02,2.58374e-01,9.99999e-01
1.042182673e+00,4.14314e-05,9.99999e-01,9.99999e-01,1.56125e-04,2.65374e-01,9.99999e-01
1.047393587e+00,1.14037e-04,9.99999e-01,9.99999e-01,4.18607e-04,2.72420e-01,9.99999e-01
1.052630555e+00,3.31638e-11,9.99999e-01,9.99999e-01,1.18651e-10,2.79508e-01,9.99999e-01
1.057893707e+00,1.25885e-10,9.99999e-01,9.99999e-01,4.39184e-10,2.86635e-01,9.99999e-01
1.063183176e+00,6.20723e-08,9.99999e-01,9.99999e-01,2.11276e-07,2.93797e-01,9.99999e-01
1.068499092e+00,1.81221e-06,9.99999e-01,9.99999e-01,6.02079e-06,3.00992e-01,9.99999e-01
1.073841587e+00,1.07455e-04,9.99999e-01,9.99999e-01,3.48634e-04,3.08216e-01,9.99999e-01
1.079210795e+00,2.27473e-03,9.99999e-01,9.99999e-01,7.21070e-03,3.15465e-01,9.99999e-01
1.084606849e+00,1.82775e-02,9.99999e-01,9.99999e-01,5.66328e-02,3.22737e-01,9.99999e-01
1.090029883e+00,7.24389e-02,9.99999e-01,9.99999e-01,2.19493e-01,3.30027e-01,9.99999e-01
1.095480033e+00,1.58818e-01,9.99999e-01,9.99999e-01,4.70804e-01,3.37334e-01,9.99999e-01
1.100957433e+00,2.38734e-01,9.99999e-01,9.99999e-01,6.92680e-01,3.44653e-01,9.99999e-01
1.106462220e+00,3.02264e-01,9.99999e-01,9.99999e-01,8.58749e-01,3.51981e-01,9.99999e-01
1.111994531e+00,3.39541e-01,9.99999e-01,9.99999e-01,9.44962e-01,3.59316e-01,9.99999e-01
1.117554504e+00,3.61641e-01,9.99999e-01,9.99999e-01,9.86325e-01,3.66655e-01,9.99999e-01
1.123142276e+00,3.73658e-01,9.99999e-01,9.99999e-01,9.99101e-01,3.73994e-01,9.99999e-01
1.128757988e+00,3.81330e-01,9.99999e-01,9.99999e-01,9.99999e-01,3.81330e-01,9.99999e-01
1.134401778e+00,3.88662e-01,9.99999e-01,9.99999e-01,9.99999e-01,3.88662e-01,9.99999e-01
1.140073787e+00,3.95985e-01,9.99999e-01,9.99999e-01,9.99999e-01,3.95985e-01,9.99999e-01
1.145774156e+00,4.03297e-01,9.99999e-01,9.99999e-01,9.99999e-01,4.03297e-01,9.99999e-01
1.151503026e+00,4.10597e-01,9.99999e-01,9.99999e-01,9.99999e-01,4.10597e-01,9.99999e-01
1.157260541e+00,4.17880e-01,9.99999e-01,9.99999e-01,9.99999e-01,4.17880e-01,9.99999e-01
1.163046844e+00,4.25144e-01,9.99999e-01,9.99999e-01,9.99999e-01,4.25144e-01,9.99999e-01
1.168862078e+00,4.32388e-01,9.99999e-01,9.99999e-01,9.99999e-01,4.32388e-01,9.99999e-01
1.174706389e+00,4.39609e-01,9.99999e-01,9.99999e-01,9.99999e-01,4.39609e-01,9.99999e-01
1.180579921e+00,4.46803e-01,9.99999e-01,9.99999e-01,9.99999e-01,4.46803e-01,9.99999e-01
1.186482820e+00,4.53949e-01,9.99999e-01,9.99999e-01,9.99951e-01,4.53970e-01,9.99999e-01
1.192415234e+00,4.28766e-01,9.99999e-01,9.99999e-01,9.29861e-01,4.61107e-01,9.99999e-01
1.198377311e+00,2.19208e-01,9.99999e-01,9.99999e-01,4.68180e-01,4.68212e-01,9.99999e-01
1.204369197e+00,2.50000e-54,9.99999e-01,9.99999e-01,5.26003e-54,4.75283e-01,9.99999e-01
1.210391043e+00,4.99300e-226,9.99999e-01,9.99999e-01,1.03521e-225,4.82318e-01,9.99999e-01
1.216442998e+00,2.54881e-195,9.99999e-01,9.99999e-01,5.20894e-195,4.89315e-01,9.99999e-01
1.222525213e+00,2.31059e-192,9.99999e-01,9.99999e-01,4.65589e-192,4.96272e-01,9.99999e-01
1.228637839e+00,5.67098e-148,9.99999e-01,9.99999e-01,1.12701e-147,5.03188e-01,9.99999e-01
