#,Wave/freq,Total,N2,O2,CO2,Rayleigh,CIA
4.000000000e-01,4.44962e-04,9.99999e-01,9.99999e-01,9.99999e-01,4.44962e-04,9.99999e-01
4.020000000e-01,5.18315e-04,9.99999e-01,9.99999e-01,9.99999e-01,5.18315e-04,9.99999e-01
4.040100000e-01,6.01850e-04,9.99999e-01,9.99999e-01,9.99999e-01,6.01850e-04,9.99999e-01
4.060300500e-01,6.96789e-04,9.99999e-01,9.99999e-01,9.99999e-01,6.96789e-04,9.99999e-01
4.080602003e-01,8.04374e-04,9.99999e-01,9.99999e-01,9.99999e-01,8.04374e-04,9.99999e-01
4.101005013e-01,9.25940e-04,9.99999e-01,9.99999e-01,9.99999e-01,9.25940e-04,9.99999e-01
4.121510038e-01,1.06292e-03,9.99999e-01,9.99999e-01,9.99999e-01,1.06292e-03,9.99999e-01
4.142117588e-01,1.21684e-03,9.99999e-01,9.99999e-01,9.99999e-01,1.21684e-03,9.99999e-01
4.162828176e-01,1.38934e-03,9.99999e-01,9.99999e-01,9.99999e-01,1.38934e-03,9.99999e-01
4.183642317e-01,1.58214e-03,9.99999e-01,9.99999e-01,9.99999e-01,1.58214e-03,9.99999e-01
4.204560528e-01,1.79708e-03,9.99999e-01,9.99999e-01,9.99999e-01,1.79708e-03,9.99999e-01
4.225583331e-01,2.03608e-03,9.99999e-01,9.99999e-01,9.99999e-01,2.03608e-03,9.99999e-01
4.246711247e-01,2.30120e-03,9.99999e-01,9.99999e-01,9.99999e-01,2.30120e-03,9.99999e-01
4.267944804e-01,2.59455e-03,9.99999e-01,9.99999e-01,9.99999e-01,2.59455e-03,9.99999e-01
4.289284528e-01,2.91837e-03,9.99999e-01,9.99999e-01,9.99999e-01,2.91837e-03,9.99999e-01
4.310730950e-01,3.27499e-03,9.99999e-01,9.99999e-01,9.99999e-01,3.27499e-03,9.99999e-01
4.332284605e-01,3.66683e-03,9.99999e-01,9.99999e-01,9.99999e-01,3.66683e-03,9.99999e-01
4.353946028e-01,4.09640e-03,9.99999e-01,9.99999e-01,9.99999e-01,4.09640e-03,9.99999e-01
4.375715758e-01,4.56629e-03,9.99999e-01,9.99999e-01,9.99999e-01,4.56629e-03,9.99999e-01
4.397594337e-01,5.07917e-03,9.99999e-01,9.99999e-01,9.99999e-01,5.07917e-03,9.99999e-01
4.419582309e-01,5.63779e-03,9.99999e-01,9.99999e-01,9.99999e-01,5.63779e-03,9.99999e-01
4.441680220e-01,6.24497e-03,9.99999e-01,9.99999e-01,9.99999e-01,6.24497e-03,9.99999e-01
4.463888621e-01,6.90357e-03,9.99999e-01,9.99999e-01,9.99999e-01,6.90357e-03,9.99999e-01
4.486208064e-01,7.61653e-03,9.99999e-01,9.99999e-01,9.99999e-01,7.61653e-03,9.99999e-01
4.508639105e-01,8.38683e-03,9.99999e-01,9.99999e-01,9.99999e-01,8.38683e-03,9.99999e-01
4.531182300e-01,9.21748e-03,9.99999e-01,9.99999e-01,9.99999e-01,9.21748e-03,9.99999e-01
4.553838212e-01,1.01115e-02,9.99999e-01,9.99999e-01,9.99999e-01,1.01115e-02,9.99999e-01
4.576607403e-01,1.10720e-02,9.99999e-01,9.99999e-01,9.99999e-01,1.10720e-02,9.99999e-01
4.599490440e-01,1.21020e-02,9.99999e-01,9.99999e-01,9.99999e-01,1.21020e-02,9.99999e-01
4.622487892e-01,1.32046e-02,9.99999e-01,9.99999e-01,9.99999e-01,1.32046e-02,9.99999e-01
4.645600332e-01,1.43829e-02,9.99999e-01,9.99999e-01,9.99999e-01,1.43829e-02,9.99999e-01
4.668828333e-01,1.56399e-02,9.99999e-01,9.99999e-01,9.99999e-01,1.56399e-02,9.99999e-01
4.692172475e-01,1.69786e-02,9.99999e-01,9.99999e-01,9.99999e-01,1.69786e-02,9.99999e-01
4.715633337e-01,1.84020e-02,9.99999e-01,9.99999e-01,9.99999e-01,1.84020e-02,9.99999e-01
4.739211504e-01,1.99131e-02,9.99999e-01,9.99999e-01,9.99999e-01,1.99131e-02,9.99999e-01
4.762907561e-01,2.15147e-02,9.99999e-01,9.99999e-01,9.99999e-01,2.15147e-02,9.99999e-01
4.786722099e-01,2.32096e-02,9.99999e-01,9.99999e-01,9.99999e-01,2.32096e-02,9.99999e-01
4.810655710e-01,2.50005e-02,9.99999e-01,9.99999e-01,9.99999e-01,2.50005e-02,9.99999e-01
4.834708988e-01,2.68902e-02,9.99999e-01,9.99999e-01,9.99999e-01,2.68902e-02,9.99999e-01
4.858882533e-01,2.88811e-02,9.99999e-01,9.99999e-01,9.99999e-01,2.88811e-02,9.99999e-01
4.883176946e-01,3.09756e-02,9.99999e-01,9.99999e-01,9.99999e-01,3.09756e-02,9.99999e-01
4.907592831e-01,3.31761e-02,9.99999e-01,9.99999e-01,9.99999e-01,3.31761e-02,9.99999e-01
4.932130795e-01,3.54849e-02,9.99999e-01,9.99999e-01,9.99999e-01,3.54849e-02,9.99999e-01
4.956791449e-01,3.79039e-02,9.99999e-01,9.99999e-01,9.99999e-01,3.79039e-02,9.99999e-01
4.981575406e-01,4.04351e-02,9.99999e-01,9.99999e-01,9.99999e-01,4.04351e-02,9.99999e-01
5.006483283e-01,4.30802e-02,9.99999e-01,9.99999e-01,9.99999e-01,4.30802e-02,9.99999e-01
5.031515699e-01,4.58410e-02,9.99999e-01,9.99999e-01,9.99999e-01,4.58410e-02,9.99999e-01
5.056673278e-01,4.87189e-02,9.99999e-01,9.99999e-01,9.99999e-01,4.87189e-02,9.99999e-01
5.081956644e-01,5.17153e-02,9.99999e-01,9.99999e-01,9.99999e-01,5.17153e-02,9.99999e-01
5.107366428e-01,5.48313e-02,9.99999e-01,9.99999e-01,9.99999e-01,5.48313e-02,9.99999e-01
5.132903260e-01,5.80678e-02,9.99999e-01,9.99999e-01,9.99999e-01,5.80678e-02,9.99999e-01
5.158567776e-01,6.14258e-02,9.99999e-01,9.99999e-01,9.99999e-01,6.14258e-02,9.99999e-01
5.184360615e-01,6.49059e-02,9.99999e-01,9.99999e-01,9.99999e-01,6.49059e-02,9.99999e-01
5.210282418e-01,6.85085e-02,9.99999e-01,9.99999e-01,9.99999e-01,6.85085e-02,9.99999e-01
5.236333830e-01,7.22339e-02,9.99999e-01,9.99999e-01,9.99999e-01,7.22339e-02,9.99999e-01
5.262515499e-01,7.60824e-02,9.99999e-01,9.99999e-01,9.99999e-01,7.60824e-02,9.99999e-01
5.288828077e-01,8.00537e-02,9.99999e-01,9.99999e-01,9.99999e-01,8.00537e-02,9.99999e-01
5.315272217e-01,8.41477e-02,9.99999e-01,9.99999e-01,9.99999e-01,8.41477e-02,9.99999e-01
5.341848578e-01,8.83640e-02,9.99999e-01,9.99999e-01,9.99999e-01,8.83640e-02,9.99999e-01
5.368557821e-01,9.27020e-02,9.99999e-01,9.99999e-01,9.99999e-01,9.27020e-02,9.99999e-01
5.395400610e-01,9.71609e-02,9.99999e-01,9.99999e-01,9.99999e-01,9.71609e-02,9.99999e-01
5.422377613e-01,1.01740e-01,9.99999e-01,9.99999e-01,9.99999e-01,1.01740e-01,9.99999e-01
5.449489501e-01,1.06438e-01,9.99999e-01,9.99999e-01,9.99999e-01,1.06438e-01,9.99999e-01
5.476736949e-01,1.11253e-01,9.99999e-01,9.99999e-01,9.99999e-01,1.11253e-01,9.99999e-01
5.504120634e-01,1.16185e-01,9.99999e-01,9.99999e-01,9.99999e-01,1.16185e-01,9.99999e-01
5.531641237e-01,1.21232e-01,9.99999e-01,9.99999e-01,9.99999e-01,1.21232e-01,9.99999e-01
5.559299443e-01,1.26391e-01,9.99999e-01,9.99999e-01,9.99999e-01,1.26391e-01,9.99999e-01
5.587095940e-01,1.31662e-01,9.99999e-01,9.99999e-01,9.99999e-01,1.31662e-01,9.99999e-01
5.615031420e-01,1.37042e-01,9.99999e-01,9.99999e-01,9.99999e-01,1.37042e-01,9.99999e-01
5.643106577e-01,1.42529e-01,9.99999e-01,9.99999e-01,9.99999e-01,1.42529e-01,9.99999e-01
5.671322110e-01,1.48120e-01,9.99999e-01,9.99999e-01,9.99999e-01,1.48120e-01,9.99999e-01
5.699678720e-01,1.53815e-01,9.99999e-01,9.99999e-01,9.99999e-01,1.53815e-01,9.99999e-01
5.728177114e-01,1.59609e-01,9.99999e-01,9.99999e-01,9.99999e-01,1.59609e-01,9.99999e-01
5.756818000e-01,1.65500e-01,9.99999e-01,9.99999e-01,9.99999e-01,1.65500e-01,9.99999e-01
5.785602090e-01,1.71486e-01,9.99999e-01,9.99999e-01,9.99999e-01,1.71486e-01,9.99999e-01
5.814530100e-01,1.77564e-01,9.99999e-01,9.99999e-01,9.99999e-01,1.77564e-01,9.99999e-01
5.843602750e-01,1.83731e-01,9.99999e-01,9.99999e-01,9.99999e-01,1.83731e-01,9.99999e-01
5.872820764e-01,1.89983e-01,9.99999e-01,9.99999e-01,9.99999e-01,1.89983e-01,9.99999e-01
5.902184868e-01,1.96319e-01,9.99999e-01,9.99999e-01,9.99999e-01,1.96319e-01,9.99999e-01
5.931695792e-01,2.02735e-01,9.99999e-01,9.99999e-01,9.99999e-01,2.02735e-01,9.99999e-01
5.961354271e-01,2.09227e-01,9.99999e-01,9.99999e-01,9.99999e-01,2.09227e-01,9.99999e-01
5.991161043e-01,2.15793e-01,9.99999e-01,9.99999e-01,9.99999e-01,2.15793e-01,9.99999e-01
6.021116848e-01,2.22429e-01,9.99999e-01,9.99999e-01,9.99999e-01,2.22429e-01,9.99999e-01
6.051222432e-01,2.29133e-01,9.99999e-01,9.99999e-01,9.99999e-01,2.29133e-01,9.99999e-01
6.081478544e-01,2.35899e-01,9.99999e-01,9.99999e-01,9.99999e-01,2.35899e-01,9.99999e-01
6.111885937e-01,2.42726e-01,9.99999e-01,9.99999e-01,9.99999e-01,2.42726e-01,9.99999e-01
6.142445367e-01,2.49610e-01,9.99999e-01,9.99999e-01,9.99999e-01,2.49610e-01,9.99999e-01
6.173157594e-01,2.56548e-01,9.99999e-01,9.99999e-01,9.99999e-01,2.56548e-01,9.99999e-01
6.204023382e-01,2.63535e-01,9.99999e-01,9.99999e-01,9.99999e-01,2.63535e-01,9.99999e-01
6.235043498e-01,2.70569e-01,9.99999e-01,9.99999e-01,9.99999e-01,2.70569e-01,9.99999e-01
6.266218716e-01,2.77646e-01,9.99999e-01,9.99999e-01,9.99999e-01,2.77646e-01,9.99999e-01
6.297549810e-01,2.84764e-01,9.99999e-01,9.99999e-01,9.99999e-01,2.84764e-01,9.99999e-01
6.329037559e-01,2.91917e-01,9.99999e-01,9.99999e-01,9.99999e-01,2.91917e-01,9.99999e-01
6.360682746e-01,2.99104e-01,9.99999e-01,9.99999e-01,9.99999e-01,2.99104e-01,9.99999e-01
6.392486160e-01,3.06320e-01,9.99999e-01,9.99999e-01,9.99999e-01,3.06320e-01,9.99999e-01
6.424448591e-01,3.13563e-01,9.99999e-01,9.99999e-01,9.99999e-01,3.13563e-01,9.99999e-01
6.456570834e-01,3.20829e-01,9.99999e-01,9.99999e-01,9.99999e-01,3.20829e-01,9.99999e-01
6.488853688e-01,3.28115e-01,9.99999e-01,9.99999e-01,9.99999e-01,3.28115e-01,9.99999e-01
6.521297956e-01,3.35418e-01,9.99999e-01,9.99999e-01,9.99999e-01,3.35418e-01,9.99999e-01
6.553904446e-01,3.42734e-01,9.99999e-01,9.99999e-01,9.99999e-01,3.42734e-01,9.99999e-01
6.586673968e-01,3.50060e-01,9.99999e-01,9.99999e-01,9.99999e-01,3.50060e-01,9.99999e-01
6.619607338e-01,3.57394e-01,9.99999e-01,9.99999e-01,9.99999e-01,3.57394e-01,9.99999e-01
6.652705375e-01,3.64732e-01,9.99999e-01,9.99999e-01,9.99999e-01,3.64732e-01,9.99999e-01
6.685968902e-01,3.72071e-01,9.99999e-01,9.99999e-01,9.99999e-01,3.72071e-01,9.99999e-01
6.719398746e-01,3.79408e-01,9.99999e-01,9.99999e-01,9.99999e-01,3.79408e-01,9.99999e-01
6.752995740e-01,3.86741e-01,9.99999e-01,9.99999e-01,9.99999e-01,3.86741e-01,9.99999e-01
6.786760719e-01,3.94067e-01,9.99999e-01,9.99999e-01,9.99999e-01,3.94067e-01,9.99999e-01
6.820694522e-01,4.01382e-01,9.99999e-01,9.99999e-01,9.99999e-01,4.01382e-01,9.99999e-01
6.854797995e-01,4.08685e-01,9.99999e-01,9.99999e-01,9.99999e-01,4.08685e-01,9.99999e-01
6.889071985e-01,4.15973e-01,9.99999e-01,9.99999e-01,9.99999e-01,4.15973e-01,9.99999e-01
6.923517345e-01,4.23243e-01,9.99999e-01,9.99999e-01,9.99999e-01,4.23243e-01,9.99999e-01
6.958134932e-01,4.30492e-01,9.99999e-01,9.99999e-01,9.99999e-01,4.30492e-01,9.99999e-01
6.992925606e-01,4.37719e-01,9.99999e-01,9.99999e-01,9.99999e-01,4.37719e-01,9.99999e-01
7.027890234e-01,4.44921e-01,9.99999e-01,9.99999e-01,9.99999e-01,4.44921e-01,9.99999e-01
7.063029686e-01,4.52095e-01,9.99999e-01,9.99999e-01,9.99999e-01,4.52095e-01,9.99999e-01
7.098344834e-01,4.59240e-01,9.99999e-01,9.99999e-01,9.99999e-01,4.59240e-01,9.99999e-01
7.133836558e-01,4.66354e-01,9.99999e-01,9.99999e-01,9.99999e-01,4.66354e-01,9.99999e-01
7.169505741e-01,4.73434e-01,9.99999e-01,9.99999e-01,9.99999e-01,4.73434e-01,9.99999e-01
7.205353270e-01,4.80478e-01,9.99999e-01,9.99999e-01,9.99999e-01,4.80478e-01,9.99999e-01
7.241380036e-01,4.87485e-01,9.99999e-01,9.99999e-01,9.99999e-01,4.87485e-01,9.99999e-01
7.277586936e-01,4.94453e-01,9.99999e-01,9.99999e-01,9.99999e-01,4.94453e-01,9.99999e-01
7.313974871e-01,5.01380e-01,9.99999e-01,9.99999e-01,9.99999e-01,5.01380e-01,9.99999e-01
7.350544745e-01,5.08264e-01,9.99999e-01,9.99999e-01,9.99999e-01,5.08264e-01,9.99999e-01
7.387297469e-01,5.15103e-01,9.99999e-01,9.99999e-01,9.99999e-01,5.15103e-01,9.99999e-01
7.424233956e-01,5.21898e-01,9.99999e-01,9.99999e-01,9.99999e-01,5.21898e-01,9.99999e-01
7.461355126e-01,5.28644e-01,9.99999e-01,9.99999e-01,9.99999e-01,5.28644e-01,9.99999e-01
7.498661902e-01,5.35343e-01,9.99999e-01,9.99999e-01,9.99999e-01,5.35343e-01,9.99999e-01
7.536155211e-01,5.41991e-01,9.99999e-01,9.99999e-01,9.99999e-01,5.41991e-01,9.99999e-01
7.573835987e-01,5.48588e-01,9.99999e-01,9.99999e-01,9.99999e-01,5.48588e-01,9.99999e-01
7.611705167e-01,5.55133e-01,9.99999e-01,9.99999e-01,9.99999e-01,5.55133e-01,9.99999e-01
7.649763693e-01,5.61624e-01,9.99999e-01,9.99999e-01,9.99999e-01,5.61624e-01,9.99999e-01
7.688012511e-01,5.68061e-01,9.99999e-01,9.99999e-01,9.99999e-01,5.68061e-01,9.99999e-01
7.726452574e-01,5.74442e-01,9.99999e-01,9.99999e-01,9.99999e-01,5.74442e-01,9.99999e-01
7.765084837e-01,5.80766e-01,9.99999e-01,9.99999e-01,9.99999e-01,5.80766e-01,9.99999e-01
7.803910261e-01,5.71656e-01,9.99999e-01,9.99999e-01,9.73803e-01,5.87034e-01,9.99999e-01
7.842929812e-01,5.30844e-01,9.99999e-01,9.99999e-01,8.94817e-01,5.93243e-01,9.99999e-01
7.882144461e-01,5.31688e-01,9.99999e-01,9.99999e-01,8.87044e-01,5.99393e-01,9.99999e-01
7.921555184e-01,5.64909e-01,9.99999e-01,9.99999e-01,9.32987e-01,6.05484e-01,9.99999e-01
7.961162960e-01,5.83974e-01,9.99999e-01,9.99999e-01,9.54963e-01,6.11514e-01,9.99999e-01
8.000968774e-01,6.02233e-01,9.99999e-01,9.99999e-01,9.75301e-01,6.17484e-01,9.99999e-01
8.040973618e-01,6.15397e-01,9.99999e-01,9.99999e-01,9.87173e-01,6.23392e-01,9.99999e-01
8.081178486e-01,6.25510e-01,9.99999e-01,9.99999e-01,9.94075e-01,6.29238e-01,9.99999e-01
8.121584379e-01,6.33867e-01,9.99999e-01,9.99999e-01,9.98180e-01,6.35022e-01,9.99999e-01
8.162192301e-01,6.40486e-01,9.99999e-01,9.99999e-01,9.99597e-01,6.40744e-01,9.99999e-01
8.203003262e-01,6.46399e-01,9.99999e-01,9.99999e-01,9.99993e-01,6.46402e-01,9.99999e-01
8.244018279e-01,6.51997e-01,9.99999e-01,9.99999e-01,9.99999e-01,6.51997e-01,9.99999e-01
8.285238370e-01,6.57529e-01,9.99999e-01,9.99999e-01,9.99999e-01,6.57529e-01,9.99999e-01
8.326664562e-01,6.62997e-01,9.99999e-01,9.99999e-01,9.99999e-01,6.62997e-01,9.99999e-01
8.368297885e-01,6.68401e-01,9.99999e-01,9.99999e-01,9.99999e-01,6.68401e-01,9.99999e-01
8.410139374e-01,6.73741e-01,9.99999e-01,9.99999e-01,9.99999e-01,6.73741e-01,9.99999e-01
8.452190071e-01,6.79017e-01,9.99999e-01,9.99999e-01,9.99999e-01,6.79017e-01,9.99999e-01
8.494451021e-01,6.84229e-01,9.99999e-01,9.99999e-01,9.99999e-01,6.84229e-01,9.99999e-01
8.536923276e-01,6.89377e-01,9.99999e-01,9.99999e-01,9.99999e-01,6.89377e-01,9.99999e-01
8.579607893e-01,6.94461e-01,9.99999e-01,9.99999e-01,9.99999e-01,6.94461e-01,9.99999e-01
8.622505932e-01,6.99480e-01,9.99999e-01,9.99999e-01,9.99999e-01,6.99480e-01,9.99999e-01
8.665618462e-01,6.60155e-01,9.99999e-01,9.99999e-01,9.37138e-01,7.04436e-01,9.99999e-01
8.708946554e-01,5.33148e-01,9.99999e-01,9.99999e-01,7.51623e-01,7.09328e-01,9.99999e-01
8.752491287e-01,5.68627e-01,9.99999e-01,9.99999e-01,7.96221e-01,7.14156e-01,9.99999e-01
8.796253743e-01,6.34828e-01,9.99999e-01,9.99999e-01,8.83028e-01,7.18921e-01,9.99999e-01
8.840235012e-01,6.78534e-01,9.99999e-01,9.99999e-01,9.37690e-01,7.23622e-01,9.99999e-01
8.884436187e-01,7.10113e-01,9.99999e-01,9.99999e-01,9.75080e-01,7.28261e-01,9.99999e-01
8.928858368e-01,7.25374e-01,9.99999e-01,9.99999e-01,9.89816e-01,7.32837e-01,9.99999e-01
8.973502660e-01,7.35528e-01,9.99999e-01,9.99999e-01,9.97529e-01,7.37350e-01,9.99999e-01
9.018370173e-01,7.41599e-01,9.99999e-01,9.99999e-01,9.99727e-01,7.41801e-01,9.99999e-01
9.063462024e-01,7.40843e-01,9.99999e-01,9.99999e-01,9.92833e-01,7.46190e-01,9.99999e-01
9.108779334e-01,7.38465e-01,9.99999e-01,9.99999e-01,9.83940e-01,7.50518e-01,9.99999e-01
9.154323231e-01,7.51946e-01,9.99999e-01,9.99999e-01,9.96239e-01,7.54784e-01,9.99999e-01
9.200094847e-01,7.16940e-01,9.99999e-01,9.99999e-01,9.44597e-01,7.58990e-01,9.99999e-01
9.246095321e-01,7.04897e-01,9.99999e-01,9.99999e-01,9.23684e-01,7.63136e-01,9.99999e-01
9.292325798e-01,7.20466e-01,9.99999e-01,9.99999e-01,9.39058e-01,7.67221e-01,9.99999e-01
9.338787427e-01,7.26187e-01,9.99999e-01,9.99999e-01,9.41574e-01,7.71248e-01,9.99999e-01
9.385481364e-01,7.41696e-01,9.99999e-01,9.99999e-01,9.56761e-01,7.75215e-01,9.99999e-01
9.432408771e-01,7.58383e-01,9.99999e-01,9.99999e-01,9.73379e-01,7.79123e-01,9.99999e-01
9.479570815e-01,7.72197e-01,9.99999e-01,9.99999e-01,9.86235e-01,7.82974e-01,9.99999e-01
9.526968669e-01,7.81535e-01,9.99999e-01,9.99999e-01,9.93350e-01,7.86767e-01,9.99999e-01
9.574603512e-01,7.88253e-01,9.99999e-01,9.99999e-01,9.97153e-01,7.90503e-01,9.99999e-01
9.622476530e-01,7.93477e-01,9.99999e-01,9.99999e-01,9.99112e-01,7.94182e-01,9.99999e-01
9.670588912e-01,7.97593e-01,9.99999e-01,9.99999e-01,9.99734e-01,7.97805e-01,9.99999e-01
9.718941857e-01,8.01358e-01,9.99999e-01,9.99999e-01,9.99981e-01,8.01373e-01,9.99999e-01
9.767536566e-01,8.04885e-01,9.99999e-01,9.99999e-01,9.99999e-01,8.04885e-01,9.99999e-01
9.816374249e-01,8.08344e-01,9.99999e-01,9.99999e-01,9.99999e-01,8.08344e-01,9.99999e-01
9.865456120e-01,8.11748e-01,9.99999e-01,9.99999e-01,9.99999e-01,8.11748e-01,9.99999e-01
9.914783401e-01,8.15099e-01,9.99999e-01,9.99999e-01,9.99999e-01,8.15099e-01,9.99999e-01
9.964357318e-01,8.18397e-01,9.99999e-01,9.99999e-01,9.99999e-01,8.18397e-01,9.99999e-01
1.001417910e+00,8.21643e-01,9.99999e-01,9.99999e-01,9.99999e-01,8.21643e-01,9.99999e-01
1.006425000e+00,8.24838e-01,9.99999e-01,9.99999e-01,9.99999e-01,8.24838e-01,9.99999e-01
1.011457125e+00,8.27981e-01,9.99999e-01,9.99999e-01,9.99999e-01,8.27981e-01,9.99999e-01
1.016514411e+00,8.31074e-01,9.99999e-01,9.99999e-01,9.99999e-01,8.31074e-01,9.99999e-01
1.021596983e+00,8.34082e-01,9.99999e-01,9.99999e-01,9.99957e-01,8.34117e-01,9.99999e-01
1.026704968e+00,8.34765e-01,9.99999e-01,9.99999e-01,9.97197e-01,8.37111e-01,9.99999e-01
1.031838492e+00,8.08181e-01,9.99999e-01,9.99999e-01,9.62055e-01,8.40056e-01,9.99999e-01
1.036997685e+00,1.69302e-01,9.99999e-01,9.99999e-01,2.00844e-01,8.42953e-01,9.99999e-01
1.042182673e+00,1.73179e-01,9.99999e-01,9.99999e-01,2.04750e-01,8.45802e-01,9.99999e-01
1.047393587e+00,1.78265e-01,9.99999e-01,9.99999e-01,2.10068e-01,8.48605e-01,9.99999e-01
1.052630555e+00,1.15943e-02,9.99999e-01,9.99999e-01,1.36186e-02,8.51361e-01,9.99999e-01
1.057893707e+00,2.59330e-02,9.99999e-01,9.99999e-01,3.03639e-02,8.54071e-01,9.99999e-01
1.063183176e+00,6.62905e-02,9.99999e-01,9.99999e-01,7.73755e-02,8.56736e-01,9.99999e-01
1.068499092e+00,1.49361e-01,9.99999e-01,9.99999e-01,1.73806e-01,8.59357e-01,9.99999e-01
1.073841587e+00,2.86478e-01,9.99999e-01,9.99999e-01,3.32366e-01,8.61934e-01,9.99999e-01
1.079210795e+00,4.30680e-01,9.99999e-01,9.99999e-01,4.98203e-01,8.64467e-01,9.99999e-01
1.084606849e+00,5.92055e-01,9.99999e-01,9.99999e-01,6.82911e-01,8.66958e-01,9.99999e-01
1.090029883e+00,7.13320e-01,9.99999e-01,9.99999e-01,8.20467e-01,8.69406e-01,9.99999e-01
1.095480033e+00,7.90956e-01,9.99999e-01,9.99999e-01,9.07254e-01,8.71812e-01,9.99999e-01
1.100957433e+00,8.34149e-01,9.99999e-01,9.99999e-01,9.54208e-01,8.74178e-01,9.99999e-01
1.106462220e+00,8.59703e-01,9.99999e-01,9.99999e-01,9.80832e-01,8.76503e-01,9.99999e-01
1.111994531e+00,8.72508e-01,9.99999e-01,9.99999e-01,9.92853e-01,8.78788e-01,9.99999e-01
1.117554504e+00,8.79499e-01,9.99999e-01,9.99999e-01,9.98257e-01,8.81034e-01,9.99999e-01
1.123142276e+00,8.83140e-01,9.99999e-01,9.99999e-01,9.99885e-01,8.83241e-01,9.99999e-01
1.128757988e+00,8.85409e-01,9.99999e-01,9.99999e-01,9.99999e-01,8.85409e-01,9.99999e-01
1.134401778e+00,8.87540e-01,9.99999e-01,9.99999e-01,9.99999e-01,8.87540e-01,9.99999e-01
1.140073787e+00,8.89634e-01,9.99999e-01,9.99999e-01,9.99999e-01,8.89634e-01,9.99999e-01
1.145774156e+00,8.91692e-01,9.99999e-01,9.99999e-01,9.99999e-01,8.91692e-01,9.99999e-01
1.151503026e+00,8.93713e-01,9.99999e-01,9.99999e-01,9.99999e-01,8.93713e-01,9.99999e-01
1.157260541e+00,8.95699e-01,9.99999e-01,9.99999e-01,9.99999e-01,8.95699e-01,9.99999e-01
1.163046844e+00,8.97650e-01,9.99999e-01,9.99999e-01,9.99999e-01,8.97650e-01,9.99999e-01
1.168862078e+00,8.99566e-01,9.99999e-01,9.99999e-01,9.99999e-01,8.99566e-01,9.99999e-01
1.174706389e+00,9.01449e-01,9.99999e-01,9.99999e-01,9.99999e-01,9.01449e-01,9.99999e-01
1.180579921e+00,9.03298e-01,9.99999e-01,9.99999e-01,9.99999e-01,9.03298e-01,9.99999e-01
1.186482820e+00,9.05109e-01,9.99999e-01,9.99999e-01,9.99993e-01,9.05115e-01,9.99999e-01
1.192415234e+00,8.97788e-01,9.99999e-01,9.99999e-01,9.89953e-01,9.06899e-01,9.99999e-01
1.198377311e+00,5.17213e-01,9.99999e-01,9.99999e-01,5.69209e-01,9.08651e-01,9.99999e-01
1.204369197e+00,7.91493e-09,9.99999e-01,9.99999e-01,8.69416e-09,9.10372e-01,9.99999e-01
1.210391043e+00,1.63991e-30,9.99999e-01,9.99999e-01,1.79802e-30,9.12062e-01,9.99999e-01
1.216442998e+00,1.23717e-26,9.99999e-01,9.99999e-01,1.35399e-26,9.13722e-01,9.99999e-01
1.222525213e+00,2.94299e-26,9.99999e-01,9.99999e-01,3.21514e-26,9.15352e-01,9.99999e-01
1.228637839e+00,2.62324e-20,9.99999e-01,9.99999e-01,2.86082e-20,9.16952e-01,9.99999e-01
