#,Wave/freq,Total,N2,O2,CO2,Rayleigh,CIA
4.000000000e-01,2.17668e-04,9.99999e-01,9.99999e-01,9.99999e-01,2.17668e-04,9.99999e-01
4.020000000e-01,2.57162e-04,9.99999e-01,9.99999e-01,9.99999e-01,2.57162e-04,9.99999e-01
4.040100000e-01,3.02771e-04,9.99999e-01,9.99999e-01,9.99999e-01,3.02771e-04,9.99999e-01
4.060300500e-01,3.55321e-04,9.99999e-01,9.99999e-01,9.99999e-01,3.55321e-04,9.99999e-01
4.080602003e-01,4.15676e-04,9.99999e-01,9.99999e-01,9.99999e-01,4.15676e-04,9.99999e-01
4.101005013e-01,4.84778e-04,9.99999e-01,9.99999e-01,9.99999e-01,4.84778e-04,9.99999e-01
4.121510038e-01,5.63652e-04,9.99999e-01,9.99999e-01,9.99999e-01,5.63652e-04,9.99999e-01
4.142117588e-01,6.53412e-04,9.99999e-01,9.99999e-01,9.99999e-01,6.53412e-04,9.99999e-01
4.162828176e-01,7.55257e-04,9.99999e-01,9.99999e-01,9.99999e-01,7.55257e-04,9.99999e-01
4.183642317e-01,8.70483e-04,9.99999e-01,9.99999e-01,9.99999e-01,8.70483e-04,9.99999e-01
4.204560528e-01,1.00048e-03,9.99999e-01,9.99999e-01,9.99999e-01,1.00048e-03,9.99999e-01
4.225583331e-01,1.14673e-03,9.99999e-01,9.99999e-01,9.99999e-01,1.14673e-03,9.99999e-01
4.246711247e-01,1.31082e-03,9.99999e-01,9.99999e-01,9.99999e-01,1.31082e-03,9.99999e-01
4.267944804e-01,1.49444e-03,9.99999e-01,9.99999e-01,9.99999e-01,1.49444e-03,9.99999e-01
4.289284528e-01,1.69938e-03,9.99999e-01,9.99999e-01,9.99999e-01,1.69938e-03,9.99999e-01
4.310730950e-01,1.92752e-03,9.99999e-01,9.99999e-01,9.99999e-01,1.92752e-03,9.99999e-01
4.332284605e-01,2.18086e-03,9.99999e-01,9.99999e-01,9.99999e-01,2.18086e-03,9.99999e-01
4.353946028e-01,2.46148e-03,9.99999e-01,9.99999e-01,9.99999e-01,2.46148e-03,9.99999e-01
4.375715758e-01,2.77157e-03,9.99999e-01,9.99999e-01,9.99999e-01,2.77157e-03,9.99999e-01
4.397594337e-01,3.11343e-03,9.99999e-01,9.99999e-01,9.99999e-01,3.11343e-03,9.99999e-01
4.419582309e-01,3.48942e-03,9.99999e-01,9.99999e-01,9.99999e-01,3.48942e-03,9.99999e-01
4.441680220e-01,3.90202e-03,9.99999e-01,9.99999e-01,9.99999e-01,3.90202e-03,9.99999e-01
4.463888621e-01,4.35379e-03,9.99999e-01,9.99999e-01,9.99999e-01,4.35379e-03,9.99999e-01
4.486208064e-01,4.84737e-03,9.99999e-01,9.99999e-01,9.99999e-01,4.84737e-03,9.99999e-01
4.508639105e-01,5.38546e-03,9.99999e-01,9.99999e-01,9.99999e-01,5.38546e-03,9.99999e-01
4.531182300e-01,5.97086e-03,9.99999e-01,9.99999e-01,9.99999e-01,5.97086e-03,9.99999e-01
4.553838212e-01,6.60642e-03,9.99999e-01,9.99999e-01,9.99999e-01,6.60642e-03,9.99999e-01
4.576607403e-01,7.29503e-03,9.99999e-01,9.99999e-01,9.99999e-01,7.29503e-03,9.99999e-01
4.599490440e-01,8.03966e-03,9.99999e-01,9.99999e-01,9.99999e-01,8.03966e-03,9.99999e-01
4.622487892e-01,8.84330e-03,9.99999e-01,9.99999e-01,9.99999e-01,8.84330e-03,9.99999e-01
4.645600332e-01,9.70898e-03,9.99999e-01,9.99999e-01,9.99999e-01,9.70898e-03,9.99999e-01
4.668828333e-01,1.06398e-02,9.99999e-01,9.99999e-01,9.99999e-01,1.06398e-02,9.99999e-01
4.692172475e-01,1.16387e-02,9.99999e-01,9.99999e-01,9.99999e-01,1.16387e-02,9.99999e-01
4.715633337e-01,1.27089e-02,9.99999e-01,9.99999e-01,9.99999e-01,1.27089e-02,9.99999e-01
4.739211504e-01,1.38534e-02,9.99999e-01,9.99999e-01,9.99999e-01,1.38534e-02,9.99999e-01
4.762907561e-01,1.50753e-02,9.99999e-01,9.99999e-01,9.99999e-01,1.50753e-02,9.99999e-01
4.786722099e-01,1.63776e-02,9.99999e-01,9.99999e-01,9.99999e-01,1.63776e-02,9.99999e-01
4.810655710e-01,1.77632e-02,9.99999e-01,9.99999e-01,9.99999e-01,1.77632e-02,9.99999e-01
4.834708988e-01,1.92353e-02,9.99999e-01,9.99999e-01,9.99999e-01,1.92353e-02,9.99999e-01
4.858882533e-01,2.07966e-02,9.99999e-01,9.99999e-01,9.99999e-01,2.07966e-02,9.99999e-01
4.883176946e-01,2.24500e-02,9.99999e-01,9.99999e-01,9.99999e-01,2.24500e-02,9.99999e-01
4.907592831e-01,2.41982e-02,9.99999e-01,9.99999e-01,9.99999e-01,2.41982e-02,9.99999e-01
4.932130795e-01,2.60440e-02,9.99999e-01,9.99999e-01,9.99999e-01,2.60440e-02,9.99999e-01
4.956791449e-01,2.79899e-02,9.99999e-01,9.99999e-01,9.99999e-01,2.79899e-02,9.99999e-01
4.981575406e-01,3.00384e-02,9.99999e-01,9.99999e-01,9.99999e-01,3.00384e-02,9.99999e-01
5.006483283e-01,3.21919e-02,9.99999e-01,9.99999e-01,9.99999e-01,3.21919e-02,9.99999e-01
5.031515699e-01,3.44526e-02,9.99999e-01,9.99999e-01,9.99999e-01,3.44526e-02,9.99999e-01
5.056673278e-01,3.68227e-02,9.99999e-01,9.99999e-01,9.99999e-01,3.68227e-02,9.99999e-01
5.081956644e-01,3.93041e-02,9.99999e-01,9.99999e-01,9.99999e-01,3.93041e-02,9.99999e-01
5.107366428e-01,4.18988e-02,9.99999e-01,9.99999e-01,9.99999e-01,4.18988e-02,9.99999e-01
5.132903260e-01,4.46084e-02,9.99999e-01,9.99999e-01,9.99999e-01,4.46084e-02,9.99999e-01
5.158567776e-01,4.74345e-02,9.99999e-01,9.99999e-01,9.99999e-01,4.74345e-02,9.99999e-01
5.184360615e-01,5.03784e-02,9.99999e-01,9.99999e-01,9.99999e-01,5.03784e-02,9.99999e-01
5.210282418e-01,5.34414e-02,9.99999e-01,9.99999e-01,9.99999e-01,5.34414e-02,9.99999e-01
5.236333830e-01,5.66247e-02,9.99999e-01,9.99999e-01,9.99999e-01,5.66247e-02,9.99999e-01
5.262515499e-01,5.99290e-02,9.99999e-01,9.99999e-01,9.99999e-01,5.99290e-02,9.99999e-01
5.288828077e-01,6.33551e-02,9.99999e-01,9.99999e-01,9.99999e-01,6.33551e-02,9.99999e-01
5.315272217e-01,6.69036e-02,9.99999e-01,9.99999e-01,9.99999e-01,6.69036e-02,9.99999e-01
5.341848578e-01,7.05748e-02,9.99999e-01,9.99999e-01,9.99999e-01,7.05748e-02,9.99999e-01
5.368557821e-01,7.43690e-02,9.99999e-01,9.99999e-01,9.99999e-01,7.43690e-02,9.99999e-01
5.395400610e-01,7.82861e-02,9.99999e-01,9.99999e-01,9.99999e-01,7.82861e-02,9.99999e-01
5.422377613e-01,8.23260e-02,9.99999e-01,9.99999e-01,9.99999e-01,8.23260e-02,9.99999e-01
5.449489501e-01,8.64884e-02,9.99999e-01,9.99999e-01,9.99999e-01,8.64884e-02,9.99999e-01
5.476736949e-01,9.07728e-02,9.99999e-01,9.99999e-01,9.99999e-01,9.07728e-02,9.99999e-01
5.504120634e-01,9.51784e-02,9.99999e-01,9.99999e-01,9.99999e-01,9.51784e-02,9.99999e-01
5.531641237e-01,9.97045e-02,9.99999e-01,9.99999e-01,9.99999e-01,9.97045e-02,9.99999e-01
5.559299443e-01,1.04350e-01,9.99999e-01,9.99999e-01,9.99999e-01,1.04350e-01,9.99999e-01
5.587095940e-01,1.09114e-01,9.99999e-01,9.99999e-01,9.99999e-01,1.09114e-01,9.99999e-01
5.615031420e-01,1.13995e-01,9.99999e-01,9.99999e-01,9.99999e-01,1.13995e-01,9.99999e-01
5.643106577e-01,1.18991e-01,9.99999e-01,9.99999e-01,9.99999e-01,1.18991e-01,9.99999e-01
5.671322110e-01,1.24101e-01,9.99999e-01,9.99999e-01,9.99999e-01,1.24101e-01,9.99999e-01
5.699678720e-01,1.29323e-01,9.99999e-01,9.99999e-01,9.99999e-01,1.29323e-01,9.99999e-01
5.728177114e-01,1.34654e-01,9.99999e-01,9.99999e-01,9.99999e-01,1.34654e-01,9.99999e-01
5.756818000e-01,1.40094e-01,9.99999e-01,9.99999e-01,9.99999e-01,1.40094e-01,9.99999e-01
5.785602090e-01,1.45640e-01,9.99999e-01,9.99999e-01,9.99999e-01,1.45640e-01,9.99999e-01
5.814530100e-01,1.51289e-01,9.99999e-01,9.99999e-01,9.99999e-01,1.51289e-01,9.99999e-01
5.843602750e-01,1.57040e-01,9.99999e-01,9.99999e-01,9.99999e-01,1.57040e-01,9.99999e-01
5.872820764e-01,1.62888e-01,9.99999e-01,9.99999e-01,9.99999e-01,1.62888e-01,9.99999e-01
5.902184868e-01,1.68833e-01,9.99999e-01,9.99999e-01,9.99999e-01,1.68833e-01,9.99999e-01
5.931695792e-01,1.74871e-01,9.99999e-01,9.99999e-01,9.99999e-01,1.74871e-01,9.99999e-01
5.961354271e-01,1.80998e-01,9.99999e-01,9.99999e-01,9.99999e-01,1.80998e-01,9.99999e-01
5.991161043e-01,1.87214e-01,9.99999e-01,9.99999e-01,9.99999e-01,1.87214e-01,9.99999e-01
6.021116848e-01,1.93513e-01,9.99999e-01,9.99999e-01,9.99999e-01,1.93513e-01,9.99999e-01
6.051222432e-01,1.99894e-01,9.99999e-01,9.99999e-01,9.99999e-01,1.99894e-01,9.99999e-01
6.081478544e-01,2.06353e-01,9.99999e-01,9.99999e-01,9.99999e-01,2.06353e-01,9.99999e-01
6.111885937e-01,2.12887e-01,9.99999e-01,9.99999e-01,9.99999e-01,2.12887e-01,9.99999e-01
6.142445367e-01,2.19493e-01,9.99999e-01,9.99999e-01,9.99999e-01,2.19493e-01,9.99999e-01
6.173157594e-01,2.26167e-01,9.99999e-01,9.99999e-01,9.99999e-01,2.26167e-01,9.99999e-01
6.204023382e-01,2.32906e-01,9.99999e-01,9.99999e-01,9.99999e-01,2.32906e-01,9.99999e-01
6.235043498e-01,2.39706e-01,9.99999e-01,9.99999e-01,9.99999e-01,2.39706e-01,9.99999e-01
6.266218716e-01,2.46566e-01,9.99999e-01,9.99999e-01,9.99999e-01,2.46566e-01,9.99999e-01
6.297549810e-01,2.53480e-01,9.99999e-01,9.99999e-01,9.99999e-01,2.53480e-01,9.99999e-01
6.329037559e-01,2.60446e-01,9.99999e-01,9.99999e-01,9.99999e-01,2.60446e-01,9.99999e-01
6.360682746e-01,2.67460e-01,9.99999e-01,9.99999e-01,9.99999e-01,2.67460e-01,9.99999e-01
6.392486160e-01,2.74518e-01,9.99999e-01,9.99999e-01,9.99999e-01,2.74518e-01,9.99999e-01
6.424448591e-01,2.81618e-01,9.99999e-01,9.99999e-01,9.99999e-01,2.81618e-01,9.99999e-01
6.456570834e-01,2.88756e-01,9.99999e-01,9.99999e-01,9.99999e-01,2.88756e-01,9.99999e-01
6.488853688e-01,2.95929e-01,9.99999e-01,9.99999e-01,9.99999e-01,2.95929e-01,9.99999e-01
6.521297956e-01,3.03132e-01,9.99999e-01,9.99999e-01,9.99999e-01,3.03132e-01,9.99999e-01
6.553904446e-01,3.10364e-01,9.99999e-01,9.99999e-01,9.99999e-01,3.10364e-01,9.99999e-01
6.586673968e-01,3.17620e-01,9.99999e-01,9.99999e-01,9.99999e-01,3.17620e-01,9.99999e-01
6.619607338e-01,3.24898e-01,9.99999e-01,9.99999e-01,9.99999e-01,3.24898e-01,9.99999e-01
6.652705375e-01,3.32193e-01,9.99999e-01,9.99999e-01,9.99999e-01,3.32193e-01,9.99999e-01
6.685968902e-01,3.39504e-01,9.99999e-01,9.99999e-01,9.99999e-01,3.39504e-01,9.99999e-01
6.719398746e-01,3.46826e-01,9.99999e-01,9.99999e-01,9.99999e-01,3.46826e-01,9.99999e-01
6.752995740e-01,3.54157e-01,9.99999e-01,9.99999e-01,9.99999e-01,3.54157e-01,9.99999e-01
6.786760719e-01,3.61493e-01,9.99999e-01,9.99999e-01,9.99999e-01,3.61493e-01,9.99999e-01
6.820694522e-01,3.68832e-01,9.99999e-01,9.99999e-01,9.99999e-01,3.68832e-01,9.99999e-01
6.854797995e-01,3.76171e-01,9.99999e-01,9.99999e-01,9.99999e-01,3.76171e-01,9.99999e-01
6.889071985e-01,3.83506e-01,9.99999e-01,9.99999e-01,9.99999e-01,3.83506e-01,9.99999e-01
6.923517345e-01,3.90835e-01,9.99999e-01,9.99999e-01,9.99999e-01,3.90835e-01,9.99999e-01
6.958134932e-01,3.98156e-01,9.99999e-01,9.99999e-01,9.99999e-01,3.98156e-01,9.99999e-01
6.992925606e-01,4.05464e-01,9.99999e-01,9.99999e-01,9.99999e-01,4.05464e-01,9.99999e-01
7.027890234e-01,4.12759e-01,9.99999e-01,9.99999e-01,9.99999e-01,4.12759e-01,9.99999e-01
7.063029686e-01,4.20037e-01,9.99999e-01,9.99999e-01,9.99999e-01,4.20037e-01,9.99999e-01
7.098344834e-01,4.27296e-01,9.99999e-01,9.99999e-01,9.99999e-01,4.27296e-01,9.99999e-01
7.133836558e-01,4.34533e-01,9.99999e-01,9.99999e-01,9.99999e-01,4.34533e-01,9.99999e-01
7.169505741e-01,4.41746e-01,9.99999e-01,9.99999e-01,9.99999e-01,4.41746e-01,9.99999e-01
7.205353270e-01,4.48933e-01,9.99999e-01,9.99999e-01,9.99999e-01,4.48933e-01,9.99999e-01
7.241380036e-01,4.56091e-01,9.99999e-01,9.99999e-01,9.99999e-01,4.56091e-01,9.99999e-01
7.277586936e-01,4.63219e-01,9.99999e-01,9.99999e-01,9.99999e-01,4.63219e-01,9.99999e-01
7.313974871e-01,4.70314e-01,9.99999e-01,9.99999e-01,9.99999e-01,4.70314e-01,9.99999e-01
7.350544745e-01,4.77374e-01,9.99999e-01,9.99999e-01,9.99999e-01,4.77374e-01,9.99999e-01
7.387297469e-01,4.84398e-01,9.99999e-01,9.99999e-01,9.99999e-01,4.84398e-01,9.99999e-01
7.424233956e-01,4.91383e-01,9.99999e-01,9.99999e-01,9.99999e-01,4.91383e-01,9.99999e-01
7.461355126e-01,4.98328e-01,9.99999e-01,9.99999e-01,9.99999e-01,4.98328e-01,9.99999e-01
7.498661902e-01,5.05231e-01,9.99999e-01,9.99999e-01,9.99999e-01,5.05231e-01,9.99999e-01
7.536155211e-01,5.12091e-01,9.99999e-01,9.99999e-01,9.99999e-01,5.12091e-01,9.99999e-01
7.573835987e-01,5.18905e-01,9.99999e-01,9.99999e-01,9.99999e-01,5.18905e-01,9.99999e-01
7.611705167e-01,5.25673e-01,9.99999e-01,9.99999e-01,9.99999e-01,5.25673e-01,9.99999e-01
7.649763693e-01,5.32393e-01,9.99999e-01,9.99999e-01,9.99999e-01,5.32393e-01,9.99999e-01
7.688012511e-01,5.39063e-01,9.99999e-01,9.99999e-01,9.99999e-01,5.39063e-01,9.99999e-01
7.726452574e-01,5.45683e-01,9.99999e-01,9.99999e-01,9.99999e-01,5.45683e-01,9.99999e-01
7.765084837e-01,5.52251e-01,9.99999e-01,9.99999e-01,9.99999e-01,5.52251e-01,9.99999e-01
7.803910261e-01,5.43141e-01,9.99999e-01,9.99999e-01,9.72035e-01,5.58766e-01,9.99999e-01
7.842929812e-01,5.00597e-01,9.99999e-01,9.99999e-01,8.85655e-01,5.65227e-01,9.99999e-01
7.882144461e-01,5.01672e-01,9.99999e-01,9.99999e-01,8.77612e-01,5.71633e-01,9.99999e-01
7.921555184e-01,5.35851e-01,9.99999e-01,9.99999e-01,9.27105e-01,5.77983e-01,9.99999e-01
7.961162960e-01,5.55527e-01,9.99999e-01,9.99999e-01,9.50796e-01,5.84275e-01,9.99999e-01
8.000968774e-01,5.74572e-01,9.99999e-01,9.99999e-01,9.73009e-01,5.90510e-01,9.99999e-01
8.040973618e-01,5.88306e-01,9.99999e-01,9.99999e-01,9.85954e-01,5.96686e-01,9.99999e-01
8.081178486e-01,5.98897e-01,9.99999e-01,9.99999e-01,9.93518e-01,6.02803e-01,9.99999e-01
8.121584379e-01,6.07644e-01,9.99999e-01,9.99999e-01,9.98001e-01,6.08860e-01,9.99999e-01
8.162192301e-01,6.14586e-01,9.99999e-01,9.99999e-01,9.99558e-01,6.14857e-01,9.99999e-01
8.203003262e-01,6.20788e-01,9.99999e-01,9.99999e-01,9.99993e-01,6.20792e-01,9.99999e-01
8.244018279e-01,6.26666e-01,9.99999e-01,9.99999e-01,9.99999e-01,6.26666e-01,9.99999e-01
8.285238370e-01,6.32478e-01,9.99999e-01,9.99999e-01,9.99999e-01,6.32478e-01,9.99999e-01
8.326664562e-01,6.38227e-01,9.99999e-01,9.99999e-01,9.99999e-01,6.38227e-01,9.99999e-01
8.368297885e-01,6.43913e-01,9.99999e-01,9.99999e-01,9.99999e-01,6.43913e-01,9.99999e-01
8.410139374e-01,6.49536e-01,9.99999e-01,9.99999e-01,9.99999e-01,6.49536e-01,9.99999e-01
8.452190071e-01,6.55096e-01,9.99999e-01,9.99999e-01,9.99999e-01,6.55096e-01,9.99999e-01
8.494451021e-01,6.60592e-01,9.99999e-01,9.99999e-01,9.99999e-01,6.60592e-01,9.99999e-01
8.536923276e-01,6.66024e-01,9.99999e-01,9.99999e-01,9.99999e-01,6.66024e-01,9.99999e-01
8.579607893e-01,6.71393e-01,9.99999e-01,9.99999e-01,9.99999e-01,6.71393e-01,9.99999e-01
8.622505932e-01,6.76697e-01,9.99999e-01,9.99999e-01,9.99999e-01,6.76697e-01,9.99999e-01
8.665618462e-01,6.37119e-01,9.99999e-01,9.99999e-01,9.34277e-01,6.81937e-01,9.99999e-01
8.708946554e-01,5.03589e-01,9.99999e-01,9.99999e-01,7.32905e-01,6.87113e-01,9.99999e-01
8.752491287e-01,5.39755e-01,9.99999e-01,9.99999e-01,7.79739e-01,6.92225e-01,9.99999e-01
8.796253743e-01,6.08577e-01,9.99999e-01,9.99999e-01,8.72795e-01,6.97273e-01,9.99999e-01
8.840235012e-01,6.54511e-01,9.99999e-01,9.99999e-01,9.32010e-01,7.02257e-01,9.99999e-01
8.884436187e-01,6.87867e-01,9.99999e-01,9.99999e-01,9.72693e-01,7.07177e-01,9.99999e-01
8.928858368e-01,7.04092e-01,9.99999e-01,9.99999e-01,9.88847e-01,7.12033e-01,9.99999e-01
8.973502660e-01,7.14882e-01,9.99999e-01,9.99999e-01,9.97287e-01,7.16826e-01,9.99999e-01
9.018370173e-01,7.21340e-01,9.99999e-01,9.99999e-01,9.99700e-01,7.21555e-01,9.99999e-01
9.063462024e-01,7.20582e-01,9.99999e-01,9.99999e-01,9.92233e-01,7.26222e-01,9.99999e-01
9.108779334e-01,7.17990e-01,9.99999e-01,9.99999e-01,9.82436e-01,7.30825e-01,9.99999e-01
9.154323231e-01,7.32327e-01,9.99999e-01,9.99999e-01,9.95867e-01,7.35366e-01,9.99999e-01
9.200094847e-01,6.95587e-01,9.99999e-01,9.99999e-01,9.40180e-01,7.39844e-01,9.99999e-01
9.246095321e-01,6.82364e-01,9.99999e-01,9.99999e-01,9.16834e-01,7.44261e-01,9.99999e-01
9.292325798e-01,6.99091e-01,9.99999e-01,9.99999e-01,9.33845e-01,7.48616e-01,9.99999e-01
9.338787427e-01,7.04944e-01,9.99999e-01,9.99999e-01,9.36293e-01,7.52909e-01,9.99999e-01
9.385481364e-01,7.21417e-01,9.99999e-01,9.99999e-01,9.52816e-01,7.57142e-01,9.99999e-01
9.432408771e-01,7.39156e-01,9.99999e-01,9.99999e-01,9.70895e-01,7.61314e-01,9.99999e-01
9.479570815e-01,7.53908e-01,9.99999e-01,9.99999e-01,9.84951e-01,7.65426e-01,9.99999e-01
9.526968669e-01,7.63879e-01,9.99999e-01,9.99999e-01,9.92722e-01,7.69478e-01,9.99999e-01
9.574603512e-01,7.71061e-01,9.99999e-01,9.99999e-01,9.96883e-01,7.73471e-01,9.99999e-01
9.622476530e-01,7.76650e-01,9.99999e-01,9.99999e-01,9.99027e-01,7.77406e-01,9.99999e-01
9.670588912e-01,7.81054e-01,9.99999e-01,9.99999e-01,9.99708e-01,7.81282e-01,9.99999e-01
9.718941857e-01,7.85084e-01,9.99999e-01,9.99999e-01,9.99979e-01,7.85100e-01,9.99999e-01
9.767536566e-01,7.88861e-01,9.99999e-01,9.99999e-01,9.99999e-01,7.88861e-01,9.99999e-01
9.816374249e-01,7.92565e-01,9.99999e-01,9.99999e-01,9.99999e-01,7.92565e-01,9.99999e-01
9.865456120e-01,7.96213e-01,9.99999e-01,9.99999e-01,9.99999e-01,7.96213e-01,9.99999e-01
9.914783401e-01,7.99805e-01,9.99999e-01,9.99999e-01,9.99999e-01,7.99805e-01,9.99999e-01
9.964357318e-01,8.03342e-01,9.99999e-01,9.99999e-01,9.99999e-01,8.03342e-01,9.99999e-01
1.001417910e+00,8.06824e-01,9.99999e-01,9.99999e-01,9.99999e-01,8.06824e-01,9.99999e-01
1.006425000e+00,8.10252e-01,9.99999e-01,9.99999e-01,9.99999e-01,8.10252e-01,9.99999e-01
1.011457125e+00,8.13627e-01,9.99999e-01,9.99999e-01,9.99999e-01,8.13627e-01,9.99999e-01
1.016514411e+00,8.16948e-01,9.99999e-01,9.99999e-01,9.99999e-01,8.16948e-01,9.99999e-01
1.021596983e+00,8.20182e-01,9.99999e-01,9.99999e-01,9.99956e-01,8.20217e-01,9.99999e-01
1.026704968e+00,8.20937e-01,9.99999e-01,9.99999e-01,9.96966e-01,8.23434e-01,9.99999e-01
1.031838492e+00,7.94229e-01,9.99999e-01,9.99999e-01,9.60837e-01,8.26600e-01,9.99999e-01
1.036997685e+00,1.54503e-01,9.99999e-01,9.99999e-01,1.86212e-01,8.29715e-01,9.99999e-01
1.042182673e+00,1.48436e-01,9.99999e-01,9.99999e-01,1.78241e-01,8.32780e-01,9.99999e-01
1.047393587e+00,1.58801e-01,9.99999e-01,9.99999e-01,1.89999e-01,8.35796e-01,9.99999e-01
1.052630555e+00,8.27382e-03,9.99999e-01,9.99999e-01,9.86431e-03,8.38762e-01,9.99999e-01
1.057893707e+00,1.91393e-02,9.99999e-01,9.99999e-01,2.27394e-02,8.41680e-01,9.99999e-01
1.063183176e+00,5.25969e-02,9.99999e-01,9.99999e-01,6.22779e-02,8.44551e-01,9.99999e-01
1.068499092e+00,1.25975e-01,9.99999e-01,9.99999e-01,1.48665e-01,8.47374e-01,9.99999e-01
1.073841587e+00,2.55562e-01,9.99999e-01,9.99999e-01,3.00608e-01,8.50150e-01,9.99999e-01
1.079210795e+00,3.98678e-01,9.99999e-01,9.99999e-01,4.67448e-01,8.52881e-01,9.99999e-01
1.084606849e+00,5.63834e-01,9.99999e-01,9.99999e-01,6.59018e-01,8.55566e-01,9.99999e-01
1.090029883e+00,6.91249e-01,9.99999e-01,9.99999e-01,8.05458e-01,8.58206e-01,9.99999e-01
1.095480033e+00,7.73846e-01,9.99999e-01,9.99999e-01,8.98981e-01,8.60802e-01,9.99999e-01
1.100957433e+00,8.20197e-01,9.99999e-01,9.99999e-01,9.50010e-01,8.63355e-01,9.99999e-01
1.106462220e+00,8.47710e-01,9.99999e-01,9.99999e-01,9.79033e-01,8.65864e-01,9.99999e-01
1.111994531e+00,8.61539e-01,9.99999e-01,9.99999e-01,9.92178e-01,8.68331e-01,9.99999e-01
1.117554504e+00,8.69092e-01,9.99999e-01,9.99999e-01,9.98088e-01,8.70755e-01,9.99999e-01
1.123142276e+00,8.73030e-01,9.99999e-01,9.99999e-01,9.99874e-01,8.73139e-01,9.99999e-01
1.128757988e+00,8.75482e-01,9.99999e-01,9.99999e-01,9.99999e-01,8.75482e-01,9.99999e-01
1.134401778e+00,8.77784e-01,9.99999e-01,9.99999e-01,9.99999e-01,8.77784e-01,9.99999e-01
1.140073787e+00,8.80047e-01,9.99999e-01,9.99999e-01,9.99999e-01,8.80047e-01,9.99999e-01
1.145774156e+00,8.82271e-01,9.99999e-01,9.99999e-01,9.99999e-01,8.82271e-01,9.99999e-01
1.151503026e+00,8.84457e-01,9.99999e-01,9.99999e-01,9.99999e-01,8.84457e-01,9.99999e-01
1.157260541e+00,8.86605e-01,9.99999e-01,9.99999e-01,9.99999e-01,8.86605e-01,9.99999e-01
1.163046844e+00,8.88715e-01,9.99999e-01,9.99999e-01,9.99999e-01,8.88715e-01,9.99999e-01
1.168862078e+00,8.90788e-01,9.99999e-01,9.99999e-01,9.99999e-01,8.90788e-01,9.99999e-01
1.174706389e+00,8.92825e-01,9.99999e-01,9.99999e-01,9.99999e-01,8.92825e-01,9.99999e-01
1.180579921e+00,8.94827e-01,9.99999e-01,9.99999e-01,9.99999e-01,8.94827e-01,9.99999e-01
1.186482820e+00,8.96788e-01,9.99999e-01,9.99999e-01,9.99993e-01,8.96793e-01,9.99999e-01
1.192415234e+00,8.88981e-01,9.99999e-01,9.99999e-01,9.89157e-01,8.98725e-01,9.99999e-01
1.198377311e+00,5.10729e-01,9.99999e-01,9.99999e-01,5.67084e-01,9.00622e-01,9.99999e-01
1.204369197e+00,1.94736e-09,9.99999e-01,9.99999e-01,2.15777e-09,9.02486e-01,9.99999e-01
1.210391043e+00,3.96879e-33,9.99999e-01,9.99999e-01,4.38871e-33,9.04317e-01,9.99999e-01
1.216442998e+00,6.84006e-29,9.99999e-01,9.99999e-01,7.54877e-29,9.06115e-01,9.99999e-01
1.222525213e+00,1.75825e-28,9.99999e-01,9.99999e-01,1.93665e-28,9.07882e-01,9.99999e-01
1.228637839e+00,4.84643e-22,9.99999e-01,9.99999e-01,5.32799e-22,9.09616e-01,9.99999e-01
