#,Wave/freq,Total,N2,O2,CO2,Rayleigh,CIA
4.000000000e-01,4.68899e-08,9.99999e-01,9.99999e-01,9.99999e-01,4.68899e-08,9.99999e-01
4.020000000e-01,6.54631e-08,9.99999e-01,9.99999e-01,9.99999e-01,6.54631e-08,9.99999e-01
4.040100000e-01,9.07608e-08,9.99999e-01,9.99999e-01,9.99999e-01,9.07608e-08,9.99999e-01
4.060300500e-01,1.25025e-07,9.99999e-01,9.99999e-01,9.99999e-01,1.25025e-07,9.99999e-01
4.080602003e-01,1.71139e-07,9.99999e-01,9.99999e-01,9.99999e-01,1.71139e-07,9.99999e-01
4.101005013e-01,2.32813e-07,9.99999e-01,9.99999e-01,9.99999e-01,2.32813e-07,9.99999e-01
4.121510038e-01,3.14793e-07,9.99999e-01,9.99999e-01,9.99999e-01,3.14793e-07,9.99999e-01
4.142117588e-01,4.23112e-07,9.99999e-01,9.99999e-01,9.99999e-01,4.23112e-07,9.99999e-01
4.162828176e-01,5.65390e-07,9.99999e-01,9.99999e-01,9.99999e-01,5.65390e-07,9.99999e-01
4.183642317e-01,7.51199e-07,9.99999e-01,9.99999e-01,9.99999e-01,7.51199e-07,9.99999e-01
4.204560528e-01,9.92485e-07,9.99999e-01,9.99999e-01,9.99999e-01,9.92485e-07,9.99999e-01
4.225583331e-01,1.30408e-06,9.99999e-01,9.99999e-01,9.99999e-01,1.30408e-06,9.99999e-01
4.246711247e-01,1.70428e-06,9.99999e-01,9.99999e-01,9.99999e-01,1.70428e-06,9.99999e-01
4.267944804e-01,2.21555e-06,9.99999e-01,9.99999e-01,9.99999e-01,2.21555e-06,9.99999e-01
4.289284528e-01,2.86532e-06,9.99999e-01,9.99999e-01,9.99999e-01,2.86532e-06,9.99999e-01
4.310730950e-01,3.68687e-06,9.99999e-01,9.99999e-01,9.99999e-01,3.68687e-06,9.99999e-01
4.332284605e-01,4.72041e-06,9.99999e-01,9.99999e-01,9.99999e-01,4.72041e-06,9.99999e-01
4.353946028e-01,6.01425e-06,9.99999e-01,9.99999e-01,9.99999e-01,6.01425e-06,9.99999e-01
4.375715758e-01,7.62616e-06,9.99999e-01,9.99999e-01,9.99999e-01,7.62616e-06,9.99999e-01
4.397594337e-01,9.62482e-06,9.99999e-01,9.99999e-01,9.99999e-01,9.62482e-06,9.99999e-01
4.419582309e-01,1.20916e-05,9.99999e-01,9.99999e-01,9.99999e-01,1.20916e-05,9.99999e-01
4.441680220e-01,1.51222e-05,9.99999e-01,9.99999e-01,9.99999e-01,1.51222e-05,9.99999e-01
4.463888621e-01,1.88292e-05,9.99999e-01,9.99999e-01,9.99999e-01,1.88292e-05,9.99999e-01
4.486208064e-01,2.33434e-05,9.99999e-01,9.99999e-01,9.99999e-01,2.33434e-05,9.99999e-01
4.508639105e-01,2.88174e-05,9.99999e-01,9.99999e-01,9.99999e-01,2.88174e-05,9.99999e-01
4.531182300e-01,3.54273e-05,9.99999e-01,9.99999e-01,9.99999e-01,3.54273e-05,9.99999e-01
4.553838212e-01,4.33760e-05,9.99999e-01,9.99999e-01,9.99999e-01,4.33760e-05,9.99999e-01
4.576607403e-01,5.28962e-05,9.99999e-01,9.99999e-01,9.99999e-01,5.28962e-05,9.99999e-01
4.599490440e-01,6.42536e-05,9.99999e-01,9.99999e-01,9.99999e-01,6.42536e-05,9.99999e-01
4.622487892e-01,7.77503e-05,9.99999e-01,9.99999e-01,9.99999e-01,7.77503e-05,9.99999e-01
4.645600332e-01,9.37283e-05,9.99999e-01,9.99999e-01,9.99999e-01,9.37283e-05,9.99999e-01
4.668828333e-01,1.12574e-04,9.99999e-01,9.99999e-01,9.99999e-01,1.12574e-04,9.99999e-01
4.692172475e-01,1.34719e-04,9.99999e-01,9.99999e-01,9.99999e-01,1.34719e-04,9.99999e-01
4.715633337e-01,1.60651e-04,9.99999e-01,9.99999e-01,9.99999e-01,1.60651e-04,9.99999e-01
4.739211504e-01,1.90909e-04,9.99999e-01,9.99999e-01,9.99999e-01,1.90909e-04,9.99999e-01
4.762907561e-01,2.26094e-04,9.99999e-01,9.99999e-01,9.99999e-01,2.26094e-04,9.99999e-01
4.786722099e-01,2.66871e-04,9.99999e-01,9.99999e-01,9.99999e-01,2.66871e-04,9.99999e-01
4.810655710e-01,3.13972e-04,9.99999e-01,9.99999e-01,9.99999e-01,3.13972e-04,9.99999e-01
4.834708988e-01,3.68202e-04,9.99999e-01,9.99999e-01,9.99999e-01,3.68202e-04,9.99999e-01
4.858882533e-01,4.30442e-04,9.99999e-01,9.99999e-01,9.99999e-01,4.30442e-04,9.99999e-01
4.883176946e-01,5.01652e-04,9.99999e-01,9.99999e-01,9.99999e-01,5.01652e-04,9.99999e-01
4.907592831e-01,5.82878e-04,9.99999e-01,9.99999e-01,9.99999e-01,5.82878e-04,9.99999e-01
4.932130795e-01,6.75252e-04,9.99999e-01,9.99999e-01,9.99999e-01,6.75252e-04,9.99999e-01
4.956791449e-01,7.79995e-04,9.99999e-01,9.99999e-01,9.99999e-01,7.79995e-04,9.99999e-01
4.981575406e-01,8.98423e-04,9.99999e-01,9.99999e-01,9.99999e-01,8.98423e-04,9.99999e-01
5.006483283e-01,1.03195e-03,9.99999e-01,9.99999e-01,9.99999e-01,1.03195e-03,9.99999e-01
5.031515699e-01,1.18207e-03,9.99999e-01,9.99999e-01,9.99999e-01,1.18207e-03,9.99999e-01
5.056673278e-01,1.35041e-03,9.99999e-01,9.99999e-01,9.99999e-01,1.35041e-03,9.99999e-01
5.081956644e-01,1.53868e-03,9.99999e-01,9.99999e-01,9.99999e-01,1.53868e-03,9.99999e-01
5.107366428e-01,1.74867e-03,9.99999e-01,9.99999e-01,9.99999e-01,1.74867e-03,9.99999e-01
5.132903260e-01,1.98231e-03,9.99999e-01,9.99999e-01,9.99999e-01,1.98231e-03,9.99999e-01
5.158567776e-01,2.24161e-03,9.99999e-01,9.99999e-01,9.99999e-01,2.24161e-03,9.99999e-01
5.184360615e-01,2.52867e-03,9.99999e-01,9.99999e-01,9.99999e-01,2.52867e-03,9.99999e-01
5.210282418e-01,2.84572e-03,9.99999e-01,9.99999e-01,9.99999e-01,2.84572e-03,9.99999e-01
5.236333830e-01,3.19505e-03,9.99999e-01,9.99999e-01,9.99999e-01,3.19505e-03,9.99999e-01
5.262515499e-01,3.57907e-03,9.99999e-01,9.99999e-01,9.99999e-01,3.57907e-03,9.99999e-01
5.288828077e-01,4.00027e-03,9.99999e-01,9.99999e-01,9.99999e-01,4.00027e-03,9.99999e-01
5.315272217e-01,4.46122e-03,9.99999e-01,9.99999e-01,9.99999e-01,4.46122e-03,9.99999e-01
5.341848578e-01,4.96459e-03,9.99999e-01,9.99999e-01,9.99999e-01,4.96459e-03,9.99999e-01
5.368557821e-01,5.51309e-03,9.99999e-01,9.99999e-01,9.99999e-01,5.51309e-03,9.99999e-01
5.395400610e-01,6.10954e-03,9.99999e-01,9.99999e-01,9.99999e-01,6.10954e-03,9.99999e-01
5.422377613e-01,6.75678e-03,9.99999e-01,9.99999e-01,9.99999e-01,6.75678e-03,9.99999e-01
5.449489501e-01,7.45775e-03,9.99999e-01,9.99999e-01,9.99999e-01,7.45775e-03,9.99999e-01
5.476736949e-01,8.21541e-03,9.99999e-01,9.99999e-01,9.99999e-01,8.21541e-03,9.99999e-01
5.504120634e-01,9.03276e-03,9.99999e-01,9.99999e-01,9.99999e-01,9.03276e-03,9.99999e-01
5.531641237e-01,9.91284e-03,9.99999e-01,9.99999e-01,9.99999e-01,9.91284e-03,9.99999e-01
5.559299443e-01,1.08587e-02,9.99999e-01,9.99999e-01,9.99999e-01,1.08587e-02,9.99999e-01
5.587095940e-01,1.18734e-02,9.99999e-01,9.99999e-01,9.99999e-01,1.18734e-02,9.99999e-01
5.615031420e-01,1.29601e-02,9.99999e-01,9.99999e-01,9.99999e-01,1.29601e-02,9.99999e-01
5.643106577e-01,1.41218e-02,9.99999e-01,9.99999e-01,9.99999e-01,1.41218e-02,9.99999e-01
5.671322110e-01,1.53615e-02,9.99999e-01,9.99999e-01,9.99999e-01,1.53615e-02,9.99999e-01
5.699678720e-01,1.66823e-02,9.99999e-01,9.99999e-01,9.99999e-01,1.66823e-02,9.99999e-01
5.728177114e-01,1.80872e-02,9.99999e-01,9.99999e-01,9.99999e-01,1.80872e-02,9.99999e-01
5.756818000e-01,1.95791e-02,9.99999e-01,9.99999e-01,9.99999e-01,1.95791e-02,9.99999e-01
5.785602090e-01,2.11608e-02,9.99999e-01,9.99999e-01,9.99999e-01,2.11608e-02,9.99999e-01
5.814530100e-01,2.28354e-02,9.99999e-01,9.99999e-01,9.99999e-01,2.28354e-02,9.99999e-01
5.843602750e-01,2.46053e-02,9.99999e-01,9.99999e-01,9.99999e-01,2.46053e-02,9.99999e-01
5.872820764e-01,2.64735e-02,9.99999e-01,9.99999e-01,9.99999e-01,2.64735e-02,9.99999e-01
5.902184868e-01,2.84423e-02,9.99999e-01,9.99999e-01,9.99999e-01,2.84423e-02,9.99999e-01
5.931695792e-01,3.05142e-02,9.99999e-01,9.99999e-01,9.99999e-01,3.05142e-02,9.99999e-01
5.961354271e-01,3.26917e-02,9.99999e-01,9.99999e-01,9.99999e-01,3.26917e-02,9.99999e-01
5.991161043e-01,3.49768e-02,9.99999e-01,9.99999e-01,9.99999e-01,3.49768e-02,9.99999e-01
6.021116848e-01,3.73718e-02,9.99999e-01,9.99999e-01,9.99999e-01,3.73718e-02,9.99999e-01
6.051222432e-01,3.98786e-02,9.99999e-01,9.99999e-01,9.99999e-01,3.98786e-02,9.99999e-01
6.081478544e-01,4.24990e-02,9.99999e-01,9.99999e-01,9.99999e-01,4.24990e-02,9.99999e-01
6.111885937e-01,4.52347e-02,9.99999e-01,9.99999e-01,9.99999e-01,4.52347e-02,9.99999e-01
6.142445367e-01,4.80872e-02,9.99999e-01,9.99999e-01,9.99999e-01,4.80872e-02,9.99999e-01
6.173157594e-01,5.10579e-02,9.99999e-01,9.99999e-01,9.99999e-01,5.10579e-02,9.99999e-01
6.204023382e-01,5.41479e-02,9.99999e-01,9.99999e-01,9.99999e-01,5.41479e-02,9.99999e-01
6.235043498e-01,5.73583e-02,9.99999e-01,9.99999e-01,9.99999e-01,5.73583e-02,9.99999e-01
6.266218716e-01,6.06900e-02,9.99999e-01,9.99999e-01,9.99999e-01,6.06900e-02,9.99999e-01
6.297549810e-01,6.41437e-02,9.99999e-01,9.99999e-01,9.99999e-01,6.41437e-02,9.99999e-01
6.329037559e-01,6.77198e-02,9.99999e-01,9.99999e-01,9.99999e-01,6.77198e-02,9.99999e-01
6.360682746e-01,7.14187e-02,9.99999e-01,9.99999e-01,9.99999e-01,7.14187e-02,9.99999e-01
6.392486160e-01,7.52405e-02,9.99999e-01,9.99999e-01,9.99999e-01,7.52405e-02,9.99999e-01
6.424448591e-01,7.91853e-02,9.99999e-01,9.99999e-01,9.99999e-01,7.91853e-02,9.99999e-01
6.456570834e-01,8.32529e-02,9.99999e-01,9.99999e-01,9.99999e-01,8.32529e-02,9.99999e-01
6.488853688e-01,8.74428e-02,9.99999e-01,9.99999e-01,9.99999e-01,8.74428e-02,9.99999e-01
6.521297956e-01,9.17545e-02,9.99999e-01,9.99999e-01,9.99999e-01,9.17545e-02,9.99999e-01
6.553904446e-01,9.61874e-02,9.99999e-01,9.99999e-01,9.99999e-01,9.61874e-02,9.99999e-01
6.586673968e-01,1.00741e-01,9.99999e-01,9.99999e-01,9.99999e-01,1.00741e-01,9.99999e-01
6.619607338e-01,1.05413e-01,9.99999e-01,9.99999e-01,9.99999e-01,1.05413e-01,9.99999e-01
6.652705375e-01,1.10203e-01,9.99999e-01,9.99999e-01,9.99999e-01,1.10203e-01,9.99999e-01
6.685968902e-01,1.15110e-01,9.99999e-01,9.99999e-01,9.99999e-01,1.15110e-01,9.99999e-01
6.719398746e-01,1.20132e-01,9.99999e-01,9.99999e-01,9.99999e-01,1.20132e-01,9.99999e-01
6.752995740e-01,1.25267e-01,9.99999e-01,9.99999e-01,9.99999e-01,1.25267e-01,9.99999e-01
6.786760719e-01,1.30514e-01,9.99999e-01,9.99999e-01,9.99999e-01,1.30514e-01,9.99999e-01
6.820694522e-01,1.35870e-01,9.99999e-01,9.99999e-01,9.99999e-01,1.35870e-01,9.99999e-01
6.854797995e-01,1.41334e-01,9.99999e-01,9.99999e-01,9.99999e-01,1.41334e-01,9.99999e-01
6.889071985e-01,1.46904e-01,9.99999e-01,9.99999e-01,9.99999e-01,1.46904e-01,9.99999e-01
6.923517345e-01,1.52576e-01,9.99999e-01,9.99999e-01,9.99999e-01,1.52576e-01,9.99999e-01
6.958134932e-01,1.58348e-01,9.99999e-01,9.99999e-01,9.99999e-01,1.58348e-01,9.99999e-01
6.992925606e-01,1.64219e-01,9.99999e-01,9.99999e-01,9.99999e-01,1.64219e-01,9.99999e-01
7.027890234e-01,1.70185e-01,9.99999e-01,9.99999e-01,9.99999e-01,1.70185e-01,9.99999e-01
7.063029686e-01,1.76243e-01,9.99999e-01,9.99999e-01,9.99999e-01,1.76243e-01,9.99999e-01
7.098344834e-01,1.82391e-01,9.99999e-01,9.99999e-01,9.99999e-01,1.82391e-01,9.99999e-01
7.133836558e-01,1.88625e-01,9.99999e-01,9.99999e-01,9.99999e-01,1.88625e-01,9.99999e-01
7.169505741e-01,1.94944e-01,9.99999e-01,9.99999e-01,9.99999e-01,1.94944e-01,9.99999e-01
7.205353270e-01,2.01342e-01,9.99999e-01,9.99999e-01,9.99999e-01,2.01342e-01,9.99999e-01
7.241380036e-01,2.07818e-01,9.99999e-01,9.99999e-01,9.99999e-01,2.07818e-01,9.99999e-01
7.277586936e-01,2.14369e-01,9.99999e-01,9.99999e-01,9.99999e-01,2.14369e-01,9.99999e-01
7.313974871e-01,2.20990e-01,9.99999e-01,9.99999e-01,9.99999e-01,2.20990e-01,9.99999e-01
7.350544745e-01,2.27679e-01,9.99999e-01,9.99999e-01,9.99999e-01,2.27679e-01,9.99999e-01
7.387297469e-01,2.34432e-01,9.99999e-01,9.99999e-01,9.99999e-01,2.34432e-01,9.99999e-01
7.424233956e-01,2.41246e-01,9.99999e-01,9.99999e-01,9.99999e-01,2.41246e-01,9.99999e-01
7.461355126e-01,2.48118e-01,9.99999e-01,9.99999e-01,9.99999e-01,2.48118e-01,9.99999e-01
7.498661902e-01,2.55044e-01,9.99999e-01,9.99999e-01,9.99999e-01,2.55044e-01,9.99999e-01
7.536155211e-01,2.62021e-01,9.99999e-01,9.99999e-01,9.99999e-01,2.62021e-01,9.99999e-01
7.573835987e-01,2.69046e-01,9.99999e-01,9.99999e-01,9.99999e-01,2.69046e-01,9.99999e-01
7.611705167e-01,2.76114e-01,9.99999e-01,9.99999e-01,9.99999e-01,2.76114e-01,9.99999e-01
7.649763693e-01,2.83223e-01,9.99999e-01,9.99999e-01,9.99999e-01,2.83223e-01,9.99999e-01
7.688012511e-01,2.90369e-01,9.99999e-01,9.99999e-01,9.99999e-01,2.90369e-01,9.99999e-01
7.726452574e-01,2.97549e-01,9.99999e-01,9.99999e-01,9.99999e-01,2.97549e-01,9.99999e-01
7.765084837e-01,3.04759e-01,9.99999e-01,9.99999e-01,9.99999e-01,3.04759e-01,9.99999e-01
7.803910261e-01,2.96813e-01,9.99999e-01,9.99999e-01,9.51334e-01,3.11996e-01,9.99999e-01
7.842929812e-01,2.51395e-01,9.99999e-01,9.99999e-01,7.87434e-01,3.19258e-01,9.99999e-01
7.882144461e-01,2.53514e-01,9.99999e-01,9.99999e-01,7.76364e-01,3.26540e-01,9.99999e-01
7.921555184e-01,2.87332e-01,9.99999e-01,9.99999e-01,8.60689e-01,3.33839e-01,9.99999e-01
7.961162960e-01,3.08213e-01,9.99999e-01,9.99999e-01,9.03445e-01,3.41152e-01,9.99999e-01
8.000968774e-01,3.29837e-01,9.99999e-01,9.99999e-01,9.46510e-01,3.48477e-01,9.99999e-01
8.040973618e-01,3.45772e-01,9.99999e-01,9.99999e-01,9.71790e-01,3.55809e-01,9.99999e-01
8.081178486e-01,3.58428e-01,9.99999e-01,9.99999e-01,9.87007e-01,3.63146e-01,9.99999e-01
8.121584379e-01,3.68979e-01,9.99999e-01,9.99999e-01,9.95934e-01,3.70485e-01,9.99999e-01
8.162192301e-01,3.77484e-01,9.99999e-01,9.99999e-01,9.99100e-01,3.77823e-01,9.99999e-01
8.203003262e-01,3.85152e-01,9.99999e-01,9.99999e-01,9.99984e-01,3.85157e-01,9.99999e-01
8.244018279e-01,3.92485e-01,9.99999e-01,9.99999e-01,9.99999e-01,3.92485e-01,9.99999e-01
8.285238370e-01,3.99803e-01,9.99999e-01,9.99999e-01,9.99999e-01,3.99803e-01,9.99999e-01
8.326664562e-01,4.07109e-01,9.99999e-01,9.99999e-01,9.99999e-01,4.07109e-01,9.99999e-01
8.368297885e-01,4.14400e-01,9.99999e-01,9.99999e-01,9.99999e-01,4.14400e-01,9.99999e-01
8.410139374e-01,4.21674e-01,9.99999e-01,9.99999e-01,9.99999e-01,4.21674e-01,9.99999e-01
8.452190071e-01,4.28928e-01,9.99999e-01,9.99999e-01,9.99999e-01,4.28928e-01,9.99999e-01
8.494451021e-01,4.36160e-01,9.99999e-01,9.99999e-01,9.99999e-01,4.36160e-01,9.99999e-01
8.536923276e-01,4.43367e-01,9.99999e-01,9.99999e-01,9.99999e-01,4.43367e-01,9.99999e-01
8.579607893e-01,4.50548e-01,9.99999e-01,9.99999e-01,9.99999e-01,4.50548e-01,9.99999e-01
8.622505932e-01,4.57699e-01,9.99999e-01,9.99999e-01,9.99999e-01,4.57699e-01,9.99999e-01
8.665618462e-01,4.21484e-01,9.99999e-01,9.99999e-01,9.06768e-01,4.64820e-01,9.99999e-01
8.708946554e-01,2.60005e-01,9.99999e-01,9.99999e-01,5.50966e-01,4.71907e-01,9.99999e-01
8.752491287e-01,2.94046e-01,9.99999e-01,9.99999e-01,6.13927e-01,4.78959e-01,9.99999e-01
8.796253743e-01,3.70608e-01,9.99999e-01,9.99999e-01,7.62608e-01,4.85974e-01,9.99999e-01
8.840235012e-01,4.28023e-01,9.99999e-01,9.99999e-01,8.68286e-01,4.92951e-01,9.99999e-01
8.884436187e-01,4.72654e-01,9.99999e-01,9.99999e-01,9.45521e-01,4.99887e-01,9.99999e-01
8.928858368e-01,4.95439e-01,9.99999e-01,9.99999e-01,9.77620e-01,5.06780e-01,9.99999e-01
8.973502660e-01,5.10795e-01,9.99999e-01,9.99999e-01,9.94481e-01,5.13630e-01,9.99999e-01
9.018370173e-01,5.20116e-01,9.99999e-01,9.99999e-01,9.99388e-01,5.20434e-01,9.99999e-01
9.063462024e-01,5.19309e-01,9.99999e-01,9.99999e-01,9.85049e-01,5.27191e-01,9.99999e-01
9.108779334e-01,5.15209e-01,9.99999e-01,9.99999e-01,9.64992e-01,5.33900e-01,9.99999e-01
9.154323231e-01,5.36012e-01,9.99999e-01,9.99999e-01,9.91587e-01,5.40559e-01,9.99999e-01
9.200094847e-01,4.87791e-01,9.99999e-01,9.99999e-01,8.91483e-01,5.47167e-01,9.99999e-01
9.246095321e-01,4.65337e-01,9.99999e-01,9.99999e-01,8.40377e-01,5.53723e-01,9.99999e-01
9.292325798e-01,4.89919e-01,9.99999e-01,9.99999e-01,8.74501e-01,5.60226e-01,9.99999e-01
9.338787427e-01,4.96890e-01,9.99999e-01,9.99999e-01,8.76852e-01,5.66675e-01,9.99999e-01
9.385481364e-01,5.20200e-01,9.99999e-01,9.99999e-01,9.07745e-01,5.73068e-01,9.99999e-01
9.432408771e-01,5.45900e-01,9.99999e-01,9.99999e-01,9.42172e-01,5.79405e-01,9.99999e-01
9.479570815e-01,5.68110e-01,9.99999e-01,9.99999e-01,9.69992e-01,5.85685e-01,9.99999e-01
9.526968669e-01,5.83262e-01,9.99999e-01,9.99999e-01,9.85395e-01,5.91906e-01,9.99999e-01
9.574603512e-01,5.94316e-01,9.99999e-01,9.99999e-01,9.93723e-01,5.98069e-01,9.99999e-01
9.622476530e-01,6.02987e-01,9.99999e-01,9.99999e-01,9.98036e-01,6.04173e-01,9.99999e-01
9.670588912e-01,6.09857e-01,9.99999e-01,9.99999e-01,9.99409e-01,6.10216e-01,9.99999e-01
9.718941857e-01,6.16173e-01,9.99999e-01,9.99999e-01,9.99957e-01,6.16199e-01,9.99999e-01
9.767536566e-01,6.22121e-01,9.99999e-01,9.99999e-01,9.99999e-01,6.22121e-01,9.99999e-01
9.816374249e-01,6.27980e-01,9.99999e-01,9.99999e-01,9.99999e-01,6.27980e-01,9.99999e-01
9.865456120e-01,6.33778e-01,9.99999e-01,9.99999e-01,9.99999e-01,6.33778e-01,9.99999e-01
9.914783401e-01,6.39513e-01,9.99999e-01,9.99999e-01,9.99999e-01,6.39513e-01,9.99999e-01
9.964357318e-01,6.45185e-01,9.99999e-01,9.99999e-01,9.99999e-01,6.45185e-01,9.99999e-01
1.001417910e+00,6.50794e-01,9.99999e-01,9.99999e-01,9.99999e-01,6.50794e-01,9.99999e-01
1.006425000e+00,6.56339e-01,9.99999e-01,9.99999e-01,9.99999e-01,6.56339e-01,9.99999e-01
1.011457125e+00,6.61821e-01,9.99999e-01,9.99999e-01,9.99999e-01,6.61821e-01,9.99999e-01
1.016514411e+00,6.67239e-01,9.99999e-01,9.99999e-01,9.99999e-01,6.67239e-01,9.99999e-01
1.021596983e+00,6.72544e-01,9.99999e-01,9.99999e-01,9.99927e-01,6.72593e-01,9.99999e-01
1.026704968e+00,6.73913e-01,9.99999e-01,9.99999e-01,9.94143e-01,6.77883e-01,9.99999e-01
1.031838492e+00,6.44205e-01,9.99999e-01,9.99999e-01,9.43048e-01,6.83109e-01,9.99999e-01
1.036997685e+00,6.95013e-02,9.99999e-01,9.99999e-01,1.00980e-01,6.88270e-01,9.99999e-01
1.042182673e+00,2.69848e-02,9.99999e-01,9.99999e-01,3.89183e-02,6.93368e-01,9.99999e-01
1.047393587e+00,4.35047e-02,9.99999e-01,9.99999e-01,6.22917e-02,6.98401e-01,9.99999e-01
1.052630555e+00,2.17266e-04,9.99999e-01,9.99999e-01,3.08892e-04,7.03371e-01,9.99999e-01
1.057893707e+00,6.77639e-04,9.99999e-01,9.99999e-01,9.56743e-04,7.08276e-01,9.99999e-01
1.063183176e+00,4.04965e-03,9.99999e-01,9.99999e-01,5.67878e-03,7.13118e-01,9.99999e-01
1.068499092e+00,1.77186e-02,9.99999e-01,9.99999e-01,2.46812e-02,7.17897e-01,9.99999e-01
1.073841587e+00,6.84386e-02,9.99999e-01,9.99999e-01,9.47099e-02,7.22612e-01,9.99999e-01
1.079210795e+00,1.63587e-01,9.99999e-01,9.99999e-01,2.24935e-01,7.27264e-01,9.99999e-01
1.084606849e+00,3.18877e-01,9.99999e-01,9.99999e-01,4.35711e-01,7.31853e-01,9.99999e-01
1.090029883e+00,4.77963e-01,9.99999e-01,9.99999e-01,6.49070e-01,7.36380e-01,9.99999e-01
1.095480033e+00,5.98408e-01,9.99999e-01,9.99999e-01,8.07736e-01,7.40844e-01,9.99999e-01
1.100957433e+00,6.72297e-01,9.99999e-01,9.99999e-01,9.02112e-01,7.45247e-01,9.99999e-01
1.106462220e+00,7.18276e-01,9.99999e-01,9.99999e-01,9.58227e-01,7.49588e-01,9.99999e-01
1.111994531e+00,7.42036e-01,9.99999e-01,9.99999e-01,9.84305e-01,7.53868e-01,9.99999e-01
1.117554504e+00,7.55151e-01,9.99999e-01,9.99999e-01,9.96127e-01,7.58087e-01,9.99999e-01
1.123142276e+00,7.62050e-01,9.99999e-01,9.99999e-01,9.99743e-01,7.62245e-01,9.99999e-01
1.128757988e+00,7.66344e-01,9.99999e-01,9.99999e-01,9.99999e-01,7.66344e-01,9.99999e-01
1.134401778e+00,7.70383e-01,9.99999e-01,9.99999e-01,9.99999e-01,7.70383e-01,9.99999e-01
1.140073787e+00,7.74363e-01,9.99999e-01,9.99999e-01,9.99999e-01,7.74363e-01,9.99999e-01
1.145774156e+00,7.78284e-01,9.99999e-01,9.99999e-01,9.99999e-01,7.78284e-01,9.99999e-01
1.151503026e+00,7.82147e-01,9.99999e-01,9.99999e-01,9.99999e-01,7.82147e-01,9.99999e-01
1.157260541e+00,7.85952e-01,9.99999e-01,9.99999e-01,9.99999e-01,7.85952e-01,9.99999e-01
1.163046844e+00,7.89700e-01,9.99999e-01,9.99999e-01,9.99999e-01,7.89700e-01,9.99999e-01
1.168862078e+00,7.93392e-01,9.99999e-01,9.99999e-01,9.99999e-01,7.93392e-01,9.99999e-01
1.174706389e+00,7.97027e-01,9.99999e-01,9.99999e-01,9.99999e-01,7.97027e-01,9.99999e-01
1.180579921e+00,8.00607e-01,9.99999e-01,9.99999e-01,9.99999e-01,8.00607e-01,9.99999e-01
1.186482820e+00,8.04125e-01,9.99999e-01,9.99999e-01,9.99992e-01,8.04131e-01,9.99999e-01
1.192415234e+00,7.91107e-01,9.99999e-01,9.99999e-01,9.79576e-01,8.07601e-01,9.99999e-01
1.198377311e+00,4.45162e-01,9.99999e-01,9.99999e-01,5.48893e-01,8.11017e-01,9.99999e-01
1.204369197e+00,1.25059e-16,9.99999e-01,9.99999e-01,1.53563e-16,8.14379e-01,9.99999e-01
1.210391043e+00,5.01094e-64,9.99999e-01,9.99999e-01,6.12817e-64,8.17689e-01,9.99999e-01
1.216442998e+00,1.49762e-55,9.99999e-01,9.99999e-01,1.82425e-55,8.20946e-01,9.99999e-01
1.222525213e+00,9.83975e-55,9.99999e-01,9.99999e-01,1.19392e-54,8.24152e-01,9.99999e-01
1.228637839e+00,2.29863e-42,9.99999e-01,9.99999e-01,2.77844e-42,8.27306e-01,9.99999e-01
