#,Wave/freq,Total,N2,O2,CO2,Rayleigh,CIA
4.000000000e-01,2.78812e-03,9.99999e-01,9.99999e-01,9.99999e-01,2.78812e-03,9.99999e-01
4.020000000e-01,3.13203e-03,9.99999e-01,9.99999e-01,9.99999e-01,3.13203e-03,9.99999e-01
4.040100000e-01,3.50986e-03,9.99999e-01,9.99999e-01,9.99999e-01,3.50986e-03,9.99999e-01
4.060300500e-01,3.92443e-03,9.99999e-01,9.99999e-01,9.99999e-01,3.92443e-03,9.99999e-01
4.080602003e-01,4.37830e-03,9.99999e-01,9.99999e-01,9.99999e-01,4.37830e-03,9.99999e-01
4.101005013e-01,4.87411e-03,9.99999e-01,9.99999e-01,9.99999e-01,4.87411e-03,9.99999e-01
4.121510038e-01,5.41459e-03,9.99999e-01,9.99999e-01,9.99999e-01,5.41459e-03,9.99999e-01
4.142117588e-01,6.00251e-03,9.99999e-01,9.99999e-01,9.99999e-01,6.00251e-03,9.99999e-01
4.162828176e-01,6.64074e-03,9.99999e-01,9.99999e-01,9.99999e-01,6.64074e-03,9.99999e-01
4.183642317e-01,7.33218e-03,9.99999e-01,9.99999e-01,9.99999e-01,7.33218e-03,9.99999e-01
4.204560528e-01,8.07979e-03,9.99999e-01,9.99999e-01,9.99999e-01,8.07979e-03,9.99999e-01
4.225583331e-01,8.88657e-03,9.99999e-01,9.99999e-01,9.99999e-01,8.88657e-03,9.99999e-01
4.246711247e-01,9.75555e-03,9.99999e-01,9.99999e-01,9.99999e-01,9.75555e-03,9.99999e-01
4.267944804e-01,1.06898e-02,9.99999e-01,9.99999e-01,9.99999e-01,1.06898e-02,9.99999e-01
4.289284528e-01,1.16923e-02,9.99999e-01,9.99999e-01,9.99999e-01,1.16923e-02,9.99999e-01
4.310730950e-01,1.27663e-02,9.99999e-01,9.99999e-01,9.99999e-01,1.27663e-02,9.99999e-01
4.332284605e-01,1.39147e-02,9.99999e-01,9.99999e-01,9.99999e-01,1.39147e-02,9.99999e-01
4.353946028e-01,1.51407e-02,9.99999e-01,9.99999e-01,9.99999e-01,1.51407e-02,9.99999e-01
4.375715758e-01,1.64472e-02,9.99999e-01,9.99999e-01,9.99999e-01,1.64472e-02,9.99999e-01
4.397594337e-01,1.78373e-02,9.99999e-01,9.99999e-01,9.99999e-01,1.78373e-02,9.99999e-01
4.419582309e-01,1.93139e-02,9.99999e-01,9.99999e-01,9.99999e-01,1.93139e-02,9.99999e-01
4.441680220e-01,2.08799e-02,9.99999e-01,9.99999e-01,9.99999e-01,2.08799e-02,9.99999e-01
4.463888621e-01,2.25381e-02,9.99999e-01,9.99999e-01,9.99999e-01,2.25381e-02,9.99999e-01
4.486208064e-01,2.42914e-02,9.99999e-01,9.99999e-01,9.99999e-01,2.42914e-02,9.99999e-01
4.508639105e-01,2.61423e-02,9.99999e-01,9.99999e-01,9.99999e-01,2.61423e-02,9.99999e-01
4.531182300e-01,2.80934e-02,9.99999e-01,9.99999e-01,9.99999e-01,2.80934e-02,9.99999e-01
4.553838212e-01,3.01473e-02,9.99999e-01,9.99999e-01,9.99999e-01,3.01473e-02,9.99999e-01
4.576607403e-01,3.23063e-02,9.99999e-01,9.99999e-01,9.99999e-01,3.23063e-02,9.99999e-01
4.599490440e-01,3.45726e-02,9.99999e-01,9.99999e-01,9.99999e-01,3.45726e-02,9.99999e-01
4.622487892e-01,3.69484e-02,9.99999e-01,9.99999e-01,9.99999e-01,3.69484e-02,9.99999e-01
4.645600332e-01,3.94357e-02,9.99999e-01,9.99999e-01,9.99999e-01,3.94357e-02,9.99999e-01
4.668828333e-01,4.20363e-02,9.99999e-01,9.99999e-01,9.99999e-01,4.20363e-02,9.99999e-01
4.692172475e-01,4.47518e-02,9.99999e-01,9.99999e-01,9.99999e-01,4.47518e-02,9.99999e-01
4.715633337e-01,4.75840e-02,9.99999e-01,9.99999e-01,9.99999e-01,4.75840e-02,9.99999e-01
4.739211504e-01,5.05340e-02,9.99999e-01,9.99999e-01,9.99999e-01,5.05340e-02,9.99999e-01
4.762907561e-01,5.36033e-02,9.99999e-01,9.99999e-01,9.99999e-01,5.36033e-02,9.99999e-01
4.786722099e-01,5.67928e-02,9.99999e-01,9.99999e-01,9.99999e-01,5.67928e-02,9.99999e-01
4.810655710e-01,6.01034e-02,9.99999e-01,9.99999e-01,9.99999e-01,6.01034e-02,9.99999e-01
4.834708988e-01,6.35358e-02,9.99999e-01,9.99999e-01,9.99999e-01,6.35358e-02,9.99999e-01
4.858882533e-01,6.70906e-02,9.99999e-01,9.99999e-01,9.99999e-01,6.70906e-02,9.99999e-01
4.883176946e-01,7.07682e-02,9.99999e-01,9.99999e-01,9.99999e-01,7.07682e-02,9.99999e-01
4.907592831e-01,7.45687e-02,9.99999e-01,9.99999e-01,9.99999e-01,7.45687e-02,9.99999e-01
4.932130795e-01,7.84922e-02,9.99999e-01,9.99999e-01,9.99999e-01,7.84922e-02,9.99999e-01
4.956791449e-01,8.25385e-02,9.99999e-01,9.99999e-01,9.99999e-01,8.25385e-02,9.99999e-01
4.981575406e-01,8.67072e-02,9.99999e-01,9.99999e-01,9.99999e-01,8.67072e-02,9.99999e-01
5.006483283e-01,9.09979e-02,9.99999e-01,9.99999e-01,9.99999e-01,9.09979e-02,9.99999e-01
5.031515699e-01,9.54098e-02,9.99999e-01,9.99999e-01,9.99999e-01,9.54098e-02,9.99999e-01
5.056673278e-01,9.99421e-02,9.99999e-01,9.99999e-01,9.99999e-01,9.99421e-02,9.99999e-01
5.081956644e-01,1.04594e-01,9.99999e-01,9.99999e-01,9.99999e-01,1.04594e-01,9.99999e-01
5.107366428e-01,1.09364e-01,9.99999e-01,9.99999e-01,9.99999e-01,1.09364e-01,9.99999e-01
5.132903260e-01,1.14250e-01,9.99999e-01,9.99999e-01,9.99999e-01,1.14250e-01,9.99999e-01
5.158567776e-01,1.19252e-01,9.99999e-01,9.99999e-01,9.99999e-01,1.19252e-01,9.99999e-01
5.184360615e-01,1.24368e-01,9.99999e-01,9.99999e-01,9.99999e-01,1.24368e-01,9.99999e-01
5.210282418e-01,1.29596e-01,9.99999e-01,9.99999e-01,9.99999e-01,1.29596e-01,9.99999e-01
5.236333830e-01,1.34933e-01,9.99999e-01,9.99999e-01,9.99999e-01,1.34933e-01,9.99999e-01
5.262515499e-01,1.40379e-01,9.99999e-01,9.99999e-01,9.99999e-01,1.40379e-01,9.99999e-01
5.288828077e-01,1.45930e-01,9.99999e-01,9.99999e-01,9.99999e-01,1.45930e-01,9.99999e-01
5.315272217e-01,1.51585e-01,9.99999e-01,9.99999e-01,9.99999e-01,1.51585e-01,9.99999e-01
5.341848578e-01,1.57340e-01,9.99999e-01,9.99999e-01,9.99999e-01,1.57340e-01,9.99999e-01
5.368557821e-01,1.63194e-01,9.99999e-01,9.99999e-01,9.99999e-01,1.63194e-01,9.99999e-01
5.395400610e-01,1.69143e-01,9.99999e-01,9.99999e-01,9.99999e-01,1.69143e-01,9.99999e-01
5.422377613e-01,1.75186e-01,9.99999e-01,9.99999e-01,9.99999e-01,1.75186e-01,9.99999e-01
5.449489501e-01,1.81318e-01,9.99999e-01,9.99999e-01,9.99999e-01,1.81318e-01,9.99999e-01
5.476736949e-01,1.87538e-01,9.99999e-01,9.99999e-01,9.99999e-01,1.87538e-01,9.99999e-01
5.504120634e-01,1.93842e-01,9.99999e-01,9.99999e-01,9.99999e-01,1.93842e-01,9.99999e-01
5.531641237e-01,2.00227e-01,9.99999e-01,9.99999e-01,9.99999e-01,2.00227e-01,9.99999e-01
5.559299443e-01,2.06690e-01,9.99999e-01,9.99999e-01,9.99999e-01,2.06690e-01,9.99999e-01
5.587095940e-01,2.13227e-01,9.99999e-01,9.99999e-01,9.99999e-01,2.13227e-01,9.99999e-01
5.615031420e-01,2.19836e-01,9.99999e-01,9.99999e-01,9.99999e-01,2.19836e-01,9.99999e-01
5.643106577e-01,2.26514e-01,9.99999e-01,9.99999e-01,9.99999e-01,2.26514e-01,9.99999e-01
5.671322110e-01,2.33256e-01,9.99999e-01,9.99999e-01,9.99999e-01,2.33256e-01,9.99999e-01
5.699678720e-01,2.40060e-01,9.99999e-01,9.99999e-01,9.99999e-01,2.40060e-01,9.99999e-01
5.728177114e-01,2.46922e-01,9.99999e-01,9.99999e-01,9.99999e-01,2.46922e-01,9.99999e-01
5.756818000e-01,2.53839e-01,9.99999e-01,9.99999e-01,9.99999e-01,2.53839e-01,9.99999e-01
5.785602090e-01,2.60808e-01,9.99999e-01,9.99999e-01,9.99999e-01,2.60808e-01,9.99999e-01
5.814530100e-01,2.67824e-01,9.99999e-01,9.99999e-01,9.99999e-01,2.67824e-01,9.99999e-01
5.843602750e-01,2.74885e-01,9.99999e-01,9.99999e-01,9.99999e-01,2.74885e-01,9.99999e-01
5.872820764e-01,2.81987e-01,9.99999e-01,9.99999e-01,9.99999e-01,2.81987e-01,9.99999e-01
5.902184868e-01,2.89127e-01,9.99999e-01,9.99999e-01,9.99999e-01,2.89127e-01,9.99999e-01
5.931695792e-01,2.96301e-01,9.99999e-01,9.99999e-01,9.99999e-01,2.96301e-01,9.99999e-01
5.961354271e-01,3.03506e-01,9.99999e-01,9.99999e-01,9.99999e-01,3.03506e-01,9.99999e-01
5.991161043e-01,3.10739e-01,9.99999e-01,9.99999e-01,9.99999e-01,3.10739e-01,9.99999e-01
6.021116848e-01,3.17997e-01,9.99999e-01,9.99999e-01,9.99999e-01,3.17997e-01,9.99999e-01
6.051222432e-01,3.25275e-01,9.99999e-01,9.99999e-01,9.99999e-01,3.25275e-01,9.99999e-01
6.081478544e-01,3.32572e-01,9.99999e-01,9.99999e-01,9.99999e-01,3.32572e-01,9.99999e-01
6.111885937e-01,3.39883e-01,9.99999e-01,9.99999e-01,9.99999e-01,3.39883e-01,9.99999e-01
6.142445367e-01,3.47205e-01,9.99999e-01,9.99999e-01,9.99999e-01,3.47205e-01,9.99999e-01
6.173157594e-01,3.54537e-01,9.99999e-01,9.99999e-01,9.99999e-01,3.54537e-01,9.99999e-01
6.204023382e-01,3.61873e-01,9.99999e-01,9.99999e-01,9.99999e-01,3.61873e-01,9.99999e-01
6.235043498e-01,3.69212e-01,9.99999e-01,9.99999e-01,9.99999e-01,3.69212e-01,9.99999e-01
6.266218716e-01,3.76551e-01,9.99999e-01,9.99999e-01,9.99999e-01,3.76551e-01,9.99999e-01
6.297549810e-01,3.83886e-01,9.99999e-01,9.99999e-01,9.99999e-01,3.83886e-01,9.99999e-01
6.329037559e-01,3.91214e-01,9.99999e-01,9.99999e-01,9.99999e-01,3.91214e-01,9.99999e-01
6.360682746e-01,3.98534e-01,9.99999e-01,9.99999e-01,9.99999e-01,3.98534e-01,9.99999e-01
6.392486160e-01,4.05842e-01,9.99999e-01,9.99999e-01,9.99999e-01,4.05842e-01,9.99999e-01
6.424448591e-01,4.13136e-01,9.99999e-01,9.99999e-01,9.99999e-01,4.13136e-01,9.99999e-01
6.456570834e-01,4.20413e-01,9.99999e-01,9.99999e-01,9.99999e-01,4.20413e-01,9.99999e-01
6.488853688e-01,4.27671e-01,9.99999e-01,9.99999e-01,9.99999e-01,4.27671e-01,9.99999e-01
6.521297956e-01,4.34907e-01,9.99999e-01,9.99999e-01,9.99999e-01,4.34907e-01,9.99999e-01
6.553904446e-01,4.42119e-01,9.99999e-01,9.99999e-01,9.99999e-01,4.42119e-01,9.99999e-01
6.586673968e-01,4.49304e-01,9.99999e-01,9.99999e-01,9.99999e-01,4.49304e-01,9.99999e-01
6.619607338e-01,4.56461e-01,9.99999e-01,9.99999e-01,9.99999e-01,4.56461e-01,9.99999e-01
6.652705375e-01,4.63587e-01,9.99999e-01,9.99999e-01,9.99999e-01,4.63587e-01,9.99999e-01
6.685968902e-01,4.70680e-01,9.99999e-01,9.99999e-01,9.99999e-01,4.70680e-01,9.99999e-01
6.719398746e-01,4.77739e-01,9.99999e-01,9.99999e-01,9.99999e-01,4.77739e-01,9.99999e-01
6.752995740e-01,4.84760e-01,9.99999e-01,9.99999e-01,9.99999e-01,4.84760e-01,9.99999e-01
6.786760719e-01,4.91744e-01,9.99999e-01,9.99999e-01,9.99999e-01,4.91744e-01,9.99999e-01
6.820694522e-01,4.98686e-01,9.99999e-01,9.99999e-01,9.99999e-01,4.98686e-01,9.99999e-01
6.854797995e-01,5.05587e-01,9.99999e-01,9.99999e-01,9.99999e-01,5.05587e-01,9.99999e-01
6.889071985e-01,5.12445e-01,9.99999e-01,9.99999e-01,9.99999e-01,5.12445e-01,9.99999e-01
6.923517345e-01,5.19257e-01,9.99999e-01,9.99999e-01,9.99999e-01,5.19257e-01,9.99999e-01
6.958134932e-01,5.26022e-01,9.99999e-01,9.99999e-01,9.99999e-01,5.26022e-01,9.99999e-01
6.992925606e-01,5.32740e-01,9.99999e-01,9.99999e-01,9.99999e-01,5.32740e-01,9.99999e-01
7.027890234e-01,5.39407e-01,9.99999e-01,9.99999e-01,9.99999e-01,5.39407e-01,9.99999e-01
7.063029686e-01,5.46025e-01,9.99999e-01,9.99999e-01,9.99999e-01,5.46025e-01,9.99999e-01
7.098344834e-01,5.52590e-01,9.99999e-01,9.99999e-01,9.99999e-01,5.52590e-01,9.99999e-01
7.133836558e-01,5.59102e-01,9.99999e-01,9.99999e-01,9.99999e-01,5.59102e-01,9.99999e-01
7.169505741e-01,5.65560e-01,9.99999e-01,9.99999e-01,9.99999e-01,5.65560e-01,9.99999e-01
7.205353270e-01,5.71963e-01,9.99999e-01,9.99999e-01,9.99999e-01,5.71963e-01,9.99999e-01
7.241380036e-01,5.78310e-01,9.99999e-01,9.99999e-01,9.99999e-01,5.78310e-01,9.99999e-01
7.277586936e-01,5.84599e-01,9.99999e-01,9.99999e-01,9.99999e-01,5.84599e-01,9.99999e-01
7.313974871e-01,5.90831e-01,9.99999e-01,9.99999e-01,9.99999e-01,5.90831e-01,9.99999e-01
7.350544745e-01,5.97005e-01,9.99999e-01,9.99999e-01,9.99999e-01,5.97005e-01,9.99999e-01
7.387297469e-01,6.03119e-01,9.99999e-01,9.99999e-01,9.99999e-01,6.03119e-01,9.99999e-01
7.424233956e-01,6.09172e-01,9.99999e-01,9.99999e-01,9.99999e-01,6.09172e-01,9.99999e-01
7.461355126e-01,6.15166e-01,9.99999e-01,9.99999e-01,9.99999e-01,6.15166e-01,9.99999e-01
7.498661902e-01,6.21098e-01,9.99999e-01,9.99999e-01,9.99999e-01,6.21098e-01,9.99999e-01
7.536155211e-01,6.26968e-01,9.99999e-01,9.99999e-01,9.99999e-01,6.26968e-01,9.99999e-01
7.573835987e-01,6.32777e-01,9.99999e-01,9.99999e-01,9.99999e-01,6.32777e-01,9.99999e-01
7.611705167e-01,6.38523e-01,9.99999e-01,9.99999e-01,9.99999e-01,6.38523e-01,9.99999e-01
7.649763693e-01,6.44206e-01,9.99999e-01,9.99999e-01,9.99999e-01,6.44206e-01,9.99999e-01
7.688012511e-01,6.49826e-01,9.99999e-01,9.99999e-01,9.99999e-01,6.49826e-01,9.99999e-01
7.726452574e-01,6.55382e-01,9.99999e-01,9.99999e-01,9.99999e-01,6.55382e-01,9.99999e-01
7.765084837e-01,6.60875e-01,9.99999e-01,9.99999e-01,9.99999e-01,6.60875e-01,9.99999e-01
7.803910261e-01,6.53751e-01,9.99999e-01,9.99999e-01,9.81159e-01,6.66304e-01,9.99999e-01
7.842929812e-01,6.16275e-01,9.99999e-01,9.99999e-01,9.17527e-01,6.71669e-01,9.99999e-01
7.882144461e-01,6.17613e-01,9.99999e-01,9.99999e-01,9.12318e-01,6.76970e-01,9.99999e-01
7.921555184e-01,6.47147e-01,9.99999e-01,9.99999e-01,9.48607e-01,6.82207e-01,9.99999e-01
7.961162960e-01,6.63388e-01,9.99999e-01,9.99999e-01,9.65097e-01,6.87379e-01,9.99999e-01
8.000968774e-01,6.79313e-01,9.99999e-01,9.99999e-01,9.80974e-01,6.92488e-01,9.99999e-01
8.040973618e-01,6.90599e-01,9.99999e-01,9.99999e-01,9.90058e-01,6.97533e-01,9.99999e-01
8.081178486e-01,6.99316e-01,9.99999e-01,9.99999e-01,9.95447e-01,7.02513e-01,9.99999e-01
8.121584379e-01,7.06425e-01,9.99999e-01,9.99999e-01,9.98578e-01,7.07430e-01,9.99999e-01
8.162192301e-01,7.12059e-01,9.99999e-01,9.99999e-01,9.99685e-01,7.12283e-01,9.99999e-01
8.203003262e-01,7.17069e-01,9.99999e-01,9.99999e-01,9.99994e-01,7.17072e-01,9.99999e-01
8.244018279e-01,7.21799e-01,9.99999e-01,9.99999e-01,9.99999e-01,7.21799e-01,9.99999e-01
8.285238370e-01,7.26462e-01,9.99999e-01,9.99999e-01,9.99999e-01,7.26462e-01,9.99999e-01
8.326664562e-01,7.31062e-01,9.99999e-01,9.99999e-01,9.99999e-01,7.31062e-01,9.99999e-01
8.368297885e-01,7.35599e-01,9.99999e-01,9.99999e-01,9.99999e-01,7.35599e-01,9.99999e-01
8.410139374e-01,7.40074e-01,9.99999e-01,9.99999e-01,9.99999e-01,7.40074e-01,9.99999e-01
8.452190071e-01,7.44488e-01,9.99999e-01,9.99999e-01,9.99999e-01,7.44488e-01,9.99999e-01
8.494451021e-01,7.48839e-01,9.99999e-01,9.99999e-01,9.99999e-01,7.48839e-01,9.99999e-01
8.536923276e-01,7.53130e-01,9.99999e-01,9.99999e-01,9.99999e-01,7.53130e-01,9.99999e-01
8.579607893e-01,7.57359e-01,9.99999e-01,9.99999e-01,9.99999e-01,7.57359e-01,9.99999e-01
8.622505932e-01,7.61528e-01,9.99999e-01,9.99999e-01,9.99999e-01,7.61528e-01,9.99999e-01
8.665618462e-01,7.28249e-01,9.99999e-01,9.99999e-01,9.51166e-01,7.65637e-01,9.99999e-01
8.708946554e-01,6.17533e-01,9.99999e-01,9.99999e-01,8.02317e-01,7.69686e-01,9.99999e-01
8.752491287e-01,6.48676e-01,9.99999e-01,9.99999e-01,8.38432e-01,7.73676e-01,9.99999e-01
8.796253743e-01,7.06405e-01,9.99999e-01,9.99999e-01,9.08433e-01,7.77608e-01,9.99999e-01
8.840235012e-01,7.43713e-01,9.99999e-01,9.99999e-01,9.51671e-01,7.81481e-01,9.99999e-01
8.884436187e-01,7.70065e-01,9.99999e-01,9.99999e-01,9.80604e-01,7.85296e-01,9.99999e-01
8.928858368e-01,7.82845e-01,9.99999e-01,9.99999e-01,9.92130e-01,7.89054e-01,9.99999e-01
8.973502660e-01,7.91226e-01,9.99999e-01,9.99999e-01,9.98069e-01,7.92755e-01,9.99999e-01
9.018370173e-01,7.96231e-01,9.99999e-01,9.99999e-01,9.99786e-01,7.96400e-01,9.99999e-01
9.063462024e-01,7.95764e-01,9.99999e-01,9.99999e-01,9.94717e-01,7.99990e-01,9.99999e-01
9.108779334e-01,7.93581e-01,9.99999e-01,9.99999e-01,9.87626e-01,8.03524e-01,9.99999e-01
9.154323231e-01,8.04624e-01,9.99999e-01,9.99999e-01,9.97052e-01,8.07003e-01,9.99999e-01
9.200094847e-01,7.76318e-01,9.99999e-01,9.99999e-01,9.57910e-01,8.10428e-01,9.99999e-01
9.246095321e-01,7.65668e-01,9.99999e-01,9.99999e-01,9.40855e-01,8.13800e-01,9.99999e-01
9.292325798e-01,7.79278e-01,9.99999e-01,9.99999e-01,9.53689e-01,8.17119e-01,9.99999e-01
9.338787427e-01,7.83324e-01,9.99999e-01,9.99999e-01,9.54823e-01,8.20385e-01,9.99999e-01
9.385481364e-01,7.96160e-01,9.99999e-01,9.99999e-01,9.66682e-01,8.23600e-01,9.99999e-01
9.432408771e-01,8.09746e-01,9.99999e-01,9.99999e-01,9.79416e-01,8.26763e-01,9.99999e-01
9.479570815e-01,8.21102e-01,9.99999e-01,9.99999e-01,9.89427e-01,8.29875e-01,9.99999e-01
9.526968669e-01,8.28672e-01,9.99999e-01,9.99999e-01,9.94877e-01,8.32938e-01,9.99999e-01
9.574603512e-01,8.34117e-01,9.99999e-01,9.99999e-01,9.97805e-01,8.35951e-01,9.99999e-01
9.622476530e-01,8.38340e-01,9.99999e-01,9.99999e-01,9.99314e-01,8.38915e-01,9.99999e-01
9.670588912e-01,8.41657e-01,9.99999e-01,9.99999e-01,9.99793e-01,8.41830e-01,9.99999e-01
9.718941857e-01,8.44685e-01,9.99999e-01,9.99999e-01,9.99984e-01,8.44698e-01,9.99999e-01
9.767536566e-01,8.47519e-01,9.99999e-01,9.99999e-01,9.99999e-01,8.47519e-01,9.99999e-01
9.816374249e-01,8.50293e-01,9.99999e-01,9.99999e-01,9.99999e-01,8.50293e-01,9.99999e-01
9.865456120e-01,8.53021e-01,9.99999e-01,9.99999e-01,9.99999e-01,8.53021e-01,9.99999e-01
9.914783401e-01,8.55704e-01,9.99999e-01,9.99999e-01,9.99999e-01,8.55704e-01,9.99999e-01
9.964357318e-01,8.58342e-01,9.99999e-01,9.99999e-01,9.99999e-01,8.58342e-01,9.99999e-01
1.001417910e+00,8.60935e-01,9.99999e-01,9.99999e-01,9.99999e-01,8.60935e-01,9.99999e-01
1.006425000e+00,8.63485e-01,9.99999e-01,9.99999e-01,9.99999e-01,8.63485e-01,9.99999e-01
1.011457125e+00,8.65993e-01,9.99999e-01,9.99999e-01,9.99999e-01,8.65993e-01,9.99999e-01
1.016514411e+00,8.68457e-01,9.99999e-01,9.99999e-01,9.99999e-01,8.68457e-01,9.99999e-01
1.021596983e+00,8.70858e-01,9.99999e-01,9.99999e-01,9.99974e-01,8.70880e-01,9.99999e-01
1.026704968e+00,8.71472e-01,9.99999e-01,9.99999e-01,9.97950e-01,8.73261e-01,9.99999e-01
1.031838492e+00,8.52074e-01,9.99999e-01,9.99999e-01,9.73128e-01,8.75602e-01,9.99999e-01
1.036997685e+00,2.25908e-01,9.99999e-01,9.99999e-01,2.57327e-01,8.77903e-01,9.99999e-01
1.042182673e+00,2.55683e-01,9.99999e-01,9.99999e-01,2.90495e-01,8.80164e-01,9.99999e-01
1.047393587e+00,2.49293e-01,9.99999e-01,9.99999e-01,2.82522e-01,8.82386e-01,9.99999e-01
1.052630555e+00,2.86246e-02,9.99999e-01,9.99999e-01,3.23599e-02,8.84569e-01,9.99999e-01
1.057893707e+00,5.61538e-02,9.99999e-01,9.99999e-01,6.33279e-02,8.86715e-01,9.99999e-01
1.063183176e+00,1.19906e-01,9.99999e-01,9.99999e-01,1.34905e-01,8.88823e-01,9.99999e-01
1.068499092e+00,2.32646e-01,9.99999e-01,9.99999e-01,2.61137e-01,8.90895e-01,9.99999e-01
1.073841587e+00,3.81671e-01,9.99999e-01,9.99999e-01,4.27436e-01,8.92930e-01,9.99999e-01
1.079210795e+00,5.23552e-01,9.99999e-01,9.99999e-01,5.85020e-01,8.94930e-01,9.99999e-01
1.084606849e+00,6.68796e-01,9.99999e-01,9.99999e-01,7.45679e-01,8.96894e-01,9.99999e-01
1.090029883e+00,7.72251e-01,9.99999e-01,9.99999e-01,8.59178e-01,8.98824e-01,9.99999e-01
1.095480033e+00,8.35774e-01,9.99999e-01,9.99999e-01,9.27895e-01,9.00720e-01,9.99999e-01
1.100957433e+00,8.70668e-01,9.99999e-01,9.99999e-01,9.64641e-01,9.02582e-01,9.99999e-01
1.106462220e+00,8.91036e-01,9.99999e-01,9.99999e-01,9.85211e-01,9.04411e-01,9.99999e-01
1.111994531e+00,9.01220e-01,9.99999e-01,9.99999e-01,9.94495e-01,9.06208e-01,9.99999e-01
1.117554504e+00,9.06744e-01,9.99999e-01,9.99999e-01,9.98646e-01,9.07972e-01,9.99999e-01
1.123142276e+00,9.09624e-01,9.99999e-01,9.99999e-01,9.99910e-01,9.09705e-01,9.99999e-01
1.128757988e+00,9.11407e-01,9.99999e-01,9.99999e-01,9.99999e-01,9.11407e-01,9.99999e-01
1.134401778e+00,9.13079e-01,9.99999e-01,9.99999e-01,9.99999e-01,9.13079e-01,9.99999e-01
1.140073787e+00,9.14720e-01,9.99999e-01,9.99999e-01,9.99999e-01,9.14720e-01,9.99999e-01
1.145774156e+00,9.16332e-01,9.99999e-01,9.99999e-01,9.99999e-01,9.16332e-01,9.99999e-01
1.151503026e+00,9.17915e-01,9.99999e-01,9.99999e-01,9.99999e-01,9.17915e-01,9.99999e-01
1.157260541e+00,9.19469e-01,9.99999e-01,9.99999e-01,9.99999e-01,9.19469e-01,9.99999e-01
1.163046844e+00,9.20995e-01,9.99999e-01,9.99999e-01,9.99999e-01,9.20995e-01,9.99999e-01
1.168862078e+00,9.22494e-01,9.99999e-01,9.99999e-01,9.99999e-01,9.22494e-01,9.99999e-01
1.174706389e+00,9.23965e-01,9.99999e-01,9.99999e-01,9.99999e-01,9.23965e-01,9.99999e-01
1.180579921e+00,9.25409e-01,9.99999e-01,9.99999e-01,9.99999e-01,9.25409e-01,9.99999e-01
1.186482820e+00,9.26825e-01,9.99999e-01,9.99999e-01,9.99996e-01,9.26827e-01,9.99999e-01
1.192415234e+00,9.21446e-01,9.99999e-01,9.99999e-01,9.92702e-01,9.28220e-01,9.99999e-01
1.198377311e+00,5.40141e-01,9.99999e-01,9.99999e-01,5.81055e-01,9.29586e-01,9.99999e-01
1.204369197e+00,2.91892e-07,9.99999e-01,9.99999e-01,3.13549e-07,9.30928e-01,9.99999e-01
1.210391043e+00,8.76270e-24,9.99999e-01,9.99999e-01,9.39955e-24,9.32245e-01,9.99999e-01
1.216442998e+00,7.92267e-21,9.99999e-01,9.99999e-01,8.48671e-21,9.33538e-01,9.99999e-01
1.222525213e+00,1.56356e-20,9.99999e-01,9.99999e-01,1.67260e-20,9.34807e-01,9.99999e-01
1.228637839e+00,7.92187e-16,9.99999e-01,9.99999e-01,8.46305e-16,9.36052e-01,9.99999e-01
