#,Wave/freq,Total,N2,O2,CO2,Rayleigh,CIA
4.000000000e-01,4.04090e-02,9.99999e-01,9.99999e-01,9.99999e-01,4.04090e-02,9.99999e-01
4.020000000e-01,4.30559e-02,9.99999e-01,9.99999e-01,9.99999e-01,4.30559e-02,9.99999e-01
4.040100000e-01,4.58156e-02,9.99999e-01,9.99999e-01,9.99999e-01,4.58156e-02,9.99999e-01
4.060300500e-01,4.86925e-02,9.99999e-01,9.99999e-01,9.99999e-01,4.86925e-02,9.99999e-01
4.080602003e-01,5.16878e-02,9.99999e-01,9.99999e-01,9.99999e-01,5.16878e-02,9.99999e-01
4.101005013e-01,5.48026e-02,9.99999e-01,9.99999e-01,9.99999e-01,5.48026e-02,9.99999e-01
4.121510038e-01,5.80381e-02,9.99999e-01,9.99999e-01,9.99999e-01,5.80381e-02,9.99999e-01
4.142117588e-01,6.13950e-02,9.99999e-01,9.99999e-01,9.99999e-01,6.13950e-02,9.99999e-01
4.162828176e-01,6.48739e-02,9.99999e-01,9.99999e-01,9.99999e-01,6.48739e-02,9.99999e-01
4.183642317e-01,6.84754e-02,9.99999e-01,9.99999e-01,9.99999e-01,6.84754e-02,9.99999e-01
4.204560528e-01,7.21998e-02,9.99999e-01,9.99999e-01,9.99999e-01,7.21998e-02,9.99999e-01
4.225583331e-01,7.60471e-02,9.99999e-01,9.99999e-01,9.99999e-01,7.60471e-02,9.99999e-01
4.246711247e-01,8.00173e-02,9.99999e-01,9.99999e-01,9.99999e-01,8.00173e-02,9.99999e-01
4.267944804e-01,8.41102e-02,9.99999e-01,9.99999e-01,9.99999e-01,8.41102e-02,9.99999e-01
4.289284528e-01,8.83254e-02,9.99999e-01,9.99999e-01,9.99999e-01,8.83254e-02,9.99999e-01
4.310730950e-01,9.26623e-02,9.99999e-01,9.99999e-01,9.99999e-01,9.26623e-02,9.99999e-01
4.332284605e-01,9.71202e-02,9.99999e-01,9.99999e-01,9.99999e-01,9.71202e-02,9.99999e-01
4.353946028e-01,1.01698e-01,9.99999e-01,9.99999e-01,9.99999e-01,1.01698e-01,9.99999e-01
4.375715758e-01,1.06395e-01,9.99999e-01,9.99999e-01,9.99999e-01,1.06395e-01,9.99999e-01
4.397594337e-01,1.11209e-01,9.99999e-01,9.99999e-01,9.99999e-01,1.11209e-01,9.99999e-01
4.419582309e-01,1.16140e-01,9.99999e-01,9.99999e-01,9.99999e-01,1.16140e-01,9.99999e-01
4.441680220e-01,1.21186e-01,9.99999e-01,9.99999e-01,9.99999e-01,1.21186e-01,9.99999e-01
4.463888621e-01,1.26344e-01,9.99999e-01,9.99999e-01,9.99999e-01,1.26344e-01,9.99999e-01
4.486208064e-01,1.31614e-01,9.99999e-01,9.99999e-01,9.99999e-01,1.31614e-01,9.99999e-01
4.508639105e-01,1.36993e-01,9.99999e-01,9.99999e-01,9.99999e-01,1.36993e-01,9.99999e-01
4.531182300e-01,1.42479e-01,9.99999e-01,9.99999e-01,9.99999e-01,1.42479e-01,9.99999e-01
4.553838212e-01,1.48070e-01,9.99999e-01,9.99999e-01,9.99999e-01,1.48070e-01,9.99999e-01
4.576607403e-01,1.53763e-01,9.99999e-01,9.99999e-01,9.99999e-01,1.53763e-01,9.99999e-01
4.599490440e-01,1.59556e-01,9.99999e-01,9.99999e-01,9.99999e-01,1.59556e-01,9.99999e-01
4.622487892e-01,1.65446e-01,9.99999e-01,9.99999e-01,9.99999e-01,1.65446e-01,9.99999e-01
4.645600332e-01,1.71432e-01,9.99999e-01,9.99999e-01,9.99999e-01,1.71432e-01,9.99999e-01
4.668828333e-01,1.77509e-01,9.99999e-01,9.99999e-01,9.99999e-01,1.77509e-01,9.99999e-01
4.692172475e-01,1.83675e-01,9.99999e-01,9.99999e-01,9.99999e-01,1.83675e-01,9.99999e-01
4.715633337e-01,1.89927e-01,9.99999e-01,9.99999e-01,9.99999e-01,1.89927e-01,9.99999e-01
4.739211504e-01,1.96262e-01,9.99999e-01,9.99999e-01,9.99999e-01,1.96262e-01,9.99999e-01
4.762907561e-01,2.02677e-01,9.99999e-01,9.99999e-01,9.99999e-01,2.02677e-01,9.99999e-01
4.786722099e-01,2.09168e-01,9.99999e-01,9.99999e-01,9.99999e-01,2.09168e-01,9.99999e-01
4.810655710e-01,2.15734e-01,9.99999e-01,9.99999e-01,9.99999e-01,2.15734e-01,9.99999e-01
4.834708988e-01,2.22369e-01,9.99999e-01,9.99999e-01,9.99999e-01,2.22369e-01,9.99999e-01
4.858882533e-01,2.29072e-01,9.99999e-01,9.99999e-01,9.99999e-01,2.29072e-01,9.99999e-01
4.883176946e-01,2.35838e-01,9.99999e-01,9.99999e-01,9.99999e-01,2.35838e-01,9.99999e-01
4.907592831e-01,2.42664e-01,9.99999e-01,9.99999e-01,9.99999e-01,2.42664e-01,9.99999e-01
4.932130795e-01,2.49548e-01,9.99999e-01,9.99999e-01,9.99999e-01,2.49548e-01,9.99999e-01
4.956791449e-01,2.56485e-01,9.99999e-01,9.99999e-01,9.99999e-01,2.56485e-01,9.99999e-01
4.981575406e-01,2.63472e-01,9.99999e-01,9.99999e-01,9.99999e-01,2.63472e-01,9.99999e-01
5.006483283e-01,2.70505e-01,9.99999e-01,9.99999e-01,9.99999e-01,2.70505e-01,9.99999e-01
5.031515699e-01,2.77582e-01,9.99999e-01,9.99999e-01,9.99999e-01,2.77582e-01,9.99999e-01
5.056673278e-01,2.84699e-01,9.99999e-01,9.99999e-01,9.99999e-01,2.84699e-01,9.99999e-01
5.081956644e-01,2.91853e-01,9.99999e-01,9.99999e-01,9.99999e-01,2.91853e-01,9.99999e-01
5.107366428e-01,2.99039e-01,9.99999e-01,9.99999e-01,9.99999e-01,2.99039e-01,9.99999e-01
5.132903260e-01,3.06255e-01,9.99999e-01,9.99999e-01,9.99999e-01,3.06255e-01,9.99999e-01
5.158567776e-01,3.13498e-01,9.99999e-01,9.99999e-01,9.99999e-01,3.13498e-01,9.99999e-01
5.184360615e-01,3.20764e-01,9.99999e-01,9.99999e-01,9.99999e-01,3.20764e-01,9.99999e-01
5.210282418e-01,3.28049e-01,9.99999e-01,9.99999e-01,9.99999e-01,3.28049e-01,9.99999e-01
5.236333830e-01,3.35352e-01,9.99999e-01,9.99999e-01,9.99999e-01,3.35352e-01,9.99999e-01
5.262515499e-01,3.42668e-01,9.99999e-01,9.99999e-01,9.99999e-01,3.42668e-01,9.99999e-01
5.288828077e-01,3.49994e-01,9.99999e-01,9.99999e-01,9.99999e-01,3.49994e-01,9.99999e-01
5.315272217e-01,3.57328e-01,9.99999e-01,9.99999e-01,9.99999e-01,3.57328e-01,9.99999e-01
5.341848578e-01,3.64665e-01,9.99999e-01,9.99999e-01,9.99999e-01,3.64665e-01,9.99999e-01
5.368557821e-01,3.72005e-01,9.99999e-01,9.99999e-01,9.99999e-01,3.72005e-01,9.99999e-01
5.395400610e-01,3.79342e-01,9.99999e-01,9.99999e-01,9.99999e-01,3.79342e-01,9.99999e-01
5.422377613e-01,3.86675e-01,9.99999e-01,9.99999e-01,9.99999e-01,3.86675e-01,9.99999e-01
5.449489501e-01,3.94001e-01,9.99999e-01,9.99999e-01,9.99999e-01,3.94001e-01,9.99999e-01
5.476736949e-01,4.01316e-01,9.99999e-01,9.99999e-01,9.99999e-01,4.01316e-01,9.99999e-01
5.504120634e-01,4.08619e-01,9.99999e-01,9.99999e-01,9.99999e-01,4.08619e-01,9.99999e-01
5.531641237e-01,4.15907e-01,9.99999e-01,9.99999e-01,9.99999e-01,4.15907e-01,9.99999e-01
5.559299443e-01,4.23177e-01,9.99999e-01,9.99999e-01,9.99999e-01,4.23177e-01,9.99999e-01
5.587095940e-01,4.30427e-01,9.99999e-01,9.99999e-01,9.99999e-01,4.30427e-01,9.99999e-01
5.615031420e-01,4.37654e-01,9.99999e-01,9.99999e-01,9.99999e-01,4.37654e-01,9.99999e-01
5.643106577e-01,4.44856e-01,9.99999e-01,9.99999e-01,9.99999e-01,4.44856e-01,9.99999e-01
5.671322110e-01,4.52031e-01,9.99999e-01,9.99999e-01,9.99999e-01,4.52031e-01,9.99999e-01
5.699678720e-01,4.59176e-01,9.99999e-01,9.99999e-01,9.99999e-01,4.59176e-01,9.99999e-01
5.728177114e-01,4.66290e-01,9.99999e-01,9.99999e-01,9.99999e-01,4.66290e-01,9.99999e-01
5.756818000e-01,4.73370e-01,9.99999e-01,9.99999e-01,9.99999e-01,4.73370e-01,9.99999e-01
5.785602090e-01,4.80415e-01,9.99999e-01,9.99999e-01,9.99999e-01,4.80415e-01,9.99999e-01
5.814530100e-01,4.87422e-01,9.99999e-01,9.99999e-01,9.99999e-01,4.87422e-01,9.99999e-01
5.843602750e-01,4.94390e-01,9.99999e-01,9.99999e-01,9.99999e-01,4.94390e-01,9.99999e-01
5.872820764e-01,5.01317e-01,9.99999e-01,9.99999e-01,9.99999e-01,5.01317e-01,9.99999e-01
5.902184868e-01,5.08202e-01,9.99999e-01,9.99999e-01,9.99999e-01,5.08202e-01,9.99999e-01
5.931695792e-01,5.15042e-01,9.99999e-01,9.99999e-01,9.99999e-01,5.15042e-01,9.99999e-01
5.961354271e-01,5.21837e-01,9.99999e-01,9.99999e-01,9.99999e-01,5.21837e-01,9.99999e-01
5.991161043e-01,5.28584e-01,9.99999e-01,9.99999e-01,9.99999e-01,5.28584e-01,9.99999e-01
6.021116848e-01,5.35282e-01,9.99999e-01,9.99999e-01,9.99999e-01,5.35282e-01,9.99999e-01
6.051222432e-01,5.41931e-01,9.99999e-01,9.99999e-01,9.99999e-01,5.41931e-01,9.99999e-01
6.081478544e-01,5.48529e-01,9.99999e-01,9.99999e-01,9.99999e-01,5.48529e-01,9.99999e-01
6.111885937e-01,5.55074e-01,9.99999e-01,9.99999e-01,9.99999e-01,5.55074e-01,9.99999e-01
6.142445367e-01,5.61566e-01,9.99999e-01,9.99999e-01,9.99999e-01,5.61566e-01,9.99999e-01
6.173157594e-01,5.68003e-01,9.99999e-01,9.99999e-01,9.99999e-01,5.68003e-01,9.99999e-01
6.204023382e-01,5.74384e-01,9.99999e-01,9.99999e-01,9.99999e-01,5.74384e-01,9.99999e-01
6.235043498e-01,5.80710e-01,9.99999e-01,9.99999e-01,9.99999e-01,5.80710e-01,9.99999e-01
6.266218716e-01,5.86977e-01,9.99999e-01,9.99999e-01,9.99999e-01,5.86977e-01,9.99999e-01
6.297549810e-01,5.93187e-01,9.99999e-01,9.99999e-01,9.99999e-01,5.93187e-01,9.99999e-01
6.329037559e-01,5.99338e-01,9.99999e-01,9.99999e-01,9.99999e-01,5.99338e-01,9.99999e-01
6.360682746e-01,6.05429e-01,9.99999e-01,9.99999e-01,9.99999e-01,6.05429e-01,9.99999e-01
6.392486160e-01,6.11460e-01,9.99999e-01,9.99999e-01,9.99999e-01,6.11460e-01,9.99999e-01
6.424448591e-01,6.17430e-01,9.99999e-01,9.99999e-01,9.99999e-01,6.17430e-01,9.99999e-01
6.456570834e-01,6.23339e-01,9.99999e-01,9.99999e-01,9.99999e-01,6.23339e-01,9.99999e-01
6.488853688e-01,6.29186e-01,9.99999e-01,9.99999e-01,9.99999e-01,6.29186e-01,9.99999e-01
6.521297956e-01,6.34970e-01,9.99999e-01,9.99999e-01,9.99999e-01,6.34970e-01,9.99999e-01
6.553904446e-01,6.40692e-01,9.99999e-01,9.99999e-01,9.99999e-01,6.40692e-01,9.99999e-01
6.586673968e-01,6.46351e-01,9.99999e-01,9.99999e-01,9.99999e-01,6.46351e-01,9.99999e-01
6.619607338e-01,6.51947e-01,9.99999e-01,9.99999e-01,9.99999e-01,6.51947e-01,9.99999e-01
6.652705375e-01,6.57479e-01,9.99999e-01,9.99999e-01,9.99999e-01,6.57479e-01,9.99999e-01
6.685968902e-01,6.62948e-01,9.99999e-01,9.99999e-01,9.99999e-01,6.62948e-01,9.99999e-01
6.719398746e-01,6.68353e-01,9.99999e-01,9.99999e-01,9.99999e-01,6.68353e-01,9.99999e-01
6.752995740e-01,6.73693e-01,9.99999e-01,9.99999e-01,9.99999e-01,6.73693e-01,9.99999e-01
6.786760719e-01,6.78970e-01,9.99999e-01,9.99999e-01,9.99999e-01,6.78970e-01,9.99999e-01
6.820694522e-01,6.84182e-01,9.99999e-01,9.99999e-01,9.99999e-01,6.84182e-01,9.99999e-01
6.854797995e-01,6.89331e-01,9.99999e-01,9.99999e-01,9.99999e-01,6.89331e-01,9.99999e-01
6.889071985e-01,6.94415e-01,9.99999e-01,9.99999e-01,9.99999e-01,6.94415e-01,9.99999e-01
6.923517345e-01,6.99435e-01,9.99999e-01,9.99999e-01,9.99999e-01,6.99435e-01,9.99999e-01
6.958134932e-01,7.04392e-01,9.99999e-01,9.99999e-01,9.99999e-01,7.04392e-01,9.99999e-01
6.992925606e-01,7.09284e-01,9.99999e-01,9.99999e-01,9.99999e-01,7.09284e-01,9.99999e-01
7.027890234e-01,7.14113e-01,9.99999e-01,9.99999e-01,9.99999e-01,7.14113e-01,9.99999e-01
7.063029686e-01,7.18878e-01,9.99999e-01,9.99999e-01,9.99999e-01,7.18878e-01,9.99999e-01
7.098344834e-01,7.23580e-01,9.99999e-01,9.99999e-01,9.99999e-01,7.23580e-01,9.99999e-01
7.133836558e-01,7.28219e-01,9.99999e-01,9.99999e-01,9.99999e-01,7.28219e-01,9.99999e-01
7.169505741e-01,7.32796e-01,9.99999e-01,9.99999e-01,9.99999e-01,7.32796e-01,9.99999e-01
7.205353270e-01,7.37309e-01,9.99999e-01,9.99999e-01,9.99999e-01,7.37309e-01,9.99999e-01
7.241380036e-01,7.41761e-01,9.99999e-01,9.99999e-01,9.99999e-01,7.41761e-01,9.99999e-01
7.277586936e-01,7.46151e-01,9.99999e-01,9.99999e-01,9.99999e-01,7.46151e-01,9.99999e-01
7.313974871e-01,7.50479e-01,9.99999e-01,9.99999e-01,9.99999e-01,7.50479e-01,9.99999e-01
7.350544745e-01,7.54746e-01,9.99999e-01,9.99999e-01,9.99999e-01,7.54746e-01,9.99999e-01
7.387297469e-01,7.58953e-01,9.99999e-01,9.99999e-01,9.99999e-01,7.58953e-01,9.99999e-01
7.424233956e-01,7.63099e-01,9.99999e-01,9.99999e-01,9.99999e-01,7.63099e-01,9.99999e-01
7.461355126e-01,7.67185e-01,9.99999e-01,9.99999e-01,9.99999e-01,7.67185e-01,9.99999e-01
7.498661902e-01,7.71212e-01,9.99999e-01,9.99999e-01,9.99999e-01,7.71212e-01,9.99999e-01
7.536155211e-01,7.75179e-01,9.99999e-01,9.99999e-01,9.99999e-01,7.75179e-01,9.99999e-01
7.573835987e-01,7.79088e-01,9.99999e-01,9.99999e-01,9.99999e-01,7.79088e-01,9.99999e-01
7.611705167e-01,7.82939e-01,9.99999e-01,9.99999e-01,9.99999e-01,7.82939e-01,9.99999e-01
7.649763693e-01,7.86733e-01,9.99999e-01,9.99999e-01,9.99999e-01,7.86733e-01,9.99999e-01
7.688012511e-01,7.90469e-01,9.99999e-01,9.99999e-01,9.99999e-01,7.90469e-01,9.99999e-01
7.726452574e-01,7.94149e-01,9.99999e-01,9.99999e-01,9.99999e-01,7.94149e-01,9.99999e-01
7.765084837e-01,7.97773e-01,9.99999e-01,9.99999e-01,9.99999e-01,7.97773e-01,9.99999e-01
7.803910261e-01,7.92840e-01,9.99999e-01,9.99999e-01,9.89391e-01,8.01341e-01,9.99999e-01
7.842929812e-01,7.67636e-01,9.99999e-01,9.99999e-01,9.53757e-01,8.04854e-01,9.99999e-01
7.882144461e-01,7.68444e-01,9.99999e-01,9.99999e-01,9.50676e-01,8.08313e-01,9.99999e-01
7.921555184e-01,7.88636e-01,9.99999e-01,9.99999e-01,9.71563e-01,8.11717e-01,9.99999e-01
7.961162960e-01,7.99419e-01,9.99999e-01,9.99999e-01,9.80798e-01,8.15069e-01,9.99999e-01
8.000968774e-01,8.09835e-01,9.99999e-01,9.99999e-01,9.89573e-01,8.18368e-01,9.99999e-01
8.040973618e-01,8.17150e-01,9.99999e-01,9.99999e-01,9.94566e-01,8.21614e-01,9.99999e-01
8.081178486e-01,8.22759e-01,9.99999e-01,9.99999e-01,9.97514e-01,8.24809e-01,9.99999e-01
8.121584379e-01,8.27312e-01,9.99999e-01,9.99999e-01,9.99224e-01,8.27953e-01,9.99999e-01
8.162192301e-01,8.30904e-01,9.99999e-01,9.99999e-01,9.99828e-01,8.31046e-01,9.99999e-01
8.203003262e-01,8.34088e-01,9.99999e-01,9.99999e-01,9.99996e-01,8.34090e-01,9.99999e-01
8.244018279e-01,8.37084e-01,9.99999e-01,9.99999e-01,9.99999e-01,8.37084e-01,9.99999e-01
8.285238370e-01,8.40030e-01,9.99999e-01,9.99999e-01,9.99999e-01,8.40030e-01,9.99999e-01
8.326664562e-01,8.42927e-01,9.99999e-01,9.99999e-01,9.99999e-01,8.42927e-01,9.99999e-01
8.368297885e-01,8.45777e-01,9.99999e-01,9.99999e-01,9.99999e-01,8.45777e-01,9.99999e-01
8.410139374e-01,8.48580e-01,9.99999e-01,9.99999e-01,9.99999e-01,8.48580e-01,9.99999e-01
8.452190071e-01,8.51336e-01,9.99999e-01,9.99999e-01,9.99999e-01,8.51336e-01,9.99999e-01
8.494451021e-01,8.54047e-01,9.99999e-01,9.99999e-01,9.99999e-01,8.54047e-01,9.99999e-01
8.536923276e-01,8.56713e-01,9.99999e-01,9.99999e-01,9.99999e-01,8.56713e-01,9.99999e-01
8.579607893e-01,8.59334e-01,9.99999e-01,9.99999e-01,9.99999e-01,8.59334e-01,9.99999e-01
8.622505932e-01,8.61911e-01,9.99999e-01,9.99999e-01,9.99999e-01,8.61911e-01,9.99999e-01
8.665618462e-01,8.37958e-01,9.99999e-01,9.99999e-01,9.69359e-01,8.64444e-01,9.99999e-01
8.708946554e-01,7.67073e-01,9.99999e-01,9.99999e-01,8.84810e-01,8.66935e-01,9.99999e-01
8.752491287e-01,7.88945e-01,9.99999e-01,9.99999e-01,9.07475e-01,8.69384e-01,9.99999e-01
8.796253743e-01,8.27136e-01,9.99999e-01,9.99999e-01,9.48778e-01,8.71791e-01,9.99999e-01
8.840235012e-01,8.50827e-01,9.99999e-01,9.99999e-01,9.73310e-01,8.74157e-01,9.99999e-01
8.884436187e-01,8.67169e-01,9.99999e-01,9.99999e-01,9.89373e-01,8.76482e-01,9.99999e-01
8.928858368e-01,8.74990e-01,9.99999e-01,9.99999e-01,9.95700e-01,8.78768e-01,9.99999e-01
8.973502660e-01,8.80086e-01,9.99999e-01,9.99999e-01,9.98947e-01,8.81014e-01,9.99999e-01
9.018370173e-01,8.83118e-01,9.99999e-01,9.99999e-01,9.99883e-01,8.83221e-01,9.99999e-01
9.063462024e-01,8.82826e-01,9.99999e-01,9.99999e-01,9.97103e-01,8.85390e-01,9.99999e-01
9.108779334e-01,8.81513e-01,9.99999e-01,9.99999e-01,9.93229e-01,8.87521e-01,9.99999e-01
9.154323231e-01,8.88185e-01,9.99999e-01,9.99999e-01,9.98391e-01,8.89616e-01,9.99999e-01
9.200094847e-01,8.70613e-01,9.99999e-01,9.99999e-01,9.76381e-01,8.91673e-01,9.99999e-01
9.246095321e-01,8.64431e-01,9.99999e-01,9.99999e-01,9.67254e-01,8.93695e-01,9.99999e-01
9.292325798e-01,8.72715e-01,9.99999e-01,9.99999e-01,9.74359e-01,8.95681e-01,9.99999e-01
9.338787427e-01,8.75234e-01,9.99999e-01,9.99999e-01,9.75047e-01,8.97632e-01,9.99999e-01
9.385481364e-01,8.83062e-01,9.99999e-01,9.99999e-01,9.81670e-01,8.99549e-01,9.99999e-01
9.432408771e-01,8.91266e-01,9.99999e-01,9.99999e-01,9.88721e-01,9.01432e-01,9.99999e-01
9.479570815e-01,8.98060e-01,9.99999e-01,9.99999e-01,9.94219e-01,9.03282e-01,9.99999e-01
9.526968669e-01,9.02567e-01,9.99999e-01,9.99999e-01,9.97202e-01,9.05098e-01,9.99999e-01
9.574603512e-01,9.05797e-01,9.99999e-01,9.99999e-01,9.98802e-01,9.06883e-01,9.99999e-01
9.622476530e-01,9.08296e-01,9.99999e-01,9.99999e-01,9.99625e-01,9.08635e-01,9.99999e-01
9.670588912e-01,9.10254e-01,9.99999e-01,9.99999e-01,9.99887e-01,9.10357e-01,9.99999e-01
9.718941857e-01,9.12040e-01,9.99999e-01,9.99999e-01,9.99991e-01,9.12047e-01,9.99999e-01
9.767536566e-01,9.13707e-01,9.99999e-01,9.99999e-01,9.99999e-01,9.13707e-01,9.99999e-01
9.816374249e-01,9.15337e-01,9.99999e-01,9.99999e-01,9.99999e-01,9.15337e-01,9.99999e-01
9.865456120e-01,9.16938e-01,9.99999e-01,9.99999e-01,9.99999e-01,9.16938e-01,9.99999e-01
9.914783401e-01,9.18510e-01,9.99999e-01,9.99999e-01,9.99999e-01,9.18510e-01,9.99999e-01
9.964357318e-01,9.20053e-01,9.99999e-01,9.99999e-01,9.99999e-01,9.20053e-01,9.99999e-01
1.001417910e+00,9.21569e-01,9.99999e-01,9.99999e-01,9.99999e-01,9.21569e-01,9.99999e-01
1.006425000e+00,9.23057e-01,9.99999e-01,9.99999e-01,9.99999e-01,9.23057e-01,9.99999e-01
1.011457125e+00,9.24518e-01,9.99999e-01,9.99999e-01,9.99999e-01,9.24518e-01,9.99999e-01
1.016514411e+00,9.25952e-01,9.99999e-01,9.99999e-01,9.99999e-01,9.25952e-01,9.99999e-01
1.021596983e+00,9.27347e-01,9.99999e-01,9.99999e-01,9.99985e-01,9.27360e-01,9.99999e-01
1.026704968e+00,9.27702e-01,9.99999e-01,9.99999e-01,9.98878e-01,9.28743e-01,9.99999e-01
1.031838492e+00,9.14035e-01,9.99999e-01,9.99999e-01,9.82727e-01,9.30100e-01,9.99999e-01
1.036997685e+00,3.75832e-01,9.99999e-01,9.99999e-01,4.03499e-01,9.31432e-01,9.99999e-01
1.042182673e+00,4.67201e-01,9.99999e-01,9.99999e-01,5.00891e-01,9.32740e-01,9.99999e-01
1.047393587e+00,4.12789e-01,9.99999e-01,9.99999e-01,4.41947e-01,9.34023e-01,9.99999e-01
1.052630555e+00,1.18754e-01,9.99999e-01,9.99999e-01,1.26971e-01,9.35283e-01,9.99999e-01
1.057893707e+00,1.92367e-01,9.99999e-01,9.99999e-01,2.05406e-01,9.36520e-01,9.99999e-01
1.063183176e+00,3.01319e-01,9.99999e-01,9.99999e-01,3.21326e-01,9.37734e-01,9.99999e-01
1.068499092e+00,4.47345e-01,9.99999e-01,9.99999e-01,4.76443e-01,9.38926e-01,9.99999e-01
1.073841587e+00,5.88007e-01,9.99999e-01,9.99999e-01,6.25475e-01,9.40095e-01,9.99999e-01
1.079210795e+00,7.00995e-01,9.99999e-01,9.99999e-01,7.44754e-01,9.41243e-01,9.99999e-01
1.084606849e+00,8.02564e-01,9.99999e-01,9.99999e-01,8.51644e-01,9.42369e-01,9.99999e-01
1.090029883e+00,8.68394e-01,9.99999e-01,9.99999e-01,9.20420e-01,9.43475e-01,9.99999e-01
1.095480033e+00,9.06740e-01,9.99999e-01,9.99999e-01,9.59959e-01,9.44560e-01,9.99999e-01
1.100957433e+00,9.27232e-01,9.99999e-01,9.99999e-01,9.80549e-01,9.45625e-01,9.99999e-01
1.106462220e+00,9.39007e-01,9.99999e-01,9.99999e-01,9.91905e-01,9.46670e-01,9.99999e-01
1.111994531e+00,9.44847e-01,9.99999e-01,9.99999e-01,9.96993e-01,9.47695e-01,9.99999e-01
1.117554504e+00,9.48001e-01,9.99999e-01,9.99999e-01,9.99261e-01,9.48701e-01,9.99999e-01
1.123142276e+00,9.49642e-01,9.99999e-01,9.99999e-01,9.99950e-01,9.49688e-01,9.99999e-01
1.128757988e+00,9.50657e-01,9.99999e-01,9.99999e-01,9.99999e-01,9.50657e-01,9.99999e-01
1.134401778e+00,9.51608e-01,9.99999e-01,9.99999e-01,9.99999e-01,9.51608e-01,9.99999e-01
1.140073787e+00,9.52541e-01,9.99999e-01,9.99999e-01,9.99999e-01,9.52541e-01,9.99999e-01
1.145774156e+00,9.53456e-01,9.99999e-01,9.99999e-01,9.99999e-01,9.53456e-01,9.99999e-01
1.151503026e+00,9.54354e-01,9.99999e-01,9.99999e-01,9.99999e-01,9.54354e-01,9.99999e-01
1.157260541e+00,9.55235e-01,9.99999e-01,9.99999e-01,9.99999e-01,9.55235e-01,9.99999e-01
1.163046844e+00,9.56100e-01,9.99999e-01,9.99999e-01,9.99999e-01,9.56100e-01,9.99999e-01
1.168862078e+00,9.56948e-01,9.99999e-01,9.99999e-01,9.99999e-01,9.56948e-01,9.99999e-01
1.174706389e+00,9.57780e-01,9.99999e-01,9.99999e-01,9.99999e-01,9.57780e-01,9.99999e-01
1.180579921e+00,9.58596e-01,9.99999e-01,9.99999e-01,9.99999e-01,9.58596e-01,9.99999e-01
1.186482820e+00,9.59396e-01,9.99999e-01,9.99999e-01,9.99998e-01,9.59397e-01,9.99999e-01
1.192415234e+00,9.56328e-01,9.99999e-01,9.99999e-01,9.95984e-01,9.60183e-01,9.99999e-01
1.198377311e+00,5.93619e-01,9.99999e-01,9.99999e-01,6.17739e-01,9.60954e-01,9.99999e-01
1.204369197e+00,5.78361e-05,9.99999e-01,9.99999e-01,6.01387e-05,9.61710e-01,9.99999e-01
1.210391043e+00,5.37510e-14,9.99999e-01,9.99999e-01,5.58479e-14,9.62452e-01,9.99999e-01
1.216442998e+00,2.45800e-12,9.99999e-01,9.99999e-01,2.55196e-12,9.63180e-01,9.99999e-01
1.222525213e+00,4.17772e-12,9.99999e-01,9.99999e-01,4.33420e-12,9.63894e-01,9.99999e-01
1.228637839e+00,3.02905e-09,9.99999e-01,9.99999e-01,3.14023e-09,9.64594e-01,9.99999e-01
