#,Wave/freq,Total,N2,O2,CO2,Rayleigh,CIA
4.000000000e-01,3.91855e-04,9.99999e-01,9.99999e-01,9.99999e-01,3.91855e-04,9.99999e-01
4.020000000e-01,4.57603e-04,9.99999e-01,9.99999e-01,9.99999e-01,4.57603e-04,9.99999e-01
4.040100000e-01,5.32662e-04,9.99999e-01,9.99999e-01,9.99999e-01,5.32662e-04,9.99999e-01
4.060300500e-01,6.18177e-04,9.99999e-01,9.99999e-01,9.99999e-01,6.18177e-04,9.99999e-01
4.080602003e-01,7.15313e-04,9.99999e-01,9.99999e-01,9.99999e-01,7.15313e-04,9.99999e-01
4.101005013e-01,8.25330e-04,9.99999e-01,9.99999e-01,9.99999e-01,8.25330e-04,9.99999e-01
4.121510038e-01,9.49581e-04,9.99999e-01,9.99999e-01,9.99999e-01,9.49581e-04,9.99999e-01
4.142117588e-01,1.08951e-03,9.99999e-01,9.99999e-01,9.99999e-01,1.08951e-03,9.99999e-01
4.162828176e-01,1.24668e-03,9.99999e-01,9.99999e-01,9.99999e-01,1.24668e-03,9.99999e-01
4.183642317e-01,1.42273e-03,9.99999e-01,9.99999e-01,9.99999e-01,1.42273e-03,9.99999e-01
4.204560528e-01,1.61940e-03,9.99999e-01,9.99999e-01,9.99999e-01,1.61940e-03,9.99999e-01
4.225583331e-01,1.83855e-03,9.99999e-01,9.99999e-01,9.99999e-01,1.83855e-03,9.99999e-01
4.246711247e-01,2.08214e-03,9.99999e-01,9.99999e-01,9.99999e-01,2.08214e-03,9.99999e-01
4.267944804e-01,2.35221e-03,9.99999e-01,9.99999e-01,9.99999e-01,2.35221e-03,9.99999e-01
4.289284528e-01,2.65091e-03,9.99999e-01,9.99999e-01,9.99999e-01,2.65091e-03,9.99999e-01
4.310730950e-01,2.98051e-03,9.99999e-01,9.99999e-01,9.99999e-01,2.98051e-03,9.99999e-01
4.332284605e-01,3.34333e-03,9.99999e-01,9.99999e-01,9.99999e-01,3.34333e-03,9.99999e-01
4.353946028e-01,3.74182e-03,9.99999e-01,9.99999e-01,9.99999e-01,3.74182e-03,9.99999e-01
4.375715758e-01,4.17850e-03,9.99999e-01,9.99999e-01,9.99999e-01,4.17850e-03,9.99999e-01
4.397594337e-01,4.65598e-03,9.99999e-01,9.99999e-01,9.99999e-01,4.65598e-03,9.99999e-01
4.419582309e-01,5.17694e-03,9.99999e-01,9.99999e-01,9.99999e-01,5.17694e-03,9.99999e-01
4.441680220e-01,5.74415e-03,9.99999e-01,9.99999e-01,9.99999e-01,5.74415e-03,9.99999e-01
4.463888621e-01,6.36044e-03,9.99999e-01,9.99999e-01,9.99999e-01,6.36044e-03,9.99999e-01
4.486208064e-01,7.02868e-03,9.99999e-01,9.99999e-01,9.99999e-01,7.02868e-03,9.99999e-01
4.508639105e-01,7.75181e-03,9.99999e-01,9.99999e-01,9.99999e-01,7.75181e-03,9.99999e-01
4.531182300e-01,8.53282e-03,9.99999e-01,9.99999e-01,9.99999e-01,8.53282e-03,9.99999e-01
4.553838212e-01,9.37473e-03,9.99999e-01,9.99999e-01,9.99999e-01,9.37473e-03,9.99999e-01
4.576607403e-01,1.02806e-02,9.99999e-01,9.99999e-01,9.99999e-01,1.02806e-02,9.99999e-01
4.599490440e-01,1.12534e-02,9.99999e-01,9.99999e-01,9.99999e-01,1.12534e-02,9.99999e-01
4.622487892e-01,1.22964e-02,9.99999e-01,9.99999e-01,9.99999e-01,1.22964e-02,9.99999e-01
4.645600332e-01,1.34125e-02,9.99999e-01,9.99999e-01,9.99999e-01,1.34125e-02,9.99999e-01
4.668828333e-01,1.46048e-02,9.99999e-01,9.99999e-01,9.99999e-01,1.46048e-02,9.99999e-01
4.692172475e-01,1.58764e-02,9.99999e-01,9.99999e-01,9.99999e-01,1.58764e-02,9.99999e-01
4.715633337e-01,1.72302e-02,9.99999e-01,9.99999e-01,9.99999e-01,1.72302e-02,9.99999e-01
4.739211504e-01,1.86693e-02,9.99999e-01,9.99999e-01,9.99999e-01,1.86693e-02,9.99999e-01
4.762907561e-01,2.01966e-02,9.99999e-01,9.99999e-01,9.99999e-01,2.01966e-02,9.99999e-01
4.786722099e-01,2.18149e-02,9.99999e-01,9.99999e-01,9.99999e-01,2.18149e-02,9.99999e-01
4.810655710e-01,2.35270e-02,9.99999e-01,9.99999e-01,9.99999e-01,2.35270e-02,9.99999e-01
4.834708988e-01,2.53356e-02,9.99999e-01,9.99999e-01,9.99999e-01,2.53356e-02,9.99999e-01
4.858882533e-01,2.72434e-02,9.99999e-01,9.99999e-01,9.99999e-01,2.72434e-02,9.99999e-01
4.883176946e-01,2.92529e-02,9.99999e-01,9.99999e-01,9.99999e-01,2.92529e-02,9.99999e-01
4.907592831e-01,3.13665e-02,9.99999e-01,9.99999e-01,9.99999e-01,3.13665e-02,9.99999e-01
4.932130795e-01,3.35865e-02,9.99999e-01,9.99999e-01,9.99999e-01,3.35865e-02,9.99999e-01
4.956791449e-01,3.59151e-02,9.99999e-01,9.99999e-01,9.99999e-01,3.59151e-02,9.99999e-01
4.981575406e-01,3.83543e-02,9.99999e-01,9.99999e-01,9.99999e-01,3.83543e-02,9.99999e-01
5.006483283e-01,4.09060e-02,9.99999e-01,9.99999e-01,9.99999e-01,4.09060e-02,9.99999e-01
5.031515699e-01,4.35720e-02,9.99999e-01,9.99999e-01,9.99999e-01,4.35720e-02,9.99999e-01
5.056673278e-01,4.63539e-02,9.99999e-01,9.99999e-01,9.99999e-01,4.63539e-02,9.99999e-01
5.081956644e-01,4.92532e-02,9.99999e-01,9.99999e-01,9.99999e-01,4.92532e-02,9.99999e-01
5.107366428e-01,5.22712e-02,9.99999e-01,9.99999e-01,9.99999e-01,5.22712e-02,9.99999e-01
5.132903260e-01,5.54089e-02,9.99999e-01,9.99999e-01,9.99999e-01,5.54089e-02,9.99999e-01
5.158567776e-01,5.86674e-02,9.99999e-01,9.99999e-01,9.99999e-01,5.86674e-02,9.99999e-01
5.184360615e-01,6.20475e-02,9.99999e-01,9.99999e-01,9.99999e-01,6.20475e-02,9.99999e-01
5.210282418e-01,6.55497e-02,9.99999e-01,9.99999e-01,9.99999e-01,6.55497e-02,9.99999e-01
5.236333830e-01,6.91746e-02,9.99999e-01,9.99999e-01,9.99999e-01,6.91746e-02,9.99999e-01
5.262515499e-01,7.29223e-02,9.99999e-01,9.99999e-01,9.99999e-01,7.29223e-02,9.99999e-01
5.288828077e-01,7.67930e-02,9.99999e-01,9.99999e-01,9.99999e-01,7.67930e-02,9.99999e-01
5.315272217e-01,8.07866e-02,9.99999e-01,9.99999e-01,9.99999e-01,8.07866e-02,9.99999e-01
5.341848578e-01,8.49029e-02,9.99999e-01,9.99999e-01,9.99999e-01,8.49029e-02,9.99999e-01
5.368557821e-01,8.91412e-02,9.99999e-01,9.99999e-01,9.99999e-01,8.91412e-02,9.99999e-01
5.395400610e-01,9.35012e-02,9.99999e-01,9.99999e-01,9.99999e-01,9.35012e-02,9.99999e-01
5.422377613e-01,9.79820e-02,9.99999e-01,9.99999e-01,9.99999e-01,9.79820e-02,9.99999e-01
5.449489501e-01,1.02583e-01,9.99999e-01,9.99999e-01,9.99999e-01,1.02583e-01,9.99999e-01
5.476736949e-01,1.07302e-01,9.99999e-01,9.99999e-01,9.99999e-01,1.07302e-01,9.99999e-01
5.504120634e-01,1.12139e-01,9.99999e-01,9.99999e-01,9.99999e-01,1.12139e-01,9.99999e-01
5.531641237e-01,1.17091e-01,9.99999e-01,9.99999e-01,9.99999e-01,1.17091e-01,9.99999e-01
5.559299443e-01,1.22159e-01,9.99999e-01,9.99999e-01,9.99999e-01,1.22159e-01,9.99999e-01
5.587095940e-01,1.27338e-01,9.99999e-01,9.99999e-01,9.99999e-01,1.27338e-01,9.99999e-01
5.615031420e-01,1.32629e-01,9.99999e-01,9.99999e-01,9.99999e-01,1.32629e-01,9.99999e-01
5.643106577e-01,1.38028e-01,9.99999e-01,9.99999e-01,9.99999e-01,1.38028e-01,9.99999e-01
5.671322110e-01,1.43535e-01,9.99999e-01,9.99999e-01,9.99999e-01,1.43535e-01,9.99999e-01
5.699678720e-01,1.49145e-01,9.99999e-01,9.99999e-01,9.99999e-01,1.49145e-01,9.99999e-01
5.728177114e-01,1.54857e-01,9.99999e-01,9.99999e-01,9.99999e-01,1.54857e-01,9.99999e-01
5.756818000e-01,1.60669e-01,9.99999e-01,9.99999e-01,9.99999e-01,1.60669e-01,9.99999e-01
5.785602090e-01,1.66578e-01,9.99999e-01,9.99999e-01,9.99999e-01,1.66578e-01,9.99999e-01
5.814530100e-01,1.72581e-01,9.99999e-01,9.99999e-01,9.99999e-01,1.72581e-01,9.99999e-01
5.843602750e-01,1.78675e-01,9.99999e-01,9.99999e-01,9.99999e-01,1.78675e-01,9.99999e-01
5.872820764e-01,1.84858e-01,9.99999e-01,9.99999e-01,9.99999e-01,1.84858e-01,9.99999e-01
5.902184868e-01,1.91126e-01,9.99999e-01,9.99999e-01,9.99999e-01,1.91126e-01,9.99999e-01
5.931695792e-01,1.97476e-01,9.99999e-01,9.99999e-01,9.99999e-01,1.97476e-01,9.99999e-01
5.961354271e-01,2.03906e-01,9.99999e-01,9.99999e-01,9.99999e-01,2.03906e-01,9.99999e-01
5.991161043e-01,2.10412e-01,9.99999e-01,9.99999e-01,9.99999e-01,2.10412e-01,9.99999e-01
6.021116848e-01,2.16991e-01,9.99999e-01,9.99999e-01,9.99999e-01,2.16991e-01,9.99999e-01
6.051222432e-01,2.23639e-01,9.99999e-01,9.99999e-01,9.99999e-01,2.23639e-01,9.99999e-01
6.081478544e-01,2.30354e-01,9.99999e-01,9.99999e-01,9.99999e-01,2.30354e-01,9.99999e-01
6.111885937e-01,2.37132e-01,9.99999e-01,9.99999e-01,9.99999e-01,2.37132e-01,9.99999e-01
6.142445367e-01,2.43970e-01,9.99999e-01,9.99999e-01,9.99999e-01,2.43970e-01,9.99999e-01
6.173157594e-01,2.50864e-01,9.99999e-01,9.99999e-01,9.99999e-01,2.50864e-01,9.99999e-01
6.204023382e-01,2.57810e-01,9.99999e-01,9.99999e-01,9.99999e-01,2.57810e-01,9.99999e-01
6.235043498e-01,2.64807e-01,9.99999e-01,9.99999e-01,9.99999e-01,2.64807e-01,9.99999e-01
6.266218716e-01,2.71849e-01,9.99999e-01,9.99999e-01,9.99999e-01,2.71849e-01,9.99999e-01
6.297549810e-01,2.78934e-01,9.99999e-01,9.99999e-01,9.99999e-01,2.78934e-01,9.99999e-01
6.329037559e-01,2.86058e-01,9.99999e-01,9.99999e-01,9.99999e-01,2.86058e-01,9.99999e-01
6.360682746e-01,2.93217e-01,9.99999e-01,9.99999e-01,9.99999e-01,2.93217e-01,9.99999e-01
6.392486160e-01,3.00410e-01,9.99999e-01,9.99999e-01,9.99999e-01,3.00410e-01,9.99999e-01
6.424448591e-01,3.07631e-01,9.99999e-01,9.99999e-01,9.99999e-01,3.07631e-01,9.99999e-01
6.456570834e-01,3.14879e-01,9.99999e-01,9.99999e-01,9.99999e-01,3.14879e-01,9.99999e-01
6.488853688e-01,3.22149e-01,9.99999e-01,9.99999e-01,9.99999e-01,3.22149e-01,9.99999e-01
6.521297956e-01,3.29438e-01,9.99999e-01,9.99999e-01,9.99999e-01,3.29438e-01,9.99999e-01
6.553904446e-01,3.36743e-01,9.99999e-01,9.99999e-01,9.99999e-01,3.36743e-01,9.99999e-01
6.586673968e-01,3.44061e-01,9.99999e-01,9.99999e-01,9.99999e-01,3.44061e-01,9.99999e-01
6.619607338e-01,3.51389e-01,9.99999e-01,9.99999e-01,9.99999e-01,3.51389e-01,9.99999e-01
6.652705375e-01,3.58723e-01,9.99999e-01,9.99999e-01,9.99999e-01,3.58723e-01,9.99999e-01
6.685968902e-01,3.66062e-01,9.99999e-01,9.99999e-01,9.99999e-01,3.66062e-01,9.99999e-01
6.719398746e-01,3.73401e-01,9.99999e-01,9.99999e-01,9.99999e-01,3.73401e-01,9.99999e-01
6.752995740e-01,3.80738e-01,9.99999e-01,9.99999e-01,9.99999e-01,3.80738e-01,9.99999e-01
6.786760719e-01,3.88070e-01,9.99999e-01,9.99999e-01,9.99999e-01,3.88070e-01,9.99999e-01
6.820694522e-01,3.95394e-01,9.99999e-01,9.99999e-01,9.99999e-01,3.95394e-01,9.99999e-01
6.854797995e-01,4.02707e-01,9.99999e-01,9.99999e-01,9.99999e-01,4.02707e-01,9.99999e-01
6.889071985e-01,4.10007e-01,9.99999e-01,9.99999e-01,9.99999e-01,4.10007e-01,9.99999e-01
6.923517345e-01,4.17292e-01,9.99999e-01,9.99999e-01,9.99999e-01,4.17292e-01,9.99999e-01
6.958134932e-01,4.24558e-01,9.99999e-01,9.99999e-01,9.99999e-01,4.24558e-01,9.99999e-01
6.992925606e-01,4.31804e-01,9.99999e-01,9.99999e-01,9.99999e-01,4.31804e-01,9.99999e-01
7.027890234e-01,4.39026e-01,9.99999e-01,9.99999e-01,9.99999e-01,4.39026e-01,9.99999e-01
7.063029686e-01,4.46223e-01,9.99999e-01,9.99999e-01,9.99999e-01,4.46223e-01,9.99999e-01
7.098344834e-01,4.53392e-01,9.99999e-01,9.99999e-01,9.99999e-01,4.53392e-01,9.99999e-01
7.133836558e-01,4.60532e-01,9.99999e-01,9.99999e-01,9.99999e-01,4.60532e-01,9.99999e-01
7.169505741e-01,4.67640e-01,9.99999e-01,9.99999e-01,9.99999e-01,4.67640e-01,9.99999e-01
7.205353270e-01,4.74713e-01,9.99999e-01,9.99999e-01,9.99999e-01,4.74713e-01,9.99999e-01
7.241380036e-01,4.81751e-01,9.99999e-01,9.99999e-01,9.99999e-01,4.81751e-01,9.99999e-01
7.277586936e-01,4.88751e-01,9.99999e-01,9.99999e-01,9.99999e-01,4.88751e-01,9.99999e-01
7.313974871e-01,4.95711e-01,9.99999e-01,9.99999e-01,9.99999e-01,4.95711e-01,9.99999e-01
7.350544745e-01,5.02630e-01,9.99999e-01,9.99999e-01,9.99999e-01,5.02630e-01,9.99999e-01
7.387297469e-01,5.09507e-01,9.99999e-01,9.99999e-01,9.99999e-01,5.09507e-01,9.99999e-01
7.424233956e-01,5.16338e-01,9.99999e-01,9.99999e-01,9.99999e-01,5.16338e-01,9.99999e-01
7.461355126e-01,5.23124e-01,9.99999e-01,9.99999e-01,9.99999e-01,5.23124e-01,9.99999e-01
7.498661902e-01,5.29862e-01,9.99999e-01,9.99999e-01,9.99999e-01,5.29862e-01,9.99999e-01
7.536155211e-01,5.36551e-01,9.99999e-01,9.99999e-01,9.99999e-01,5.36551e-01,9.99999e-01
7.573835987e-01,5.43191e-01,9.99999e-01,9.99999e-01,9.99999e-01,5.43191e-01,9.99999e-01
7.611705167e-01,5.49778e-01,9.99999e-01,9.99999e-01,9.99999e-01,5.49778e-01,9.99999e-01
7.649763693e-01,5.56313e-01,9.99999e-01,9.99999e-01,9.99999e-01,5.56313e-01,9.99999e-01
7.688012511e-01,5.62795e-01,9.99999e-01,9.99999e-01,9.99999e-01,5.62795e-01,9.99999e-01
7.726452574e-01,5.69221e-01,9.99999e-01,9.99999e-01,9.99999e-01,5.69221e-01,9.99999e-01
7.765084837e-01,5.75592e-01,9.99999e-01,9.99999e-01,9.99999e-01,5.75592e-01,9.99999e-01
7.803910261e-01,5.66914e-01,9.99999e-01,9.99999e-01,9.74234e-01,5.81907e-01,9.99999e-01
7.842929812e-01,5.25107e-01,9.99999e-01,9.99999e-01,8.92791e-01,5.88163e-01,9.99999e-01
7.882144461e-01,5.26283e-01,9.99999e-01,9.99999e-01,8.85458e-01,5.94362e-01,9.99999e-01
7.921555184e-01,5.59684e-01,9.99999e-01,9.99999e-01,9.32026e-01,6.00501e-01,9.99999e-01
7.961162960e-01,5.78700e-01,9.99999e-01,9.99999e-01,9.54035e-01,6.06581e-01,9.99999e-01
8.000968774e-01,5.97181e-01,9.99999e-01,9.99999e-01,9.74828e-01,6.12601e-01,9.99999e-01
8.040973618e-01,6.10447e-01,9.99999e-01,9.99999e-01,9.86885e-01,6.18559e-01,9.99999e-01
8.081178486e-01,6.20685e-01,9.99999e-01,9.99999e-01,9.93960e-01,6.24456e-01,9.99999e-01
8.121584379e-01,6.29114e-01,9.99999e-01,9.99999e-01,9.98131e-01,6.30291e-01,9.99999e-01
8.162192301e-01,6.35802e-01,9.99999e-01,9.99999e-01,9.99586e-01,6.36064e-01,9.99999e-01
8.203003262e-01,6.41770e-01,9.99999e-01,9.99999e-01,9.99993e-01,6.41774e-01,9.99999e-01
8.244018279e-01,6.47421e-01,9.99999e-01,9.99999e-01,9.99999e-01,6.47421e-01,9.99999e-01
8.285238370e-01,6.53005e-01,9.99999e-01,9.99999e-01,9.99999e-01,6.53005e-01,9.99999e-01
8.326664562e-01,6.58525e-01,9.99999e-01,9.99999e-01,9.99999e-01,6.58525e-01,9.99999e-01
8.368297885e-01,6.63981e-01,9.99999e-01,9.99999e-01,9.99999e-01,6.63981e-01,9.99999e-01
8.410139374e-01,6.69374e-01,9.99999e-01,9.99999e-01,9.99999e-01,6.69374e-01,9.99999e-01
8.452190071e-01,6.74702e-01,9.99999e-01,9.99999e-01,9.99999e-01,6.74702e-01,9.99999e-01
8.494451021e-01,6.79967e-01,9.99999e-01,9.99999e-01,9.99999e-01,6.79967e-01,9.99999e-01
8.536923276e-01,6.85167e-01,9.99999e-01,9.99999e-01,9.99999e-01,6.85167e-01,9.99999e-01
8.579607893e-01,6.90303e-01,9.99999e-01,9.99999e-01,9.99999e-01,6.90303e-01,9.99999e-01
8.622505932e-01,6.95375e-01,9.99999e-01,9.99999e-01,9.99999e-01,6.95375e-01,9.99999e-01
8.665618462e-01,6.57053e-01,9.99999e-01,9.99999e-01,9.38133e-01,7.00383e-01,9.99999e-01
8.708946554e-01,5.27729e-01,9.99999e-01,9.99999e-01,7.48203e-01,7.05327e-01,9.99999e-01
8.752491287e-01,5.62990e-01,9.99999e-01,9.99999e-01,7.92712e-01,7.10208e-01,9.99999e-01
8.796253743e-01,6.29779e-01,9.99999e-01,9.99999e-01,8.80779e-01,7.15024e-01,9.99999e-01
8.840235012e-01,6.74040e-01,9.99999e-01,9.99999e-01,9.36455e-01,7.19778e-01,9.99999e-01
8.884436187e-01,7.05983e-01,9.99999e-01,9.99999e-01,9.74485e-01,7.24468e-01,9.99999e-01
8.928858368e-01,7.21507e-01,9.99999e-01,9.99999e-01,9.89592e-01,7.29095e-01,9.99999e-01
8.973502660e-01,7.31799e-01,9.99999e-01,9.99999e-01,9.97463e-01,7.33659e-01,9.99999e-01
9.018370173e-01,7.37955e-01,9.99999e-01,9.99999e-01,9.99719e-01,7.38161e-01,9.99999e-01
9.063462024e-01,7.37270e-01,9.99999e-01,9.99999e-01,9.92820e-01,7.42601e-01,9.99999e-01
9.108779334e-01,7.34744e-01,9.99999e-01,9.99999e-01,9.83620e-01,7.46979e-01,9.99999e-01
9.154323231e-01,7.48391e-01,9.99999e-01,9.99999e-01,9.96132e-01,7.51296e-01,9.99999e-01
9.200094847e-01,7.13453e-01,9.99999e-01,9.99999e-01,9.44281e-01,7.55551e-01,9.99999e-01
9.246095321e-01,7.00698e-01,9.99999e-01,9.99999e-01,9.22278e-01,7.59746e-01,9.99999e-01
9.292325798e-01,7.16845e-01,9.99999e-01,9.99999e-01,9.38425e-01,7.63881e-01,9.99999e-01
9.338787427e-01,7.22263e-01,9.99999e-01,9.99999e-01,9.40500e-01,7.67956e-01,9.99999e-01
9.385481364e-01,7.37988e-01,9.99999e-01,9.99999e-01,9.55978e-01,7.71971e-01,9.99999e-01
9.432408771e-01,7.54853e-01,9.99999e-01,9.99999e-01,9.72838e-01,7.75927e-01,9.99999e-01
9.479570815e-01,7.68890e-01,9.99999e-01,9.99999e-01,9.85976e-01,7.79825e-01,9.99999e-01
9.526968669e-01,7.78348e-01,9.99999e-01,9.99999e-01,9.93214e-01,7.83665e-01,9.99999e-01
9.574603512e-01,7.85160e-01,9.99999e-01,9.99999e-01,9.97093e-01,7.87448e-01,9.99999e-01
9.622476530e-01,7.90456e-01,9.99999e-01,9.99999e-01,9.99092e-01,7.91174e-01,9.99999e-01
9.670588912e-01,7.94627e-01,9.99999e-01,9.99999e-01,9.99727e-01,7.94843e-01,9.99999e-01
9.718941857e-01,7.98440e-01,9.99999e-01,9.99999e-01,9.99980e-01,7.98456e-01,9.99999e-01
9.767536566e-01,8.02013e-01,9.99999e-01,9.99999e-01,9.99999e-01,8.02013e-01,9.99999e-01
9.816374249e-01,8.05516e-01,9.99999e-01,9.99999e-01,9.99999e-01,8.05516e-01,9.99999e-01
9.865456120e-01,8.08965e-01,9.99999e-01,9.99999e-01,9.99999e-01,8.08965e-01,9.99999e-01
9.914783401e-01,8.12359e-01,9.99999e-01,9.99999e-01,9.99999e-01,8.12359e-01,9.99999e-01
9.964357318e-01,8.15701e-01,9.99999e-01,9.99999e-01,9.99999e-01,8.15701e-01,9.99999e-01
1.001417910e+00,8.18989e-01,9.99999e-01,9.99999e-01,9.99999e-01,8.18989e-01,9.99999e-01
1.006425000e+00,8.22226e-01,9.99999e-01,9.99999e-01,9.99999e-01,8.22226e-01,9.99999e-01
1.011457125e+00,8.25411e-01,9.99999e-01,9.99999e-01,9.99999e-01,8.25411e-01,9.99999e-01
1.016514411e+00,8.28545e-01,9.99999e-01,9.99999e-01,9.99999e-01,8.28545e-01,9.99999e-01
1.021596983e+00,8.31598e-01,9.99999e-01,9.99999e-01,9.99961e-01,8.31629e-01,9.99999e-01
1.026704968e+00,8.32328e-01,9.99999e-01,9.99999e-01,9.97201e-01,8.34663e-01,9.99999e-01
1.031838492e+00,8.07357e-01,9.99999e-01,9.99999e-01,9.63837e-01,8.37648e-01,9.99999e-01
1.036997685e+00,1.67617e-01,9.99999e-01,9.99999e-01,1.99405e-01,8.40585e-01,9.99999e-01
1.042182673e+00,1.67858e-01,9.99999e-01,9.99999e-01,1.99008e-01,8.43473e-01,9.99999e-01
1.047393587e+00,1.75880e-01,9.99999e-01,9.99999e-01,2.07819e-01,8.46314e-01,9.99999e-01
1.052630555e+00,1.09382e-02,9.99999e-01,9.99999e-01,1.28820e-02,8.49108e-01,9.99999e-01
1.057893707e+00,2.43708e-02,9.99999e-01,9.99999e-01,2.86090e-02,8.51856e-01,9.99999e-01
1.063183176e+00,6.33480e-02,9.99999e-01,9.99999e-01,7.41295e-02,8.54558e-01,9.99999e-01
1.068499092e+00,1.44989e-01,9.99999e-01,9.99999e-01,1.69140e-01,8.57215e-01,9.99999e-01
1.073841587e+00,2.80104e-01,9.99999e-01,9.99999e-01,3.25767e-01,8.59827e-01,9.99999e-01
1.079210795e+00,4.24311e-01,9.99999e-01,9.99999e-01,4.92013e-01,8.62396e-01,9.99999e-01
1.084606849e+00,5.86312e-01,9.99999e-01,9.99999e-01,6.77878e-01,8.64922e-01,9.99999e-01
1.090029883e+00,7.09068e-01,9.99999e-01,9.99999e-01,8.17458e-01,8.67404e-01,9.99999e-01
1.095480033e+00,7.87652e-01,9.99999e-01,9.99999e-01,9.05508e-01,8.69845e-01,9.99999e-01
1.100957433e+00,8.31547e-01,9.99999e-01,9.99999e-01,9.53341e-01,8.72244e-01,9.99999e-01
1.106462220e+00,8.57496e-01,9.99999e-01,9.99999e-01,9.80440e-01,8.74602e-01,9.99999e-01
1.111994531e+00,8.70525e-01,9.99999e-01,9.99999e-01,9.92706e-01,8.76920e-01,9.99999e-01
1.117554504e+00,8.77629e-01,9.99999e-01,9.99999e-01,9.98215e-01,8.79198e-01,9.99999e-01
1.123142276e+00,8.81333e-01,9.99999e-01,9.99999e-01,9.99882e-01,8.81437e-01,9.99999e-01
1.128757988e+00,8.83636e-01,9.99999e-01,9.99999e-01,9.99999e-01,8.83637e-01,9.99999e-01
1.134401778e+00,8.85798e-01,9.99999e-01,9.99999e-01,9.99999e-01,8.85798e-01,9.99999e-01
1.140073787e+00,8.87923e-01,9.99999e-01,9.99999e-01,9.99999e-01,8.87923e-01,9.99999e-01
1.145774156e+00,8.90010e-01,9.99999e-01,9.99999e-01,9.99999e-01,8.90010e-01,9.99999e-01
1.151503026e+00,8.92061e-01,9.99999e-01,9.99999e-01,9.99999e-01,8.92061e-01,9.99999e-01
1.157260541e+00,8.94076e-01,9.99999e-01,9.99999e-01,9.99999e-01,8.94076e-01,9.99999e-01
1.163046844e+00,8.96055e-01,9.99999e-01,9.99999e-01,9.99999e-01,8.96055e-01,9.99999e-01
1.168862078e+00,8.98000e-01,9.99999e-01,9.99999e-01,9.99999e-01,8.98000e-01,9.99999e-01
1.174706389e+00,8.99910e-01,9.99999e-01,9.99999e-01,9.99999e-01,8.99910e-01,9.99999e-01
1.180579921e+00,9.01787e-01,9.99999e-01,9.99999e-01,9.99999e-01,9.01787e-01,9.99999e-01
1.186482820e+00,9.03625e-01,9.99999e-01,9.99999e-01,9.99994e-01,9.03630e-01,9.99999e-01
1.192415234e+00,8.96389e-01,9.99999e-01,9.99999e-01,9.90003e-01,9.05440e-01,9.99999e-01
1.198377311e+00,5.16736e-01,9.99999e-01,9.99999e-01,5.69582e-01,9.07219e-01,9.99999e-01
1.204369197e+00,6.18026e-09,9.99999e-01,9.99999e-01,6.79922e-09,9.08965e-01,9.99999e-01
1.210391043e+00,5.66695e-31,9.99999e-01,9.99999e-01,6.22276e-31,9.10681e-01,9.99999e-01
1.216442998e+00,4.94561e-27,9.99999e-01,9.99999e-01,5.42064e-27,9.12365e-01,9.99999e-01
1.222525213e+00,1.19273e-26,9.99999e-01,9.99999e-01,1.30493e-26,9.14019e-01,9.99999e-01
1.228637839e+00,1.30030e-20,9.99999e-01,9.99999e-01,1.42009e-20,9.15644e-01,9.99999e-01
