#,Wave/freq,Total,N2,O2,CO2,Rayleigh,CIA
4.000000000e-01,4.52879e-15,9.99999e-01,9.99999e-01,9.99999e-01,4.52879e-15,9.99999e-01
4.020000000e-01,8.70151e-15,9.99999e-01,9.99999e-01,9.99999e-01,8.70151e-15,9.99999e-01
4.040100000e-01,1.64939e-14,9.99999e-01,9.99999e-01,9.99999e-01,1.64939e-14,9.99999e-01
4.060300500e-01,3.08720e-14,9.99999e-01,9.99999e-01,9.99999e-01,3.08720e-14,9.99999e-01
4.080602003e-01,5.70728e-14,9.99999e-01,9.99999e-01,9.99999e-01,5.70728e-14,9.99999e-01
4.101005013e-01,1.04237e-13,9.99999e-01,9.99999e-01,9.99999e-01,1.04237e-13,9.99999e-01
4.121510038e-01,1.88126e-13,9.99999e-01,9.99999e-01,9.99999e-01,1.88126e-13,9.99999e-01
4.142117588e-01,3.35590e-13,9.99999e-01,9.99999e-01,9.99999e-01,3.35590e-13,9.99999e-01
4.162828176e-01,5.91842e-13,9.99999e-01,9.99999e-01,9.99999e-01,5.91842e-13,9.99999e-01
4.183642317e-01,1.03213e-12,9.99999e-01,9.99999e-01,9.99999e-01,1.03213e-12,9.99999e-01
4.204560528e-01,1.78030e-12,9.99999e-01,9.99999e-01,9.99999e-01,1.78030e-12,9.99999e-01
4.225583331e-01,3.03791e-12,9.99999e-01,9.99999e-01,9.99999e-01,3.03791e-12,9.99999e-01
4.246711247e-01,5.12948e-12,9.99999e-01,9.99999e-01,9.99999e-01,5.12948e-12,9.99999e-01
4.267944804e-01,8.57190e-12,9.99999e-01,9.99999e-01,9.99999e-01,8.57190e-12,9.99999e-01
4.289284528e-01,1.41800e-11,9.99999e-01,9.99999e-01,9.99999e-01,1.41800e-11,9.99999e-01
4.310730950e-01,2.32251e-11,9.99999e-01,9.99999e-01,9.99999e-01,2.32251e-11,9.99999e-01
4.332284605e-01,3.76709e-11,9.99999e-01,9.99999e-01,9.99999e-01,3.76709e-11,9.99999e-01
4.353946028e-01,6.05210e-11,9.99999e-01,9.99999e-01,9.99999e-01,6.05210e-11,9.99999e-01
4.375715758e-01,9.63249e-11,9.99999e-01,9.99999e-01,9.99999e-01,9.63249e-11,9.99999e-01
4.397594337e-01,1.51909e-10,9.99999e-01,9.99999e-01,9.99999e-01,1.51909e-10,9.99999e-01
4.419582309e-01,2.37423e-10,9.99999e-01,9.99999e-01,9.99999e-01,2.37423e-10,9.99999e-01
4.441680220e-01,3.67815e-10,9.99999e-01,9.99999e-01,9.99999e-01,3.67815e-10,9.99999e-01
4.463888621e-01,5.64913e-10,9.99999e-01,9.99999e-01,9.99999e-01,5.64913e-10,9.99999e-01
4.486208064e-01,8.60307e-10,9.99999e-01,9.99999e-01,9.99999e-01,8.60307e-10,9.99999e-01
4.508639105e-01,1.29932e-09,9.99999e-01,9.99999e-01,9.99999e-01,1.29932e-09,9.99999e-01
4.531182300e-01,1.94645e-09,9.99999e-01,9.99999e-01,9.99999e-01,1.94645e-09,9.99999e-01
4.553838212e-01,2.89269e-09,9.99999e-01,9.99999e-01,9.99999e-01,2.89269e-09,9.99999e-01
4.576607403e-01,4.26542e-09,9.99999e-01,9.99999e-01,9.99999e-01,4.26542e-09,9.99999e-01
4.599490440e-01,6.24153e-09,9.99999e-01,9.99999e-01,9.99999e-01,6.24153e-09,9.99999e-01
4.622487892e-01,9.06472e-09,9.99999e-01,9.99999e-01,9.99999e-01,9.06472e-09,9.99999e-01
4.645600332e-01,1.30682e-08,9.99999e-01,9.99999e-01,9.99999e-01,1.30682e-08,9.99999e-01
4.668828333e-01,1.87043e-08,9.99999e-01,9.99999e-01,9.99999e-01,1.87043e-08,9.99999e-01
4.692172475e-01,2.65821e-08,9.99999e-01,9.99999e-01,9.99999e-01,2.65821e-08,9.99999e-01
4.715633337e-01,3.75165e-08,9.99999e-01,9.99999e-01,9.99999e-01,3.75165e-08,9.99999e-01
4.739211504e-01,5.25896e-08,9.99999e-01,9.99999e-01,9.99999e-01,5.25896e-08,9.99999e-01
4.762907561e-01,7.32285e-08,9.99999e-01,9.99999e-01,9.99999e-01,7.32285e-08,9.99999e-01
4.786722099e-01,1.01302e-07,9.99999e-01,9.99999e-01,9.99999e-01,1.01302e-07,9.99999e-01
4.810655710e-01,1.39244e-07,9.99999e-01,9.99999e-01,9.99999e-01,1.39244e-07,9.99999e-01
4.834708988e-01,1.90197e-07,9.99999e-01,9.99999e-01,9.99999e-01,1.90197e-07,9.99999e-01
4.858882533e-01,2.58200e-07,9.99999e-01,9.99999e-01,9.99999e-01,2.58200e-07,9.99999e-01
4.883176946e-01,3.48407e-07,9.99999e-01,9.99999e-01,9.99999e-01,3.48407e-07,9.99999e-01
4.907592831e-01,4.67354e-07,9.99999e-01,9.99999e-01,9.99999e-01,4.67354e-07,9.99999e-01
4.932130795e-01,6.23285e-07,9.99999e-01,9.99999e-01,9.99999e-01,6.23285e-07,9.99999e-01
4.956791449e-01,8.26526e-07,9.99999e-01,9.99999e-01,9.99999e-01,8.26526e-07,9.99999e-01
4.981575406e-01,1.08995e-06,9.99999e-01,9.99999e-01,9.99999e-01,1.08995e-06,9.99999e-01
5.006483283e-01,1.42949e-06,9.99999e-01,9.99999e-01,9.99999e-01,1.42949e-06,9.99999e-01
5.031515699e-01,1.86480e-06,9.99999e-01,9.99999e-01,9.99999e-01,1.86480e-06,9.99999e-01
5.056673278e-01,2.41992e-06,9.99999e-01,9.99999e-01,9.99999e-01,2.41992e-06,9.99999e-01
5.081956644e-01,3.12417e-06,9.99999e-01,9.99999e-01,9.99999e-01,3.12417e-06,9.99999e-01
5.107366428e-01,4.01307e-06,9.99999e-01,9.99999e-01,9.99999e-01,4.01307e-06,9.99999e-01
5.132903260e-01,5.12946e-06,9.99999e-01,9.99999e-01,9.99999e-01,5.12946e-06,9.99999e-01
5.158567776e-01,6.52471e-06,9.99999e-01,9.99999e-01,9.99999e-01,6.52471e-06,9.99999e-01
5.184360615e-01,8.26012e-06,9.99999e-01,9.99999e-01,9.99999e-01,8.26012e-06,9.99999e-01
5.210282418e-01,1.04085e-05,9.99999e-01,9.99999e-01,9.99999e-01,1.04085e-05,9.99999e-01
5.236333830e-01,1.30559e-05,9.99999e-01,9.99999e-01,9.99999e-01,1.30559e-05,9.99999e-01
5.262515499e-01,1.63036e-05,9.99999e-01,9.99999e-01,9.99999e-01,1.63036e-05,9.99999e-01
5.288828077e-01,2.02699e-05,9.99999e-01,9.99999e-01,9.99999e-01,2.02699e-05,9.99999e-01
5.315272217e-01,2.50930e-05,9.99999e-01,9.99999e-01,9.99999e-01,2.50930e-05,9.99999e-01
5.341848578e-01,3.09331e-05,9.99999e-01,9.99999e-01,9.99999e-01,3.09331e-05,9.99999e-01
5.368557821e-01,3.79751e-05,9.99999e-01,9.99999e-01,9.99999e-01,3.79751e-05,9.99999e-01
5.395400610e-01,4.64317e-05,9.99999e-01,9.99999e-01,9.99999e-01,4.64317e-05,9.99999e-01
5.422377613e-01,5.65465e-05,9.99999e-01,9.99999e-01,9.99999e-01,5.65465e-05,9.99999e-01
5.449489501e-01,6.85971e-05,9.99999e-01,9.99999e-01,9.99999e-01,6.85971e-05,9.99999e-01
5.476736949e-01,8.28990e-05,9.99999e-01,9.99999e-01,9.99999e-01,8.28990e-05,9.99999e-01
5.504120634e-01,9.98086e-05,9.99999e-01,9.99999e-01,9.99999e-01,9.98086e-05,9.99999e-01
5.531641237e-01,1.19728e-04,9.99999e-01,9.99999e-01,9.99999e-01,1.19728e-04,9.99999e-01
5.559299443e-01,1.43107e-04,9.99999e-01,9.99999e-01,9.99999e-01,1.43107e-04,9.99999e-01
5.587095940e-01,1.70449e-04,9.99999e-01,9.99999e-01,9.99999e-01,1.70449e-04,9.99999e-01
5.615031420e-01,2.02316e-04,9.99999e-01,9.99999e-01,9.99999e-01,2.02316e-04,9.99999e-01
5.643106577e-01,2.39329e-04,9.99999e-01,9.99999e-01,9.99999e-01,2.39329e-04,9.99999e-01
5.671322110e-01,2.82175e-04,9.99999e-01,9.99999e-01,9.99999e-01,2.82175e-04,9.99999e-01
5.699678720e-01,3.31612e-04,9.99999e-01,9.99999e-01,9.99999e-01,3.31612e-04,9.99999e-01
5.728177114e-01,3.88469e-04,9.99999e-01,9.99999e-01,9.99999e-01,3.88469e-04,9.99999e-01
5.756818000e-01,4.53654e-04,9.99999e-01,9.99999e-01,9.99999e-01,4.53654e-04,9.99999e-01
5.785602090e-01,5.28157e-04,9.99999e-01,9.99999e-01,9.99999e-01,5.28157e-04,9.99999e-01
5.814530100e-01,6.13051e-04,9.99999e-01,9.99999e-01,9.99999e-01,6.13051e-04,9.99999e-01
5.843602750e-01,7.09498e-04,9.99999e-01,9.99999e-01,9.99999e-01,7.09498e-04,9.99999e-01
5.872820764e-01,8.18753e-04,9.99999e-01,9.99999e-01,9.99999e-01,8.18753e-04,9.99999e-01
5.902184868e-01,9.42162e-04,9.99999e-01,9.99999e-01,9.99999e-01,9.42162e-04,9.99999e-01
5.931695792e-01,1.08117e-03,9.99999e-01,9.99999e-01,9.99999e-01,1.08117e-03,9.99999e-01
5.961354271e-01,1.23732e-03,9.99999e-01,9.99999e-01,9.99999e-01,1.23732e-03,9.99999e-01
5.991161043e-01,1.41225e-03,9.99999e-01,9.99999e-01,9.99999e-01,1.41225e-03,9.99999e-01
6.021116848e-01,1.60772e-03,9.99999e-01,9.99999e-01,9.99999e-01,1.60772e-03,9.99999e-01
6.051222432e-01,1.82555e-03,9.99999e-01,9.99999e-01,9.99999e-01,1.82555e-03,9.99999e-01
6.081478544e-01,2.06770e-03,9.99999e-01,9.99999e-01,9.99999e-01,2.06770e-03,9.99999e-01
6.111885937e-01,2.33622e-03,9.99999e-01,9.99999e-01,9.99999e-01,2.33622e-03,9.99999e-01
6.142445367e-01,2.63325e-03,9.99999e-01,9.99999e-01,9.99999e-01,2.63325e-03,9.99999e-01
6.173157594e-01,2.96103e-03,9.99999e-01,9.99999e-01,9.99999e-01,2.96103e-03,9.99999e-01
6.204023382e-01,3.32192e-03,9.99999e-01,9.99999e-01,9.99999e-01,3.32192e-03,9.99999e-01
6.235043498e-01,3.71833e-03,9.99999e-01,9.99999e-01,9.99999e-01,3.71833e-03,9.99999e-01
6.266218716e-01,4.15278e-03,9.99999e-01,9.99999e-01,9.99999e-01,4.15278e-03,9.99999e-01
6.297549810e-01,4.62789e-03,9.99999e-01,9.99999e-01,9.99999e-01,4.62789e-03,9.99999e-01
6.329037559e-01,5.14633e-03,9.99999e-01,9.99999e-01,9.99999e-01,5.14633e-03,9.99999e-01
6.360682746e-01,5.71085e-03,9.99999e-01,9.99999e-01,9.99999e-01,5.71085e-03,9.99999e-01
6.392486160e-01,6.32429e-03,9.99999e-01,9.99999e-01,9.99999e-01,6.32429e-03,9.99999e-01
6.424448591e-01,6.98951e-03,9.99999e-01,9.99999e-01,9.99999e-01,6.98951e-03,9.99999e-01
6.456570834e-01,7.70947e-03,9.99999e-01,9.99999e-01,9.99999e-01,7.70947e-03,9.99999e-01
6.488853688e-01,8.48713e-03,9.99999e-01,9.99999e-01,9.99999e-01,8.48713e-03,9.99999e-01
6.521297956e-01,9.32552e-03,9.99999e-01,9.99999e-01,9.99999e-01,9.32552e-03,9.99999e-01
6.553904446e-01,1.02277e-02,9.99999e-01,9.99999e-01,9.99999e-01,1.02277e-02,9.99999e-01
6.586673968e-01,1.11967e-02,9.99999e-01,9.99999e-01,9.99999e-01,1.11967e-02,9.99999e-01
6.619607338e-01,1.22356e-02,9.99999e-01,9.99999e-01,9.99999e-01,1.22356e-02,9.99999e-01
6.652705375e-01,1.33475e-02,9.99999e-01,9.99999e-01,9.99999e-01,1.33475e-02,9.99999e-01
6.685968902e-01,1.45354e-02,9.99999e-01,9.99999e-01,9.99999e-01,1.45354e-02,9.99999e-01
6.719398746e-01,1.58024e-02,9.99999e-01,9.99999e-01,9.99999e-01,1.58024e-02,9.99999e-01
6.752995740e-01,1.71515e-02,9.99999e-01,9.99999e-01,9.99999e-01,1.71515e-02,9.99999e-01
6.786760719e-01,1.85857e-02,9.99999e-01,9.99999e-01,9.99999e-01,1.85857e-02,9.99999e-01
6.820694522e-01,2.01079e-02,9.99999e-01,9.99999e-01,9.99999e-01,2.01079e-02,9.99999e-01
6.854797995e-01,2.17210e-02,9.99999e-01,9.99999e-01,9.99999e-01,2.17210e-02,9.99999e-01
6.889071985e-01,2.34278e-02,9.99999e-01,9.99999e-01,9.99999e-01,2.34278e-02,9.99999e-01
6.923517345e-01,2.52309e-02,9.99999e-01,9.99999e-01,9.99999e-01,2.52309e-02,9.99999e-01
6.958134932e-01,2.71330e-02,9.99999e-01,9.99999e-01,9.99999e-01,2.71330e-02,9.99999e-01
6.992925606e-01,2.91367e-02,9.99999e-01,9.99999e-01,9.99999e-01,2.91367e-02,9.99999e-01
7.027890234e-01,3.12444e-02,9.99999e-01,9.99999e-01,9.99999e-01,3.12444e-02,9.99999e-01
7.063029686e-01,3.34583e-02,9.99999e-01,9.99999e-01,9.99999e-01,3.34583e-02,9.99999e-01
7.098344834e-01,3.57807e-02,9.99999e-01,9.99999e-01,9.99999e-01,3.57807e-02,9.99999e-01
7.133836558e-01,3.82136e-02,9.99999e-01,9.99999e-01,9.99999e-01,3.82136e-02,9.99999e-01
7.169505741e-01,4.07589e-02,9.99999e-01,9.99999e-01,9.99999e-01,4.07589e-02,9.99999e-01
7.205353270e-01,4.34184e-02,9.99999e-01,9.99999e-01,9.99999e-01,4.34184e-02,9.99999e-01
7.241380036e-01,4.61938e-02,9.99999e-01,9.99999e-01,9.99999e-01,4.61938e-02,9.99999e-01
7.277586936e-01,4.90864e-02,9.99999e-01,9.99999e-01,9.99999e-01,4.90864e-02,9.99999e-01
7.313974871e-01,5.20976e-02,9.99999e-01,9.99999e-01,9.99999e-01,5.20976e-02,9.99999e-01
7.350544745e-01,5.52286e-02,9.99999e-01,9.99999e-01,9.99999e-01,5.52286e-02,9.99999e-01
7.387297469e-01,5.84802e-02,9.99999e-01,9.99999e-01,9.99999e-01,5.84802e-02,9.99999e-01
7.424233956e-01,6.18534e-02,9.99999e-01,9.99999e-01,9.99999e-01,6.18534e-02,9.99999e-01
7.461355126e-01,6.53488e-02,9.99999e-01,9.99999e-01,9.99999e-01,6.53488e-02,9.99999e-01
7.498661902e-01,6.89667e-02,9.99999e-01,9.99999e-01,9.99999e-01,6.89667e-02,9.99999e-01
7.536155211e-01,7.27075e-02,9.99999e-01,9.99999e-01,9.99999e-01,7.27075e-02,9.99999e-01
7.573835987e-01,7.65712e-02,9.99999e-01,9.99999e-01,9.99999e-01,7.65712e-02,9.99999e-01
7.611705167e-01,8.05579e-02,9.99999e-01,9.99999e-01,9.99999e-01,8.05579e-02,9.99999e-01
7.649763693e-01,8.46672e-02,9.99999e-01,9.99999e-01,9.99999e-01,8.46672e-02,9.99999e-01
7.688012511e-01,8.88987e-02,9.99999e-01,9.99999e-01,9.99999e-01,8.88987e-02,9.99999e-01
7.726452574e-01,9.32518e-02,9.99999e-01,9.99999e-01,9.99999e-01,9.32518e-02,9.99999e-01
7.765084837e-01,9.77258e-02,9.99999e-01,9.99999e-01,9.99999e-01,9.77258e-02,9.99999e-01
7.803910261e-01,9.29672e-02,9.99999e-01,9.99999e-01,9.08595e-01,1.02320e-01,9.99999e-01
7.842929812e-01,6.86310e-02,9.99999e-01,9.99999e-01,6.41217e-01,1.07032e-01,9.99999e-01
7.882144461e-01,6.96893e-02,9.99999e-01,9.99999e-01,6.22991e-01,1.11862e-01,9.99999e-01
7.921555184e-01,8.72998e-02,9.99999e-01,9.99999e-01,7.47373e-01,1.16809e-01,9.99999e-01
7.961162960e-01,1.00256e-01,9.99999e-01,9.99999e-01,8.22649e-01,1.21869e-01,9.99999e-01
8.000968774e-01,1.14238e-01,9.99999e-01,9.99999e-01,8.99203e-01,1.27043e-01,9.99999e-01
8.040973618e-01,1.25266e-01,9.99999e-01,9.99999e-01,9.46633e-01,1.32327e-01,9.99999e-01
8.081178486e-01,1.34276e-01,9.99999e-01,9.99999e-01,9.74985e-01,1.37721e-01,9.99999e-01
8.121584379e-01,1.42121e-01,9.99999e-01,9.99999e-01,9.92320e-01,1.43221e-01,9.99999e-01
8.162192301e-01,1.48572e-01,9.99999e-01,9.99999e-01,9.98296e-01,1.48825e-01,9.99999e-01
8.203003262e-01,1.54529e-01,9.99999e-01,9.99999e-01,9.99977e-01,1.54532e-01,9.99999e-01
8.244018279e-01,1.60338e-01,9.99999e-01,9.99999e-01,9.99999e-01,1.60338e-01,9.99999e-01
8.285238370e-01,1.66242e-01,9.99999e-01,9.99999e-01,9.99999e-01,1.66242e-01,9.99999e-01
8.326664562e-01,1.72239e-01,9.99999e-01,9.99999e-01,9.99999e-01,1.72239e-01,9.99999e-01
8.368297885e-01,1.78329e-01,9.99999e-01,9.99999e-01,9.99999e-01,1.78329e-01,9.99999e-01
8.410139374e-01,1.84506e-01,9.99999e-01,9.99999e-01,9.99999e-01,1.84506e-01,9.99999e-01
8.452190071e-01,1.90770e-01,9.99999e-01,9.99999e-01,9.99999e-01,1.90770e-01,9.99999e-01
8.494451021e-01,1.97116e-01,9.99999e-01,9.99999e-01,9.99999e-01,1.97116e-01,9.99999e-01
8.536923276e-01,2.03541e-01,9.99999e-01,9.99999e-01,9.99999e-01,2.03541e-01,9.99999e-01
8.579607893e-01,2.10043e-01,9.99999e-01,9.99999e-01,9.99999e-01,2.10043e-01,9.99999e-01
8.622505932e-01,2.16618e-01,9.99999e-01,9.99999e-01,9.99999e-01,2.16618e-01,9.99999e-01
8.665618462e-01,1.92531e-01,9.99999e-01,9.99999e-01,8.62353e-01,2.23262e-01,9.99999e-01
8.708946554e-01,7.64971e-02,9.99999e-01,9.99999e-01,3.32634e-01,2.29974e-01,9.99999e-01
8.752491287e-01,9.50506e-02,9.99999e-01,9.99999e-01,4.01484e-01,2.36748e-01,9.99999e-01
8.796253743e-01,1.45894e-01,9.99999e-01,9.99999e-01,5.98952e-01,2.43582e-01,9.99999e-01
8.840235012e-01,1.91079e-01,9.99999e-01,9.99999e-01,7.62870e-01,2.50473e-01,9.99999e-01
8.884436187e-01,2.31322e-01,9.99999e-01,9.99999e-01,8.98626e-01,2.57417e-01,9.99999e-01
8.928858368e-01,2.53159e-01,9.99999e-01,9.99999e-01,9.57448e-01,2.64410e-01,9.99999e-01
8.973502660e-01,2.68618e-01,9.99999e-01,9.99999e-01,9.89565e-01,2.71450e-01,9.99999e-01
9.018370173e-01,2.78212e-01,9.99999e-01,9.99999e-01,9.98850e-01,2.78532e-01,9.99999e-01
9.063462024e-01,2.77086e-01,9.99999e-01,9.99999e-01,9.70003e-01,2.85654e-01,9.99999e-01
9.108779334e-01,2.73355e-01,9.99999e-01,9.99999e-01,9.33550e-01,2.92812e-01,9.99999e-01
9.154323231e-01,2.95272e-01,9.99999e-01,9.99999e-01,9.84230e-01,3.00003e-01,9.99999e-01
9.200094847e-01,2.48896e-01,9.99999e-01,9.99999e-01,8.10147e-01,3.07223e-01,9.99999e-01
9.246095321e-01,2.24935e-01,9.99999e-01,9.99999e-01,7.15284e-01,3.14469e-01,9.99999e-01
9.292325798e-01,2.47740e-01,9.99999e-01,9.99999e-01,7.70007e-01,3.21738e-01,9.99999e-01
9.338787427e-01,2.55607e-01,9.99999e-01,9.99999e-01,7.76859e-01,3.29026e-01,9.99999e-01
9.385481364e-01,2.78934e-01,9.99999e-01,9.99999e-01,8.29346e-01,3.36330e-01,9.99999e-01
9.432408771e-01,3.06378e-01,9.99999e-01,9.99999e-01,8.91546e-01,3.43648e-01,9.99999e-01
9.479570815e-01,3.30831e-01,9.99999e-01,9.99999e-01,9.42606e-01,3.50975e-01,9.99999e-01
9.526968669e-01,3.48280e-01,9.99999e-01,9.99999e-01,9.72009e-01,3.58309e-01,9.99999e-01
9.574603512e-01,3.61237e-01,9.99999e-01,9.99999e-01,9.87938e-01,3.65647e-01,9.99999e-01
9.622476530e-01,3.71580e-01,9.99999e-01,9.99999e-01,9.96229e-01,3.72987e-01,9.99999e-01
9.670588912e-01,3.79895e-01,9.99999e-01,9.99999e-01,9.98871e-01,3.80324e-01,9.99999e-01
9.718941857e-01,3.87626e-01,9.99999e-01,9.99999e-01,9.99922e-01,3.87656e-01,9.99999e-01
9.767536566e-01,3.94980e-01,9.99999e-01,9.99999e-01,9.99999e-01,3.94980e-01,9.99999e-01
9.816374249e-01,4.02294e-01,9.99999e-01,9.99999e-01,9.99999e-01,4.02294e-01,9.99999e-01
9.865456120e-01,4.09596e-01,9.99999e-01,9.99999e-01,9.99999e-01,4.09596e-01,9.99999e-01
9.914783401e-01,4.16881e-01,9.99999e-01,9.99999e-01,9.99999e-01,4.16881e-01,9.99999e-01
9.964357318e-01,4.24148e-01,9.99999e-01,9.99999e-01,9.99999e-01,4.24148e-01,9.99999e-01
1.001417910e+00,4.31395e-01,9.99999e-01,9.99999e-01,9.99999e-01,4.31395e-01,9.99999e-01
1.006425000e+00,4.38619e-01,9.99999e-01,9.99999e-01,9.99999e-01,4.38619e-01,9.99999e-01
1.011457125e+00,4.45818e-01,9.99999e-01,9.99999e-01,9.99999e-01,4.45818e-01,9.99999e-01
1.016514411e+00,4.52988e-01,9.99999e-01,9.99999e-01,9.99999e-01,4.52988e-01,9.99999e-01
1.021596983e+00,4.60042e-01,9.99999e-01,9.99999e-01,9.99808e-01,4.60130e-01,9.99999e-01
1.026704968e+00,4.61621e-01,9.99999e-01,9.99999e-01,9.87975e-01,4.67239e-01,9.99999e-01
1.031838492e+00,4.26452e-01,9.99999e-01,9.99999e-01,8.99090e-01,4.74315e-01,9.99999e-01
1.036997685e+00,2.37887e-02,9.99999e-01,9.99999e-01,4.94204e-02,4.81355e-01,9.99999e-01
1.042182673e+00,1.71505e-03,9.99999e-01,9.99999e-01,3.51187e-03,4.88357e-01,9.99999e-01
1.047393587e+00,4.30911e-03,9.99999e-01,9.99999e-01,8.69966e-03,4.95319e-01,9.99999e-01
1.052630555e+00,5.15440e-07,9.99999e-01,9.99999e-01,1.02628e-06,5.02241e-01,9.99999e-01
1.057893707e+00,2.00236e-06,9.99999e-01,9.99999e-01,3.93298e-06,5.09120e-01,9.99999e-01
1.063183176e+00,5.13667e-05,9.99999e-01,9.99999e-01,9.95567e-05,5.15954e-01,9.99999e-01
1.068499092e+00,5.08326e-04,9.99999e-01,9.99999e-01,9.72421e-04,5.22742e-01,9.99999e-01
1.073841587e+00,6.11917e-03,9.99999e-01,9.99999e-01,1.15569e-02,5.29483e-01,9.99999e-01
1.079210795e+00,3.26466e-02,9.99999e-01,9.99999e-01,6.08879e-02,5.36175e-01,9.99999e-01
1.084606849e+00,1.11166e-01,9.99999e-01,9.99999e-01,2.04794e-01,5.42817e-01,9.99999e-01
1.090029883e+00,2.39148e-01,9.99999e-01,9.99999e-01,4.35283e-01,5.49408e-01,9.99999e-01
1.095480033e+00,3.68692e-01,9.99999e-01,9.99999e-01,6.63179e-01,5.55946e-01,9.99999e-01
1.100957433e+00,4.60910e-01,9.99999e-01,9.99999e-01,8.19496e-01,5.62430e-01,9.99999e-01
1.106462220e+00,5.23930e-01,9.99999e-01,9.99999e-01,9.21017e-01,5.68860e-01,9.99999e-01
1.111994531e+00,5.57933e-01,9.99999e-01,9.99999e-01,9.69922e-01,5.75234e-01,9.99999e-01
1.117554504e+00,5.77264e-01,9.99999e-01,9.99999e-01,9.92626e-01,5.81552e-01,9.99999e-01
1.123142276e+00,5.87529e-01,9.99999e-01,9.99999e-01,9.99518e-01,5.87812e-01,9.99999e-01
1.128757988e+00,5.94013e-01,9.99999e-01,9.99999e-01,9.99999e-01,5.94014e-01,9.99999e-01
1.134401778e+00,6.00156e-01,9.99999e-01,9.99999e-01,9.99999e-01,6.00156e-01,9.99999e-01
1.140073787e+00,6.06240e-01,9.99999e-01,9.99999e-01,9.99999e-01,6.06240e-01,9.99999e-01
1.145774156e+00,6.12262e-01,9.99999e-01,9.99999e-01,9.99999e-01,6.12262e-01,9.99999e-01
1.151503026e+00,6.18224e-01,9.99999e-01,9.99999e-01,9.99999e-01,6.18224e-01,9.99999e-01
1.157260541e+00,6.24125e-01,9.99999e-01,9.99999e-01,9.99999e-01,6.24125e-01,9.99999e-01
1.163046844e+00,6.29963e-01,9.99999e-01,9.99999e-01,9.99999e-01,6.29963e-01,9.99999e-01
1.168862078e+00,6.35740e-01,9.99999e-01,9.99999e-01,9.99999e-01,6.35740e-01,9.99999e-01
1.174706389e+00,6.41453e-01,9.99999e-01,9.99999e-01,9.99999e-01,6.41453e-01,9.99999e-01
1.180579921e+00,6.47104e-01,9.99999e-01,9.99999e-01,9.99999e-01,6.47104e-01,9.99999e-01
1.186482820e+00,6.52671e-01,9.99999e-01,9.99999e-01,9.99969e-01,6.52691e-01,9.99999e-01
1.192415234e+00,6.31127e-01,9.99999e-01,9.99999e-01,9.58846e-01,6.58215e-01,9.99999e-01
1.198377311e+00,3.41120e-01,9.99999e-01,9.99999e-01,5.13986e-01,6.63675e-01,9.99999e-01
1.204369197e+00,2.11989e-30,9.99999e-01,9.99999e-01,3.16840e-30,6.69071e-01,9.99999e-01
1.210391043e+00,3.39831e-123,9.99999e-01,9.99999e-01,5.03899e-123,6.74403e-01,9.99999e-01
1.216442998e+00,1.33554e-106,9.99999e-01,9.99999e-01,1.96498e-106,6.79671e-01,9.99999e-01
1.222525213e+00,5.31491e-105,9.99999e-01,9.99999e-01,7.76040e-105,6.84875e-01,9.99999e-01
1.228637839e+00,5.40646e-81,9.99999e-01,9.99999e-01,7.83527e-81,6.90015e-01,9.99999e-01
