#,Wave/freq,Total,N2,O2,CO2,Rayleigh,CIA
4.000000000e-01,6.60905e-18,9.99999e-01,9.99999e-01,9.99999e-01,6.60905e-18,9.99999e-01
4.020000000e-01,1.44491e-17,9.99999e-01,9.99999e-01,9.99999e-01,1.44491e-17,9.99999e-01
4.040100000e-01,3.10797e-17,9.99999e-01,9.99999e-01,9.99999e-01,3.10797e-17,9.99999e-01
4.060300500e-01,6.58477e-17,9.99999e-01,9.99999e-01,9.99999e-01,6.58477e-17,9.99999e-01
4.080602003e-01,1.37456e-16,9.99999e-01,9.99999e-01,9.99999e-01,1.37456e-16,9.99999e-01
4.101005013e-01,2.82797e-16,9.99999e-01,9.99999e-01,9.99999e-01,2.82797e-16,9.99999e-01
4.121510038e-01,5.73584e-16,9.99999e-01,9.99999e-01,9.99999e-01,5.73584e-16,9.99999e-01
4.142117588e-01,1.14724e-15,9.99999e-01,9.99999e-01,9.99999e-01,1.14724e-15,9.99999e-01
4.162828176e-01,2.26340e-15,9.99999e-01,9.99999e-01,9.99999e-01,2.26340e-15,9.99999e-01
4.183642317e-01,4.40597e-15,9.99999e-01,9.99999e-01,9.99999e-01,4.40597e-15,9.99999e-01
4.204560528e-01,8.46461e-15,9.99999e-01,9.99999e-01,9.99999e-01,8.46461e-15,9.99999e-01
4.225583331e-01,1.60536e-14,9.99999e-01,9.99999e-01,9.99999e-01,1.60536e-14,9.99999e-01
4.246711247e-01,3.00639e-14,9.99999e-01,9.99999e-01,9.99999e-01,3.00639e-14,9.99999e-01
4.267944804e-01,5.56081e-14,9.99999e-01,9.99999e-01,9.99999e-01,5.56081e-14,9.99999e-01
4.289284528e-01,1.01614e-13,9.99999e-01,9.99999e-01,9.99999e-01,1.01614e-13,9.99999e-01
4.310730950e-01,1.83484e-13,9.99999e-01,9.99999e-01,9.99999e-01,1.83484e-13,9.99999e-01
4.332284605e-01,3.27472e-13,9.99999e-01,9.99999e-01,9.99999e-01,3.27472e-13,9.99999e-01
4.353946028e-01,5.77804e-13,9.99999e-01,9.99999e-01,9.99999e-01,5.77804e-13,9.99999e-01
4.375715758e-01,1.00813e-12,9.99999e-01,9.99999e-01,9.99999e-01,1.00813e-12,9.99999e-01
4.397594337e-01,1.73971e-12,9.99999e-01,9.99999e-01,9.99999e-01,1.73971e-12,9.99999e-01
4.419582309e-01,2.97000e-12,9.99999e-01,9.99999e-01,9.99999e-01,2.97000e-12,9.99999e-01
4.441680220e-01,5.01704e-12,9.99999e-01,9.99999e-01,9.99999e-01,5.01704e-12,9.99999e-01
4.463888621e-01,8.38768e-12,9.99999e-01,9.99999e-01,9.99999e-01,8.38768e-12,9.99999e-01
4.486208064e-01,1.38812e-11,9.99999e-01,9.99999e-01,9.99999e-01,1.38812e-11,9.99999e-01
4.508639105e-01,2.27453e-11,9.99999e-01,9.99999e-01,9.99999e-01,2.27453e-11,9.99999e-01
4.531182300e-01,3.69079e-11,9.99999e-01,9.99999e-01,9.99999e-01,3.69079e-11,9.99999e-01
4.553838212e-01,5.93191e-11,9.99999e-01,9.99999e-01,9.99999e-01,5.93191e-11,9.99999e-01
4.576607403e-01,9.44494e-11,9.99999e-01,9.99999e-01,9.99999e-01,9.44494e-11,9.99999e-01
4.599490440e-01,1.49009e-10,9.99999e-01,9.99999e-01,9.99999e-01,1.49009e-10,9.99999e-01
4.622487892e-01,2.32979e-10,9.99999e-01,9.99999e-01,9.99999e-01,2.32979e-10,9.99999e-01
4.645600332e-01,3.61066e-10,9.99999e-01,9.99999e-01,9.99999e-01,3.61066e-10,9.99999e-01
4.668828333e-01,5.54750e-10,9.99999e-01,9.99999e-01,9.99999e-01,5.54750e-10,9.99999e-01
4.692172475e-01,8.45132e-10,9.99999e-01,9.99999e-01,9.99999e-01,8.45132e-10,9.99999e-01
4.715633337e-01,1.27685e-09,9.99999e-01,9.99999e-01,9.99999e-01,1.27685e-09,9.99999e-01
4.739211504e-01,1.91344e-09,9.99999e-01,9.99999e-01,9.99999e-01,1.91344e-09,9.99999e-01
4.762907561e-01,2.84460e-09,9.99999e-01,9.99999e-01,9.99999e-01,2.84460e-09,9.99999e-01
4.786722099e-01,4.19591e-09,9.99999e-01,9.99999e-01,9.99999e-01,4.19591e-09,9.99999e-01
4.810655710e-01,6.14180e-09,9.99999e-01,9.99999e-01,9.99999e-01,6.14180e-09,9.99999e-01
4.834708988e-01,8.92272e-09,9.99999e-01,9.99999e-01,9.99999e-01,8.92272e-09,9.99999e-01
4.858882533e-01,1.28675e-08,9.99999e-01,9.99999e-01,9.99999e-01,1.28675e-08,9.99999e-01
4.883176946e-01,1.84226e-08,9.99999e-01,9.99999e-01,9.99999e-01,1.84226e-08,9.99999e-01
4.907592831e-01,2.61897e-08,9.99999e-01,9.99999e-01,9.99999e-01,2.61897e-08,9.99999e-01
4.932130795e-01,3.69735e-08,9.99999e-01,9.99999e-01,9.99999e-01,3.69735e-08,9.99999e-01
4.956791449e-01,5.18434e-08,9.99999e-01,9.99999e-01,9.99999e-01,5.18434e-08,9.99999e-01
4.981575406e-01,7.22099e-08,9.99999e-01,9.99999e-01,9.99999e-01,7.22099e-08,9.99999e-01
5.006483283e-01,9.99210e-08,9.99999e-01,9.99999e-01,9.99999e-01,9.99210e-08,9.99999e-01
5.031515699e-01,1.37382e-07,9.99999e-01,9.99999e-01,9.99999e-01,1.37382e-07,9.99999e-01
5.056673278e-01,1.87704e-07,9.99999e-01,9.99999e-01,9.99999e-01,1.87704e-07,9.99999e-01
5.081956644e-01,2.54882e-07,9.99999e-01,9.99999e-01,9.99999e-01,2.54882e-07,9.99999e-01
5.107366428e-01,3.44018e-07,9.99999e-01,9.99999e-01,9.99999e-01,3.44018e-07,9.99999e-01
5.132903260e-01,4.61582e-07,9.99999e-01,9.99999e-01,9.99999e-01,4.61582e-07,9.99999e-01
5.158567776e-01,6.15738e-07,9.99999e-01,9.99999e-01,9.99999e-01,6.15738e-07,9.99999e-01
5.184360615e-01,8.16715e-07,9.99999e-01,9.99999e-01,9.99999e-01,8.16715e-07,9.99999e-01
5.210282418e-01,1.07726e-06,9.99999e-01,9.99999e-01,9.99999e-01,1.07726e-06,9.99999e-01
5.236333830e-01,1.41318e-06,9.99999e-01,9.99999e-01,9.99999e-01,1.41318e-06,9.99999e-01
5.262515499e-01,1.84394e-06,9.99999e-01,9.99999e-01,9.99999e-01,1.84394e-06,9.99999e-01
5.288828077e-01,2.39339e-06,9.99999e-01,9.99999e-01,9.99999e-01,2.39339e-06,9.99999e-01
5.315272217e-01,3.09059e-06,9.99999e-01,9.99999e-01,9.99999e-01,3.09059e-06,9.99999e-01
5.341848578e-01,3.97078e-06,9.99999e-01,9.99999e-01,9.99999e-01,3.97078e-06,9.99999e-01
5.368557821e-01,5.07647e-06,9.99999e-01,9.99999e-01,9.99999e-01,5.07647e-06,9.99999e-01
5.395400610e-01,6.45863e-06,9.99999e-01,9.99999e-01,9.99999e-01,6.45863e-06,9.99999e-01
5.422377613e-01,8.17811e-06,9.99999e-01,9.99999e-01,9.99999e-01,8.17811e-06,9.99999e-01
5.449489501e-01,1.03072e-05,9.99999e-01,9.99999e-01,9.99999e-01,1.03072e-05,9.99999e-01
5.476736949e-01,1.29313e-05,9.99999e-01,9.99999e-01,9.99999e-01,1.29313e-05,9.99999e-01
5.504120634e-01,1.61510e-05,9.99999e-01,9.99999e-01,9.99999e-01,1.61510e-05,9.99999e-01
5.531641237e-01,2.00840e-05,9.99999e-01,9.99999e-01,9.99999e-01,2.00840e-05,9.99999e-01
5.559299443e-01,2.48674e-05,9.99999e-01,9.99999e-01,9.99999e-01,2.48674e-05,9.99999e-01
5.587095940e-01,3.06604e-05,9.99999e-01,9.99999e-01,9.99999e-01,3.06604e-05,9.99999e-01
5.615031420e-01,3.76469e-05,9.99999e-01,9.99999e-01,9.99999e-01,3.76469e-05,9.99999e-01
5.643106577e-01,4.60384e-05,9.99999e-01,9.99999e-01,9.99999e-01,4.60384e-05,9.99999e-01
5.671322110e-01,5.60769e-05,9.99999e-01,9.99999e-01,9.99999e-01,5.60769e-05,9.99999e-01
5.699678720e-01,6.80387e-05,9.99999e-01,9.99999e-01,9.99999e-01,6.80387e-05,9.99999e-01
5.728177114e-01,8.22374e-05,9.99999e-01,9.99999e-01,9.99999e-01,8.22374e-05,9.99999e-01
5.756818000e-01,9.90278e-05,9.99999e-01,9.99999e-01,9.99999e-01,9.90278e-05,9.99999e-01
5.785602090e-01,1.18809e-04,9.99999e-01,9.99999e-01,9.99999e-01,1.18809e-04,9.99999e-01
5.814530100e-01,1.42031e-04,9.99999e-01,9.99999e-01,9.99999e-01,1.42031e-04,9.99999e-01
5.843602750e-01,1.69193e-04,9.99999e-01,9.99999e-01,9.99999e-01,1.69193e-04,9.99999e-01
5.872820764e-01,2.00854e-04,9.99999e-01,9.99999e-01,9.99999e-01,2.00854e-04,9.99999e-01
5.902184868e-01,2.37634e-04,9.99999e-01,9.99999e-01,9.99999e-01,2.37634e-04,9.99999e-01
5.931695792e-01,2.80216e-04,9.99999e-01,9.99999e-01,9.99999e-01,2.80216e-04,9.99999e-01
5.961354271e-01,3.29355e-04,9.99999e-01,9.99999e-01,9.99999e-01,3.29355e-04,9.99999e-01
5.991161043e-01,3.85877e-04,9.99999e-01,9.99999e-01,9.99999e-01,3.85877e-04,9.99999e-01
6.021116848e-01,4.50687e-04,9.99999e-01,9.99999e-01,9.99999e-01,4.50687e-04,9.99999e-01
6.051222432e-01,5.24770e-04,9.99999e-01,9.99999e-01,9.99999e-01,5.24770e-04,9.99999e-01
6.081478544e-01,6.09197e-04,9.99999e-01,9.99999e-01,9.99999e-01,6.09197e-04,9.99999e-01
6.111885937e-01,7.05126e-04,9.99999e-01,9.99999e-01,9.99999e-01,7.05126e-04,9.99999e-01
6.142445367e-01,8.13806e-04,9.99999e-01,9.99999e-01,9.99999e-01,8.13806e-04,9.99999e-01
6.173157594e-01,9.36582e-04,9.99999e-01,9.99999e-01,9.99999e-01,9.36582e-04,9.99999e-01
6.204023382e-01,1.07489e-03,9.99999e-01,9.99999e-01,9.99999e-01,1.07489e-03,9.99999e-01
6.235043498e-01,1.23028e-03,9.99999e-01,9.99999e-01,9.99999e-01,1.23028e-03,9.99999e-01
6.266218716e-01,1.40437e-03,9.99999e-01,9.99999e-01,9.99999e-01,1.40437e-03,9.99999e-01
6.297549810e-01,1.59892e-03,9.99999e-01,9.99999e-01,9.99999e-01,1.59892e-03,9.99999e-01
6.329037559e-01,1.81576e-03,9.99999e-01,9.99999e-01,9.99999e-01,1.81576e-03,9.99999e-01
6.360682746e-01,2.05683e-03,9.99999e-01,9.99999e-01,9.99999e-01,2.05683e-03,9.99999e-01
6.392486160e-01,2.32418e-03,9.99999e-01,9.99999e-01,9.99999e-01,2.32418e-03,9.99999e-01
6.424448591e-01,2.61995e-03,9.99999e-01,9.99999e-01,9.99999e-01,2.61995e-03,9.99999e-01
6.456570834e-01,2.94637e-03,9.99999e-01,9.99999e-01,9.99999e-01,2.94637e-03,9.99999e-01
6.488853688e-01,3.30579e-03,9.99999e-01,9.99999e-01,9.99999e-01,3.30579e-03,9.99999e-01
6.521297956e-01,3.70063e-03,9.99999e-01,9.99999e-01,9.99999e-01,3.70063e-03,9.99999e-01
6.553904446e-01,4.13341e-03,9.99999e-01,9.99999e-01,9.99999e-01,4.13341e-03,9.99999e-01
6.586673968e-01,4.60673e-03,9.99999e-01,9.99999e-01,9.99999e-01,4.60673e-03,9.99999e-01
6.619607338e-01,5.12326e-03,9.99999e-01,9.99999e-01,9.99999e-01,5.12326e-03,9.99999e-01
6.652705375e-01,5.68576e-03,9.99999e-01,9.99999e-01,9.99999e-01,5.68576e-03,9.99999e-01
6.685968902e-01,6.29704e-03,9.99999e-01,9.99999e-01,9.99999e-01,6.29704e-03,9.99999e-01
6.719398746e-01,6.96000e-03,9.99999e-01,9.99999e-01,9.99999e-01,6.96000e-03,9.99999e-01
6.752995740e-01,7.67756e-03,9.99999e-01,9.99999e-01,9.99999e-01,7.67756e-03,9.99999e-01
6.786760719e-01,8.45269e-03,9.99999e-01,9.99999e-01,9.99999e-01,8.45269e-03,9.99999e-01
6.820694522e-01,9.28843e-03,9.99999e-01,9.99999e-01,9.99999e-01,9.28843e-03,9.99999e-01
6.854797995e-01,1.01878e-02,9.99999e-01,9.99999e-01,9.99999e-01,1.01878e-02,9.99999e-01
6.889071985e-01,1.11539e-02,9.99999e-01,9.99999e-01,9.99999e-01,1.11539e-02,9.99999e-01
6.923517345e-01,1.21897e-02,9.99999e-01,9.99999e-01,9.99999e-01,1.21897e-02,9.99999e-01
6.958134932e-01,1.32984e-02,9.99999e-01,9.99999e-01,9.99999e-01,1.32984e-02,9.99999e-01
6.992925606e-01,1.44830e-02,9.99999e-01,9.99999e-01,9.99999e-01,1.44830e-02,9.99999e-01
7.027890234e-01,1.57466e-02,9.99999e-01,9.99999e-01,9.99999e-01,1.57466e-02,9.99999e-01
7.063029686e-01,1.70922e-02,9.99999e-01,9.99999e-01,9.99999e-01,1.70922e-02,9.99999e-01
7.098344834e-01,1.85227e-02,9.99999e-01,9.99999e-01,9.99999e-01,1.85227e-02,9.99999e-01
7.133836558e-01,2.00411e-02,9.99999e-01,9.99999e-01,9.99999e-01,2.00411e-02,9.99999e-01
7.169505741e-01,2.16502e-02,9.99999e-01,9.99999e-01,9.99999e-01,2.16502e-02,9.99999e-01
7.205353270e-01,2.33529e-02,9.99999e-01,9.99999e-01,9.99999e-01,2.33529e-02,9.99999e-01
7.241380036e-01,2.51519e-02,9.99999e-01,9.99999e-01,9.99999e-01,2.51519e-02,9.99999e-01
7.277586936e-01,2.70497e-02,9.99999e-01,9.99999e-01,9.99999e-01,2.70497e-02,9.99999e-01
7.313974871e-01,2.90490e-02,9.99999e-01,9.99999e-01,9.99999e-01,2.90490e-02,9.99999e-01
7.350544745e-01,3.11522e-02,9.99999e-01,9.99999e-01,9.99999e-01,3.11522e-02,9.99999e-01
7.387297469e-01,3.33615e-02,9.99999e-01,9.99999e-01,9.99999e-01,3.33615e-02,9.99999e-01
7.424233956e-01,3.56792e-02,9.99999e-01,9.99999e-01,9.99999e-01,3.56792e-02,9.99999e-01
7.461355126e-01,3.81074e-02,9.99999e-01,9.99999e-01,9.99999e-01,3.81074e-02,9.99999e-01
7.498661902e-01,4.06478e-02,9.99999e-01,9.99999e-01,9.99999e-01,4.06478e-02,9.99999e-01
7.536155211e-01,4.33024e-02,9.99999e-01,9.99999e-01,9.99999e-01,4.33024e-02,9.99999e-01
7.573835987e-01,4.60728e-02,9.99999e-01,9.99999e-01,9.99999e-01,4.60728e-02,9.99999e-01
7.611705167e-01,4.89604e-02,9.99999e-01,9.99999e-01,9.99999e-01,4.89604e-02,9.99999e-01
7.649763693e-01,5.19665e-02,9.99999e-01,9.99999e-01,9.99999e-01,5.19665e-02,9.99999e-01
7.688012511e-01,5.50924e-02,9.99999e-01,9.99999e-01,9.99999e-01,5.50924e-02,9.99999e-01
7.726452574e-01,5.83389e-02,9.99999e-01,9.99999e-01,9.99999e-01,5.83389e-02,9.99999e-01
7.765084837e-01,6.17068e-02,9.99999e-01,9.99999e-01,9.99999e-01,6.17068e-02,9.99999e-01
7.803910261e-01,5.89759e-02,9.99999e-01,9.99999e-01,9.04580e-01,6.51969e-02,9.99999e-01
7.842929812e-01,4.04534e-02,9.99999e-01,9.99999e-01,5.87903e-01,6.88096e-02,9.99999e-01
7.882144461e-01,4.16452e-02,9.99999e-01,9.99999e-01,5.74058e-01,7.25452e-02,9.99999e-01
7.921555184e-01,5.40739e-02,9.99999e-01,9.99999e-01,7.07739e-01,7.64037e-02,9.99999e-01
7.961162960e-01,6.34564e-02,9.99999e-01,9.99999e-01,7.89404e-01,8.03851e-02,9.99999e-01
8.000968774e-01,7.43165e-02,9.99999e-01,9.99999e-01,8.79597e-01,8.44892e-02,9.99999e-01
8.040973618e-01,8.29730e-02,9.99999e-01,9.99999e-01,9.35270e-01,8.87155e-02,9.99999e-01
8.081178486e-01,9.02571e-02,9.99999e-01,9.99999e-01,9.69844e-01,9.30634e-02,9.99999e-01
8.121584379e-01,9.66062e-02,9.99999e-01,9.99999e-01,9.90505e-01,9.75322e-02,9.99999e-01
8.162192301e-01,1.01906e-01,9.99999e-01,9.99999e-01,9.97894e-01,1.02121e-01,9.99999e-01
8.203003262e-01,1.06825e-01,9.99999e-01,9.99999e-01,9.99964e-01,1.06829e-01,9.99999e-01
8.244018279e-01,1.11654e-01,9.99999e-01,9.99999e-01,9.99999e-01,1.11654e-01,9.99999e-01
8.285238370e-01,1.16595e-01,9.99999e-01,9.99999e-01,9.99999e-01,1.16595e-01,9.99999e-01
8.326664562e-01,1.21651e-01,9.99999e-01,9.99999e-01,9.99999e-01,1.21651e-01,9.99999e-01
8.368297885e-01,1.26820e-01,9.99999e-01,9.99999e-01,9.99999e-01,1.26820e-01,9.99999e-01
8.410139374e-01,1.32099e-01,9.99999e-01,9.99999e-01,9.99999e-01,1.32099e-01,9.99999e-01
8.452190071e-01,1.37488e-01,9.99999e-01,9.99999e-01,9.99999e-01,1.37488e-01,9.99999e-01
8.494451021e-01,1.42984e-01,9.99999e-01,9.99999e-01,9.99999e-01,1.42984e-01,9.99999e-01
8.536923276e-01,1.48584e-01,9.99999e-01,9.99999e-01,9.99999e-01,1.48584e-01,9.99999e-01
8.579607893e-01,1.54286e-01,9.99999e-01,9.99999e-01,9.99999e-01,1.54286e-01,9.99999e-01
8.622505932e-01,1.60088e-01,9.99999e-01,9.99999e-01,9.99999e-01,1.60088e-01,9.99999e-01
8.665618462e-01,1.43318e-01,9.99999e-01,9.99999e-01,8.63425e-01,1.65988e-01,9.99999e-01
8.708946554e-01,4.74116e-02,9.99999e-01,9.99999e-01,2.75679e-01,1.71981e-01,9.99999e-01
8.752491287e-01,5.99549e-02,9.99999e-01,9.99999e-01,3.36699e-01,1.78067e-01,9.99999e-01
8.796253743e-01,9.94532e-02,9.99999e-01,9.99999e-01,5.39800e-01,1.84241e-01,9.99999e-01
8.840235012e-01,1.37355e-01,9.99999e-01,9.99999e-01,7.21022e-01,1.90500e-01,9.99999e-01
8.884436187e-01,1.72732e-01,9.99999e-01,9.99999e-01,8.77511e-01,1.96843e-01,9.99999e-01
8.928858368e-01,1.92782e-01,9.99999e-01,9.99999e-01,9.48426e-01,2.03265e-01,9.99999e-01
8.973502660e-01,2.07064e-01,9.99999e-01,9.99999e-01,9.87128e-01,2.09763e-01,9.99999e-01
9.018370173e-01,2.16026e-01,9.99999e-01,9.99999e-01,9.98569e-01,2.16335e-01,9.99999e-01
9.063462024e-01,2.15397e-01,9.99999e-01,9.99999e-01,9.66002e-01,2.22977e-01,9.99999e-01
9.108779334e-01,2.11352e-01,9.99999e-01,9.99999e-01,9.20178e-01,2.29686e-01,9.99999e-01
9.154323231e-01,2.31835e-01,9.99999e-01,9.99999e-01,9.80451e-01,2.36457e-01,9.99999e-01
9.200094847e-01,1.92346e-01,9.99999e-01,9.99999e-01,7.90607e-01,2.43289e-01,9.99999e-01
9.246095321e-01,1.67131e-01,9.99999e-01,9.99999e-01,6.68047e-01,2.50178e-01,9.99999e-01
9.292325798e-01,1.89320e-01,9.99999e-01,9.99999e-01,7.36312e-01,2.57119e-01,9.99999e-01
9.338787427e-01,1.95069e-01,9.99999e-01,9.99999e-01,7.38587e-01,2.64111e-01,9.99999e-01
9.385481364e-01,2.16513e-01,9.99999e-01,9.99999e-01,7.98505e-01,2.71148e-01,9.99999e-01
9.432408771e-01,2.42053e-01,9.99999e-01,9.99999e-01,8.69976e-01,2.78229e-01,9.99999e-01
9.479570815e-01,2.65707e-01,9.99999e-01,9.99999e-01,9.31162e-01,2.85349e-01,9.99999e-01
9.526968669e-01,2.82611e-01,9.99999e-01,9.99999e-01,9.66172e-01,2.92506e-01,9.99999e-01
9.574603512e-01,2.95309e-01,9.99999e-01,9.99999e-01,9.85364e-01,2.99695e-01,9.99999e-01
9.622476530e-01,3.05504e-01,9.99999e-01,9.99999e-01,9.95405e-01,3.06914e-01,9.99999e-01
9.670588912e-01,3.13725e-01,9.99999e-01,9.99999e-01,9.98618e-01,3.14159e-01,9.99999e-01
9.718941857e-01,3.21395e-01,9.99999e-01,9.99999e-01,9.99899e-01,3.21427e-01,9.99999e-01
9.767536566e-01,3.28714e-01,9.99999e-01,9.99999e-01,9.99999e-01,3.28714e-01,9.99999e-01
9.816374249e-01,3.36018e-01,9.99999e-01,9.99999e-01,9.99999e-01,3.36018e-01,9.99999e-01
9.865456120e-01,3.43335e-01,9.99999e-01,9.99999e-01,9.99999e-01,3.43335e-01,9.99999e-01
9.914783401e-01,3.50662e-01,9.99999e-01,9.99999e-01,9.99999e-01,3.50662e-01,9.99999e-01
9.964357318e-01,3.57996e-01,9.99999e-01,9.99999e-01,9.99999e-01,3.57996e-01,9.99999e-01
1.001417910e+00,3.65334e-01,9.99999e-01,9.99999e-01,9.99999e-01,3.65334e-01,9.99999e-01
1.006425000e+00,3.72673e-01,9.99999e-01,9.99999e-01,9.99999e-01,3.72673e-01,9.99999e-01
1.011457125e+00,3.80010e-01,9.99999e-01,9.99999e-01,9.99999e-01,3.80010e-01,9.99999e-01
1.016514411e+00,3.87343e-01,9.99999e-01,9.99999e-01,9.99999e-01,3.87343e-01,9.99999e-01
1.021596983e+00,3.94601e-01,9.99999e-01,9.99999e-01,9.99830e-01,3.94668e-01,9.99999e-01
1.026704968e+00,3.96523e-01,9.99999e-01,9.99999e-01,9.86418e-01,4.01982e-01,9.99999e-01
1.031838492e+00,3.67658e-01,9.99999e-01,9.99999e-01,8.98296e-01,4.09284e-01,9.99999e-01
1.036997685e+00,1.75928e-02,9.99999e-01,9.99999e-01,4.22323e-02,4.16570e-01,9.99999e-01
1.042182673e+00,6.40185e-04,9.99999e-01,9.99999e-01,1.51045e-03,4.23838e-01,9.99999e-01
1.047393587e+00,1.86952e-03,9.99999e-01,9.99999e-01,4.33676e-03,4.31086e-01,9.99999e-01
1.052630555e+00,5.32975e-08,9.99999e-01,9.99999e-01,1.21597e-07,4.38311e-01,9.99999e-01
1.057893707e+00,1.96551e-07,9.99999e-01,9.99999e-01,4.41181e-07,4.45511e-01,9.99999e-01
1.063183176e+00,9.75724e-06,9.99999e-01,9.99999e-01,2.15542e-05,4.52683e-01,9.99999e-01
1.068499092e+00,1.29510e-04,9.99999e-01,9.99999e-01,2.81650e-04,4.59825e-01,9.99999e-01
1.073841587e+00,2.30898e-03,9.99999e-01,9.99999e-01,4.94495e-03,4.66936e-01,9.99999e-01
1.079210795e+00,1.71275e-02,9.99999e-01,9.99999e-01,3.61328e-02,4.74013e-01,9.99999e-01
1.084606849e+00,7.17197e-02,9.99999e-01,9.99999e-01,1.49088e-01,4.81055e-01,9.99999e-01
1.090029883e+00,1.79788e-01,9.99999e-01,9.99999e-01,3.68374e-01,4.88058e-01,9.99999e-01
1.095480033e+00,3.01647e-01,9.99999e-01,9.99999e-01,6.09359e-01,4.95023e-01,9.99999e-01
1.100957433e+00,3.94708e-01,9.99999e-01,9.99999e-01,7.86355e-01,5.01946e-01,9.99999e-01
1.106462220e+00,4.60529e-01,9.99999e-01,9.99999e-01,9.05079e-01,5.08827e-01,9.99999e-01
1.111994531e+00,4.96918e-01,9.99999e-01,9.99999e-01,9.63649e-01,5.15663e-01,9.99999e-01
1.117554504e+00,5.17729e-01,9.99999e-01,9.99999e-01,9.90957e-01,5.22453e-01,9.99999e-01
1.123142276e+00,5.28879e-01,9.99999e-01,9.99999e-01,9.99399e-01,5.29196e-01,9.99999e-01
1.128757988e+00,5.35890e-01,9.99999e-01,9.99999e-01,9.99999e-01,5.35890e-01,9.99999e-01
1.134401778e+00,5.42534e-01,9.99999e-01,9.99999e-01,9.99999e-01,5.42534e-01,9.99999e-01
1.140073787e+00,5.49127e-01,9.99999e-01,9.99999e-01,9.99999e-01,5.49127e-01,9.99999e-01
1.145774156e+00,5.55668e-01,9.99999e-01,9.99999e-01,9.99999e-01,5.55668e-01,9.99999e-01
1.151503026e+00,5.62154e-01,9.99999e-01,9.99999e-01,9.99999e-01,5.62154e-01,9.99999e-01
1.157260541e+00,5.68587e-01,9.99999e-01,9.99999e-01,9.99999e-01,5.68587e-01,9.99999e-01
1.163046844e+00,5.74963e-01,9.99999e-01,9.99999e-01,9.99999e-01,5.74963e-01,9.99999e-01
1.168862078e+00,5.81283e-01,9.99999e-01,9.99999e-01,9.99999e-01,5.81283e-01,9.99999e-01
1.174706389e+00,5.87546e-01,9.99999e-01,9.99999e-01,9.99999e-01,5.87546e-01,9.99999e-01
1.180579921e+00,5.93750e-01,9.99999e-01,9.99999e-01,9.99999e-01,5.93750e-01,9.99999e-01
1.186482820e+00,5.99885e-01,9.99999e-01,9.99999e-01,9.99982e-01,5.99895e-01,9.99999e-01
1.192415234e+00,5.78463e-01,9.99999e-01,9.99999e-01,9.54588e-01,6.05981e-01,9.99999e-01
1.198377311e+00,3.10821e-01,9.99999e-01,9.99999e-01,5.07872e-01,6.12006e-01,9.99999e-01
1.204369197e+00,5.98469e-36,9.99999e-01,9.99999e-01,9.68441e-36,6.17971e-01,9.99999e-01
1.210391043e+00,4.88439e-147,9.99999e-01,9.99999e-01,7.82912e-147,6.23874e-01,9.99999e-01
1.216442998e+00,3.58656e-127,9.99999e-01,9.99999e-01,5.69552e-127,6.29715e-01,9.99999e-01
1.222525213e+00,2.94977e-125,9.99999e-01,9.99999e-01,4.64170e-125,6.35494e-01,9.99999e-01
1.228637839e+00,1.57994e-96,9.99999e-01,9.99999e-01,2.46399e-96,6.41211e-01,9.99999e-01
