#,Wave/freq,Total,N2,O2,CO2,Rayleigh,CIA
4.000000000e-01,4.46345e-16,9.99999e-01,9.99999e-01,9.99999e-01,4.46345e-16,9.99999e-01
4.020000000e-01,8.97801e-16,9.99999e-01,9.99999e-01,9.99999e-01,8.97801e-16,9.99999e-01
4.040100000e-01,1.77989e-15,9.99999e-01,9.99999e-01,9.99999e-01,1.77989e-15,9.99999e-01
4.060300500e-01,3.48124e-15,9.99999e-01,9.99999e-01,9.99999e-01,3.48124e-15,9.99999e-01
4.080602003e-01,6.71924e-15,9.99999e-01,9.99999e-01,9.99999e-01,6.71924e-15,9.99999e-01
4.101005013e-01,1.28016e-14,9.99999e-01,9.99999e-01,9.99999e-01,1.28016e-14,9.99999e-01
4.121510038e-01,2.40814e-14,9.99999e-01,9.99999e-01,9.99999e-01,2.40814e-14,9.99999e-01
4.142117588e-01,4.47380e-14,9.99999e-01,9.99999e-01,9.99999e-01,4.47380e-14,9.99999e-01
4.162828176e-01,8.21030e-14,9.99999e-01,9.99999e-01,9.99999e-01,8.21030e-14,9.99999e-01
4.183642317e-01,1.48879e-13,9.99999e-01,9.99999e-01,9.99999e-01,1.48879e-13,9.99999e-01
4.204560528e-01,2.66810e-13,9.99999e-01,9.99999e-01,9.99999e-01,2.66810e-13,9.99999e-01
4.225583331e-01,4.72678e-13,9.99999e-01,9.99999e-01,9.99999e-01,4.72678e-13,9.99999e-01
4.246711247e-01,8.27986e-13,9.99999e-01,9.99999e-01,9.99999e-01,8.27986e-13,9.99999e-01
4.267944804e-01,1.43441e-12,9.99999e-01,9.99999e-01,9.99999e-01,1.43441e-12,9.99999e-01
4.289284528e-01,2.45814e-12,9.99999e-01,9.99999e-01,9.99999e-01,2.45814e-12,9.99999e-01
4.310730950e-01,4.16794e-12,9.99999e-01,9.99999e-01,9.99999e-01,4.16794e-12,9.99999e-01
4.332284605e-01,6.99368e-12,9.99999e-01,9.99999e-01,9.99999e-01,6.99368e-12,9.99999e-01
4.353946028e-01,1.16158e-11,9.99999e-01,9.99999e-01,9.99999e-01,1.16158e-11,9.99999e-01
4.375715758e-01,1.91004e-11,9.99999e-01,9.99999e-01,9.99999e-01,1.91004e-11,9.99999e-01
4.397594337e-01,3.11006e-11,9.99999e-01,9.99999e-01,9.99999e-01,3.11006e-11,9.99999e-01
4.419582309e-01,5.01548e-11,9.99999e-01,9.99999e-01,9.99999e-01,5.01548e-11,9.99999e-01
4.441680220e-01,8.01230e-11,9.99999e-01,9.99999e-01,9.99999e-01,8.01230e-11,9.99999e-01
4.463888621e-01,1.26819e-10,9.99999e-01,9.99999e-01,9.99999e-01,1.26819e-10,9.99999e-01
4.486208064e-01,1.98916e-10,9.99999e-01,9.99999e-01,9.99999e-01,1.98916e-10,9.99999e-01
4.508639105e-01,3.09239e-10,9.99999e-01,9.99999e-01,9.99999e-01,3.09239e-10,9.99999e-01
4.531182300e-01,4.76579e-10,9.99999e-01,9.99999e-01,9.99999e-01,4.76579e-10,9.99999e-01
4.553838212e-01,7.28224e-10,9.99999e-01,9.99999e-01,9.99999e-01,7.28224e-10,9.99999e-01
4.576607403e-01,1.10346e-09,9.99999e-01,9.99999e-01,9.99999e-01,1.10346e-09,9.99999e-01
4.599490440e-01,1.65839e-09,9.99999e-01,9.99999e-01,9.99999e-01,1.65839e-09,9.99999e-01
4.622487892e-01,2.47240e-09,9.99999e-01,9.99999e-01,9.99999e-01,2.47240e-09,9.99999e-01
4.645600332e-01,3.65701e-09,9.99999e-01,9.99999e-01,9.99999e-01,3.65701e-09,9.99999e-01
4.668828333e-01,5.36754e-09,9.99999e-01,9.99999e-01,9.99999e-01,5.36754e-09,9.99999e-01
4.692172475e-01,7.81866e-09,9.99999e-01,9.99999e-01,9.99999e-01,7.81866e-09,9.99999e-01
4.715633337e-01,1.13048e-08,9.99999e-01,9.99999e-01,9.99999e-01,1.13048e-08,9.99999e-01
4.739211504e-01,1.62267e-08,9.99999e-01,9.99999e-01,9.99999e-01,1.62267e-08,9.99999e-01
4.762907561e-01,2.31259e-08,9.99999e-01,9.99999e-01,9.99999e-01,2.31259e-08,9.99999e-01
4.786722099e-01,3.27285e-08,9.99999e-01,9.99999e-01,9.99999e-01,3.27285e-08,9.99999e-01
4.810655710e-01,4.60018e-08,9.99999e-01,9.99999e-01,9.99999e-01,4.60018e-08,9.99999e-01
4.834708988e-01,6.42249e-08,9.99999e-01,9.99999e-01,9.99999e-01,6.42249e-08,9.99999e-01
4.858882533e-01,8.90777e-08,9.99999e-01,9.99999e-01,9.99999e-01,8.90777e-08,9.99999e-01
4.883176946e-01,1.22752e-07,9.99999e-01,9.99999e-01,9.99999e-01,1.22752e-07,9.99999e-01
4.907592831e-01,1.68088e-07,9.99999e-01,9.99999e-01,9.99999e-01,1.68088e-07,9.99999e-01
4.932130795e-01,2.28744e-07,9.99999e-01,9.99999e-01,9.99999e-01,2.28744e-07,9.99999e-01
4.956791449e-01,3.09399e-07,9.99999e-01,9.99999e-01,9.99999e-01,3.09399e-07,9.99999e-01
4.981575406e-01,4.16004e-07,9.99999e-01,9.99999e-01,9.99999e-01,4.16004e-07,9.99999e-01
5.006483283e-01,5.56078e-07,9.99999e-01,9.99999e-01,9.99999e-01,5.56078e-07,9.99999e-01
5.031515699e-01,7.39069e-07,9.99999e-01,9.99999e-01,9.99999e-01,7.39069e-07,9.99999e-01
5.056673278e-01,9.76773e-07,9.99999e-01,9.99999e-01,9.99999e-01,9.76773e-07,9.99999e-01
5.081956644e-01,1.28384e-06,9.99999e-01,9.99999e-01,9.99999e-01,1.28384e-06,9.99999e-01
5.107366428e-01,1.67835e-06,9.99999e-01,9.99999e-01,9.99999e-01,1.67835e-06,9.99999e-01
5.132903260e-01,2.18250e-06,9.99999e-01,9.99999e-01,9.99999e-01,2.18250e-06,9.99999e-01
5.158567776e-01,2.82341e-06,9.99999e-01,9.99999e-01,9.99999e-01,2.82341e-06,9.99999e-01
5.184360615e-01,3.63400e-06,9.99999e-01,9.99999e-01,9.99999e-01,3.63400e-06,9.99999e-01
5.210282418e-01,4.65405e-06,9.99999e-01,9.99999e-01,9.99999e-01,4.65405e-06,9.99999e-01
5.236333830e-01,5.93136e-06,9.99999e-01,9.99999e-01,9.99999e-01,5.93136e-06,9.99999e-01
5.262515499e-01,7.52312e-06,9.99999e-01,9.99999e-01,9.99999e-01,7.52312e-06,9.99999e-01
5.288828077e-01,9.49733e-06,9.99999e-01,9.99999e-01,9.99999e-01,9.49733e-06,9.99999e-01
5.315272217e-01,1.19346e-05,9.99999e-01,9.99999e-01,9.99999e-01,1.19346e-05,9.99999e-01
5.341848578e-01,1.49297e-05,9.99999e-01,9.99999e-01,9.99999e-01,1.49297e-05,9.99999e-01
5.368557821e-01,1.85941e-05,9.99999e-01,9.99999e-01,9.99999e-01,1.85941e-05,9.99999e-01
5.395400610e-01,2.30578e-05,9.99999e-01,9.99999e-01,9.99999e-01,2.30578e-05,9.99999e-01
5.422377613e-01,2.84717e-05,9.99999e-01,9.99999e-01,9.99999e-01,2.84717e-05,9.99999e-01
5.449489501e-01,3.50106e-05,9.99999e-01,9.99999e-01,9.99999e-01,3.50106e-05,9.99999e-01
5.476736949e-01,4.28759e-05,9.99999e-01,9.99999e-01,9.99999e-01,4.28759e-05,9.99999e-01
5.504120634e-01,5.22983e-05,9.99999e-01,9.99999e-01,9.99999e-01,5.22983e-05,9.99999e-01
5.531641237e-01,6.35416e-05,9.99999e-01,9.99999e-01,9.99999e-01,6.35416e-05,9.99999e-01
5.559299443e-01,7.69056e-05,9.99999e-01,9.99999e-01,9.99999e-01,7.69056e-05,9.99999e-01
5.587095940e-01,9.27301e-05,9.99999e-01,9.99999e-01,9.99999e-01,9.27301e-05,9.99999e-01
5.615031420e-01,1.11398e-04,9.99999e-01,9.99999e-01,9.99999e-01,1.11398e-04,9.99999e-01
5.643106577e-01,1.33340e-04,9.99999e-01,9.99999e-01,9.99999e-01,1.33340e-04,9.99999e-01
5.671322110e-01,1.59039e-04,9.99999e-01,9.99999e-01,9.99999e-01,1.59039e-04,9.99999e-01
5.699678720e-01,1.89031e-04,9.99999e-01,9.99999e-01,9.99999e-01,1.89031e-04,9.99999e-01
5.728177114e-01,2.23914e-04,9.99999e-01,9.99999e-01,9.99999e-01,2.23914e-04,9.99999e-01
5.756818000e-01,2.64348e-04,9.99999e-01,9.99999e-01,9.99999e-01,2.64348e-04,9.99999e-01
5.785602090e-01,3.11062e-04,9.99999e-01,9.99999e-01,9.99999e-01,3.11062e-04,9.99999e-01
5.814530100e-01,3.64856e-04,9.99999e-01,9.99999e-01,9.99999e-01,3.64856e-04,9.99999e-01
5.843602750e-01,4.26607e-04,9.99999e-01,9.99999e-01,9.99999e-01,4.26607e-04,9.99999e-01
5.872820764e-01,4.97272e-04,9.99999e-01,9.99999e-01,9.99999e-01,4.97272e-04,9.99999e-01
5.902184868e-01,5.77889e-04,9.99999e-01,9.99999e-01,9.99999e-01,5.77889e-04,9.99999e-01
5.931695792e-01,6.69585e-04,9.99999e-01,9.99999e-01,9.99999e-01,6.69585e-04,9.99999e-01
5.961354271e-01,7.73578e-04,9.99999e-01,9.99999e-01,9.99999e-01,7.73578e-04,9.99999e-01
5.991161043e-01,8.91176e-04,9.99999e-01,9.99999e-01,9.99999e-01,8.91176e-04,9.99999e-01
6.021116848e-01,1.02379e-03,9.99999e-01,9.99999e-01,9.99999e-01,1.02379e-03,9.99999e-01
6.051222432e-01,1.17291e-03,9.99999e-01,9.99999e-01,9.99999e-01,1.17291e-03,9.99999e-01
6.081478544e-01,1.34015e-03,9.99999e-01,9.99999e-01,9.99999e-01,1.34015e-03,9.99999e-01
6.111885937e-01,1.52722e-03,9.99999e-01,9.99999e-01,9.99999e-01,1.52722e-03,9.99999e-01
6.142445367e-01,1.73590e-03,9.99999e-01,9.99999e-01,9.99999e-01,1.73590e-03,9.99999e-01
6.173157594e-01,1.96812e-03,9.99999e-01,9.99999e-01,9.99999e-01,1.96812e-03,9.99999e-01
6.204023382e-01,2.22587e-03,9.99999e-01,9.99999e-01,9.99999e-01,2.22587e-03,9.99999e-01
6.235043498e-01,2.51127e-03,9.99999e-01,9.99999e-01,9.99999e-01,2.51127e-03,9.99999e-01
6.266218716e-01,2.82652e-03,9.99999e-01,9.99999e-01,9.99999e-01,2.82652e-03,9.99999e-01
6.297549810e-01,3.17392e-03,9.99999e-01,9.99999e-01,9.99999e-01,3.17392e-03,9.99999e-01
6.329037559e-01,3.55587e-03,9.99999e-01,9.99999e-01,9.99999e-01,3.55587e-03,9.99999e-01
6.360682746e-01,3.97485e-03,9.99999e-01,9.99999e-01,9.99999e-01,3.97485e-03,9.99999e-01
6.392486160e-01,4.43344e-03,9.99999e-01,9.99999e-01,9.99999e-01,4.43344e-03,9.99999e-01
6.424448591e-01,4.93427e-03,9.99999e-01,9.99999e-01,9.99999e-01,4.93427e-03,9.99999e-01
6.456570834e-01,5.48009e-03,9.99999e-01,9.99999e-01,9.99999e-01,5.48009e-03,9.99999e-01
6.488853688e-01,6.07369e-03,9.99999e-01,9.99999e-01,9.99999e-01,6.07369e-03,9.99999e-01
6.521297956e-01,6.71792e-03,9.99999e-01,9.99999e-01,9.99999e-01,6.71792e-03,9.99999e-01
6.553904446e-01,7.41570e-03,9.99999e-01,9.99999e-01,9.99999e-01,7.41570e-03,9.99999e-01
6.586673968e-01,8.17000e-03,9.99999e-01,9.99999e-01,9.99999e-01,8.17000e-03,9.99999e-01
6.619607338e-01,8.98381e-03,9.99999e-01,9.99999e-01,9.99999e-01,8.98381e-03,9.99999e-01
6.652705375e-01,9.86018e-03,9.99999e-01,9.99999e-01,9.99999e-01,9.86018e-03,9.99999e-01
6.685968902e-01,1.08022e-02,9.99999e-01,9.99999e-01,9.99999e-01,1.08022e-02,9.99999e-01
6.719398746e-01,1.18128e-02,9.99999e-01,9.99999e-01,9.99999e-01,1.18128e-02,9.99999e-01
6.752995740e-01,1.28952e-02,9.99999e-01,9.99999e-01,9.99999e-01,1.28952e-02,9.99999e-01
6.786760719e-01,1.40525e-02,9.99999e-01,9.99999e-01,9.99999e-01,1.40525e-02,9.99999e-01
6.820694522e-01,1.52876e-02,9.99999e-01,9.99999e-01,9.99999e-01,1.52876e-02,9.99999e-01
6.854797995e-01,1.66036e-02,9.99999e-01,9.99999e-01,9.99999e-01,1.66036e-02,9.99999e-01
6.889071985e-01,1.80036e-02,9.99999e-01,9.99999e-01,9.99999e-01,1.80036e-02,9.99999e-01
6.923517345e-01,1.94904e-02,9.99999e-01,9.99999e-01,9.99999e-01,1.94904e-02,9.99999e-01
6.958134932e-01,2.10669e-02,9.99999e-01,9.99999e-01,9.99999e-01,2.10669e-02,9.99999e-01
6.992925606e-01,2.27359e-02,9.99999e-01,9.99999e-01,9.99999e-01,2.27359e-02,9.99999e-01
7.027890234e-01,2.45003e-02,9.99999e-01,9.99999e-01,9.99999e-01,2.45003e-02,9.99999e-01
7.063029686e-01,2.63627e-02,9.99999e-01,9.99999e-01,9.99999e-01,2.63627e-02,9.99999e-01
7.098344834e-01,2.83256e-02,9.99999e-01,9.99999e-01,9.99999e-01,2.83256e-02,9.99999e-01
7.133836558e-01,3.03915e-02,9.99999e-01,9.99999e-01,9.99999e-01,3.03915e-02,9.99999e-01
7.169505741e-01,3.25628e-02,9.99999e-01,9.99999e-01,9.99999e-01,3.25628e-02,9.99999e-01
7.205353270e-01,3.48417e-02,9.99999e-01,9.99999e-01,9.99999e-01,3.48417e-02,9.99999e-01
7.241380036e-01,3.72303e-02,9.99999e-01,9.99999e-01,9.99999e-01,3.72303e-02,9.99999e-01
7.277586936e-01,3.97306e-02,9.99999e-01,9.99999e-01,9.99999e-01,3.97306e-02,9.99999e-01
7.313974871e-01,4.23444e-02,9.99999e-01,9.99999e-01,9.99999e-01,4.23444e-02,9.99999e-01
7.350544745e-01,4.50733e-02,9.99999e-01,9.99999e-01,9.99999e-01,4.50733e-02,9.99999e-01
7.387297469e-01,4.79190e-02,9.99999e-01,9.99999e-01,9.99999e-01,4.79190e-02,9.99999e-01
7.424233956e-01,5.08828e-02,9.99999e-01,9.99999e-01,9.99999e-01,5.08828e-02,9.99999e-01
7.461355126e-01,5.39659e-02,9.99999e-01,9.99999e-01,9.99999e-01,5.39659e-02,9.99999e-01
7.498661902e-01,5.71694e-02,9.99999e-01,9.99999e-01,9.99999e-01,5.71694e-02,9.99999e-01
7.536155211e-01,6.04940e-02,9.99999e-01,9.99999e-01,9.99999e-01,6.04940e-02,9.99999e-01
7.573835987e-01,6.39406e-02,9.99999e-01,9.99999e-01,9.99999e-01,6.39406e-02,9.99999e-01
7.611705167e-01,6.75096e-02,9.99999e-01,9.99999e-01,9.99999e-01,6.75096e-02,9.99999e-01
7.649763693e-01,7.12014e-02,9.99999e-01,9.99999e-01,9.99999e-01,7.12014e-02,9.99999e-01
7.688012511e-01,7.50162e-02,9.99999e-01,9.99999e-01,9.99999e-01,7.50162e-02,9.99999e-01
7.726452574e-01,7.89538e-02,9.99999e-01,9.99999e-01,9.99999e-01,7.89538e-02,9.99999e-01
7.765084837e-01,8.30143e-02,9.99999e-01,9.99999e-01,9.99999e-01,8.30143e-02,9.99999e-01
7.803910261e-01,7.88377e-02,9.99999e-01,9.99999e-01,9.04130e-01,8.71971e-02,9.99999e-01
7.842929812e-01,5.69953e-02,9.99999e-01,9.99999e-01,6.22886e-01,9.15019e-02,9.99999e-01
7.882144461e-01,5.79989e-02,9.99999e-01,9.99999e-01,6.04609e-01,9.59278e-02,9.99999e-01
7.921555184e-01,7.36161e-02,9.99999e-01,9.99999e-01,7.32688e-01,1.00474e-01,9.99999e-01
7.961162960e-01,8.53201e-02,9.99999e-01,9.99999e-01,8.11494e-01,1.05139e-01,9.99999e-01
8.000968774e-01,9.81115e-02,9.99999e-01,9.99999e-01,8.92548e-01,1.09923e-01,9.99999e-01
8.040973618e-01,1.08277e-01,9.99999e-01,9.99999e-01,9.42986e-01,1.14823e-01,9.99999e-01
8.081178486e-01,1.16633e-01,9.99999e-01,9.99999e-01,9.73251e-01,1.19838e-01,9.99999e-01
8.121584379e-01,1.23939e-01,9.99999e-01,9.99999e-01,9.91776e-01,1.24967e-01,9.99999e-01
8.162192301e-01,1.29970e-01,9.99999e-01,9.99999e-01,9.98175e-01,1.30208e-01,9.99999e-01
8.203003262e-01,1.35554e-01,9.99999e-01,9.99999e-01,9.99975e-01,1.35558e-01,9.99999e-01
8.244018279e-01,1.41015e-01,9.99999e-01,9.99999e-01,9.99999e-01,1.41015e-01,9.99999e-01
8.285238370e-01,1.46579e-01,9.99999e-01,9.99999e-01,9.99999e-01,1.46579e-01,9.99999e-01
8.326664562e-01,1.52245e-01,9.99999e-01,9.99999e-01,9.99999e-01,1.52245e-01,9.99999e-01
8.368297885e-01,1.58012e-01,9.99999e-01,9.99999e-01,9.99999e-01,1.58012e-01,9.99999e-01
8.410139374e-01,1.63877e-01,9.99999e-01,9.99999e-01,9.99999e-01,1.63877e-01,9.99999e-01
8.452190071e-01,1.69837e-01,9.99999e-01,9.99999e-01,9.99999e-01,1.69837e-01,9.99999e-01
8.494451021e-01,1.75890e-01,9.99999e-01,9.99999e-01,9.99999e-01,1.75890e-01,9.99999e-01
8.536923276e-01,1.82033e-01,9.99999e-01,9.99999e-01,9.99999e-01,1.82033e-01,9.99999e-01
8.579607893e-01,1.88263e-01,9.99999e-01,9.99999e-01,9.99999e-01,1.88263e-01,9.99999e-01
8.622505932e-01,1.94576e-01,9.99999e-01,9.99999e-01,9.99999e-01,1.94576e-01,9.99999e-01
8.665618462e-01,1.72588e-01,9.99999e-01,9.99999e-01,8.58774e-01,2.00970e-01,9.99999e-01
8.708946554e-01,6.44351e-02,9.99999e-01,9.99999e-01,3.10617e-01,2.07442e-01,9.99999e-01
8.752491287e-01,8.09014e-02,9.99999e-01,9.99999e-01,3.78065e-01,2.13988e-01,9.99999e-01
8.796253743e-01,1.27645e-01,9.99999e-01,9.99999e-01,5.78614e-01,2.20605e-01,9.99999e-01
8.840235012e-01,1.70176e-01,9.99999e-01,9.99999e-01,7.48716e-01,2.27290e-01,9.99999e-01
8.884436187e-01,2.08746e-01,9.99999e-01,9.99999e-01,8.91922e-01,2.34040e-01,9.99999e-01
8.928858368e-01,2.29897e-01,9.99999e-01,9.99999e-01,9.54520e-01,2.40851e-01,9.99999e-01
8.973502660e-01,2.44953e-01,9.99999e-01,9.99999e-01,9.88831e-01,2.47719e-01,9.99999e-01
9.018370173e-01,2.54329e-01,9.99999e-01,9.99999e-01,9.98768e-01,2.54642e-01,9.99999e-01
9.063462024e-01,2.53255e-01,9.99999e-01,9.99999e-01,9.68038e-01,2.61617e-01,9.99999e-01
9.108779334e-01,2.49582e-01,9.99999e-01,9.99999e-01,9.29064e-01,2.68638e-01,9.99999e-01
9.154323231e-01,2.71050e-01,9.99999e-01,9.99999e-01,9.83117e-01,2.75704e-01,9.99999e-01
9.200094847e-01,2.26476e-01,9.99999e-01,9.99999e-01,8.00804e-01,2.82811e-01,9.99999e-01
9.246095321e-01,2.02638e-01,9.99999e-01,9.99999e-01,6.98859e-01,2.89955e-01,9.99999e-01
9.292325798e-01,2.24836e-01,9.99999e-01,9.99999e-01,7.56685e-01,2.97133e-01,9.99999e-01
9.338787427e-01,2.32363e-01,9.99999e-01,9.99999e-01,7.63495e-01,3.04341e-01,9.99999e-01
9.385481364e-01,2.55070e-01,9.99999e-01,9.99999e-01,8.18640e-01,3.11577e-01,9.99999e-01
9.432408771e-01,2.81978e-01,9.99999e-01,9.99999e-01,8.84394e-01,3.18837e-01,9.99999e-01
9.479570815e-01,3.06128e-01,9.99999e-01,9.99999e-01,9.38703e-01,3.26118e-01,9.99999e-01
9.526968669e-01,3.23439e-01,9.99999e-01,9.99999e-01,9.70073e-01,3.33416e-01,9.99999e-01
9.574603512e-01,3.36332e-01,9.99999e-01,9.99999e-01,9.87094e-01,3.40729e-01,9.99999e-01
9.622476530e-01,3.46648e-01,9.99999e-01,9.99999e-01,9.95963e-01,3.48053e-01,9.99999e-01
9.670588912e-01,3.54956e-01,9.99999e-01,9.99999e-01,9.98791e-01,3.55385e-01,9.99999e-01
9.718941857e-01,3.62692e-01,9.99999e-01,9.99999e-01,9.99916e-01,3.62722e-01,9.99999e-01
9.767536566e-01,3.70061e-01,9.99999e-01,9.99999e-01,9.99999e-01,3.70061e-01,9.99999e-01
9.816374249e-01,3.77399e-01,9.99999e-01,9.99999e-01,9.99999e-01,3.77399e-01,9.99999e-01
9.865456120e-01,3.84733e-01,9.99999e-01,9.99999e-01,9.99999e-01,3.84733e-01,9.99999e-01
9.914783401e-01,3.92061e-01,9.99999e-01,9.99999e-01,9.99999e-01,3.92061e-01,9.99999e-01
9.964357318e-01,3.99380e-01,9.99999e-01,9.99999e-01,9.99999e-01,3.99380e-01,9.99999e-01
1.001417910e+00,4.06687e-01,9.99999e-01,9.99999e-01,9.99999e-01,4.06687e-01,9.99999e-01
1.006425000e+00,4.13979e-01,9.99999e-01,9.99999e-01,9.99999e-01,4.13979e-01,9.99999e-01
1.011457125e+00,4.21254e-01,9.99999e-01,9.99999e-01,9.99999e-01,4.21254e-01,9.99999e-01
1.016514411e+00,4.28509e-01,9.99999e-01,9.99999e-01,9.99999e-01,4.28509e-01,9.99999e-01
1.021596983e+00,4.35653e-01,9.99999e-01,9.99999e-01,9.99795e-01,4.35742e-01,9.99999e-01
1.026704968e+00,4.37266e-01,9.99999e-01,9.99999e-01,9.87165e-01,4.42951e-01,9.99999e-01
1.031838492e+00,4.02901e-01,9.99999e-01,9.99999e-01,8.95069e-01,4.50133e-01,9.99999e-01
1.036997685e+00,2.09696e-02,9.99999e-01,9.99999e-01,4.58565e-02,4.57286e-01,9.99999e-01
1.042182673e+00,1.20464e-03,9.99999e-01,9.99999e-01,2.59392e-03,4.64409e-01,9.99999e-01
1.047393587e+00,3.15580e-03,9.99999e-01,9.99999e-01,6.69313e-03,4.71498e-01,9.99999e-01
1.052630555e+00,2.28167e-07,9.99999e-01,9.99999e-01,4.76786e-07,4.78552e-01,9.99999e-01
1.057893707e+00,8.85517e-07,9.99999e-01,9.99999e-01,1.82366e-06,4.85570e-01,9.99999e-01
1.063183176e+00,2.84327e-05,9.99999e-01,9.99999e-01,5.77256e-05,4.92548e-01,9.99999e-01
1.068499092e+00,3.11529e-04,9.99999e-01,9.99999e-01,6.23698e-04,4.99487e-01,9.99999e-01
1.073841587e+00,4.34883e-03,9.99999e-01,9.99999e-01,8.58802e-03,5.06383e-01,9.99999e-01
1.079210795e+00,2.60424e-02,9.99999e-01,9.99999e-01,5.07417e-02,5.13235e-01,9.99999e-01
1.084606849e+00,9.56013e-02,9.99999e-01,9.99999e-01,1.83834e-01,5.20042e-01,9.99999e-01
1.090029883e+00,2.16558e-01,9.99999e-01,9.99999e-01,4.11081e-01,5.26801e-01,9.99999e-01
1.095480033e+00,3.43878e-01,9.99999e-01,9.99999e-01,6.44553e-01,5.33513e-01,9.99999e-01
1.100957433e+00,4.36559e-01,9.99999e-01,9.99999e-01,8.08180e-01,5.40175e-01,9.99999e-01
1.106462220e+00,5.00700e-01,9.99999e-01,9.99999e-01,9.15714e-01,5.46786e-01,9.99999e-01
1.111994531e+00,5.35552e-01,9.99999e-01,9.99999e-01,9.67842e-01,5.53346e-01,9.99999e-01
1.117554504e+00,5.55433e-01,9.99999e-01,9.99999e-01,9.92107e-01,5.59852e-01,9.99999e-01
1.123142276e+00,5.66012e-01,9.99999e-01,9.99999e-01,9.99484e-01,5.66303e-01,9.99999e-01
1.128757988e+00,5.72700e-01,9.99999e-01,9.99999e-01,9.99999e-01,5.72700e-01,9.99999e-01
1.134401778e+00,5.79040e-01,9.99999e-01,9.99999e-01,9.99999e-01,5.79040e-01,9.99999e-01
1.140073787e+00,5.85323e-01,9.99999e-01,9.99999e-01,9.99999e-01,5.85323e-01,9.99999e-01
1.145774156e+00,5.91548e-01,9.99999e-01,9.99999e-01,9.99999e-01,5.91548e-01,9.99999e-01
1.151503026e+00,5.97715e-01,9.99999e-01,9.99999e-01,9.99999e-01,5.97715e-01,9.99999e-01
1.157260541e+00,6.03822e-01,9.99999e-01,9.99999e-01,9.99999e-01,6.03822e-01,9.99999e-01
1.163046844e+00,6.09869e-01,9.99999e-01,9.99999e-01,9.99999e-01,6.09869e-01,9.99999e-01
1.168862078e+00,6.15855e-01,9.99999e-01,9.99999e-01,9.99999e-01,6.15855e-01,9.99999e-01
1.174706389e+00,6.21780e-01,9.99999e-01,9.99999e-01,9.99999e-01,6.21780e-01,9.99999e-01
1.180579921e+00,6.27643e-01,9.99999e-01,9.99999e-01,9.99999e-01,6.27643e-01,9.99999e-01
1.186482820e+00,6.33424e-01,9.99999e-01,9.99999e-01,9.99967e-01,6.33444e-01,9.99999e-01
1.192415234e+00,6.11241e-01,9.99999e-01,9.99999e-01,9.56283e-01,6.39183e-01,9.99999e-01
1.198377311e+00,3.28791e-01,9.99999e-01,9.99999e-01,5.09864e-01,6.44859e-01,9.99999e-01
1.204369197e+00,2.25781e-32,9.99999e-01,9.99999e-01,3.47104e-32,6.50471e-01,9.99999e-01
1.210391043e+00,1.13131e-131,9.99999e-01,9.99999e-01,1.72450e-131,6.56020e-01,9.99999e-01
1.216442998e+00,6.47975e-114,9.99999e-01,9.99999e-01,9.79544e-114,6.61506e-01,9.99999e-01
1.222525213e+00,3.33649e-112,9.99999e-01,9.99999e-01,5.00277e-112,6.66927e-01,9.99999e-01
1.228637839e+00,1.61608e-86,9.99999e-01,9.99999e-01,2.40386e-86,6.72285e-01,9.99999e-01
