#,Wave/freq,Total,N2,O2,CO2,Rayleigh,CIA
4.000000000e-01,3.33836e-04,9.99999e-01,9.99999e-01,9.99999e-01,3.33836e-04,9.99999e-01
4.020000000e-01,3.91087e-04,9.99999e-01,9.99999e-01,9.99999e-01,3.91087e-04,9.99999e-01
4.040100000e-01,4.56651e-04,9.99999e-01,9.99999e-01,9.99999e-01,4.56651e-04,9.99999e-01
4.060300500e-01,5.31577e-04,9.99999e-01,9.99999e-01,9.99999e-01,5.31577e-04,9.99999e-01
4.080602003e-01,6.16942e-04,9.99999e-01,9.99999e-01,9.99999e-01,6.16942e-04,9.99999e-01
4.101005013e-01,7.13913e-04,9.99999e-01,9.99999e-01,9.99999e-01,7.13913e-04,9.99999e-01
4.121510038e-01,8.23746e-04,9.99999e-01,9.99999e-01,9.99999e-01,8.23746e-04,9.99999e-01
4.142117588e-01,9.47794e-04,9.99999e-01,9.99999e-01,9.99999e-01,9.47794e-04,9.99999e-01
4.162828176e-01,1.08751e-03,9.99999e-01,9.99999e-01,9.99999e-01,1.08751e-03,9.99999e-01
4.183642317e-01,1.24443e-03,9.99999e-01,9.99999e-01,9.99999e-01,1.24443e-03,9.99999e-01
4.204560528e-01,1.42020e-03,9.99999e-01,9.99999e-01,9.99999e-01,1.42020e-03,9.99999e-01
4.225583331e-01,1.61659e-03,9.99999e-01,9.99999e-01,9.99999e-01,1.61659e-03,9.99999e-01
4.246711247e-01,1.83542e-03,9.99999e-01,9.99999e-01,9.99999e-01,1.83542e-03,9.99999e-01
4.267944804e-01,2.07866e-03,9.99999e-01,9.99999e-01,9.99999e-01,2.07866e-03,9.99999e-01
4.289284528e-01,2.34836e-03,9.99999e-01,9.99999e-01,9.99999e-01,2.34836e-03,9.99999e-01
4.310730950e-01,2.64666e-03,9.99999e-01,9.99999e-01,9.99999e-01,2.64666e-03,9.99999e-01
4.332284605e-01,2.97582e-03,9.99999e-01,9.99999e-01,9.99999e-01,2.97582e-03,9.99999e-01
4.353946028e-01,3.33817e-03,9.99999e-01,9.99999e-01,9.99999e-01,3.33817e-03,9.99999e-01
4.375715758e-01,3.73616e-03,9.99999e-01,9.99999e-01,9.99999e-01,3.73616e-03,9.99999e-01
4.397594337e-01,4.17231e-03,9.99999e-01,9.99999e-01,9.99999e-01,4.17231e-03,9.99999e-01
4.419582309e-01,4.64922e-03,9.99999e-01,9.99999e-01,9.99999e-01,4.64922e-03,9.99999e-01
4.441680220e-01,5.16958e-03,9.99999e-01,9.99999e-01,9.99999e-01,5.16958e-03,9.99999e-01
4.463888621e-01,5.73614e-03,9.99999e-01,9.99999e-01,9.99999e-01,5.73614e-03,9.99999e-01
4.486208064e-01,6.35174e-03,9.99999e-01,9.99999e-01,9.99999e-01,6.35174e-03,9.99999e-01
4.508639105e-01,7.01925e-03,9.99999e-01,9.99999e-01,9.99999e-01,7.01925e-03,9.99999e-01
4.531182300e-01,7.74162e-03,9.99999e-01,9.99999e-01,9.99999e-01,7.74162e-03,9.99999e-01
4.553838212e-01,8.52183e-03,9.99999e-01,9.99999e-01,9.99999e-01,8.52183e-03,9.99999e-01
4.576607403e-01,9.36289e-03,9.99999e-01,9.99999e-01,9.99999e-01,9.36289e-03,9.99999e-01
4.599490440e-01,1.02679e-02,9.99999e-01,9.99999e-01,9.99999e-01,1.02679e-02,9.99999e-01
4.622487892e-01,1.12398e-02,9.99999e-01,9.99999e-01,9.99999e-01,1.12398e-02,9.99999e-01
4.645600332e-01,1.22817e-02,9.99999e-01,9.99999e-01,9.99999e-01,1.22817e-02,9.99999e-01
4.668828333e-01,1.33968e-02,9.99999e-01,9.99999e-01,9.99999e-01,1.33968e-02,9.99999e-01
4.692172475e-01,1.45881e-02,9.99999e-01,9.99999e-01,9.99999e-01,1.45881e-02,9.99999e-01
4.715633337e-01,1.58586e-02,9.99999e-01,9.99999e-01,9.99999e-01,1.58586e-02,9.99999e-01
4.739211504e-01,1.72113e-02,9.99999e-01,9.99999e-01,9.99999e-01,1.72113e-02,9.99999e-01
4.762907561e-01,1.86492e-02,9.99999e-01,9.99999e-01,9.99999e-01,1.86492e-02,9.99999e-01
4.786722099e-01,2.01752e-02,9.99999e-01,9.99999e-01,9.99999e-01,2.01752e-02,9.99999e-01
4.810655710e-01,2.17923e-02,9.99999e-01,9.99999e-01,9.99999e-01,2.17923e-02,9.99999e-01
4.834708988e-01,2.35031e-02,9.99999e-01,9.99999e-01,9.99999e-01,2.35031e-02,9.99999e-01
4.858882533e-01,2.53104e-02,9.99999e-01,9.99999e-01,9.99999e-01,2.53104e-02,9.99999e-01
4.883176946e-01,2.72169e-02,9.99999e-01,9.99999e-01,9.99999e-01,2.72169e-02,9.99999e-01
4.907592831e-01,2.92250e-02,9.99999e-01,9.99999e-01,9.99999e-01,2.92250e-02,9.99999e-01
4.932130795e-01,3.13372e-02,9.99999e-01,9.99999e-01,9.99999e-01,3.13372e-02,9.99999e-01
4.956791449e-01,3.35557e-02,9.99999e-01,9.99999e-01,9.99999e-01,3.35557e-02,9.99999e-01
4.981575406e-01,3.58828e-02,9.99999e-01,9.99999e-01,9.99999e-01,3.58828e-02,9.99999e-01
5.006483283e-01,3.83204e-02,9.99999e-01,9.99999e-01,9.99999e-01,3.83204e-02,9.99999e-01
5.031515699e-01,4.08706e-02,9.99999e-01,9.99999e-01,9.99999e-01,4.08706e-02,9.99999e-01
5.056673278e-01,4.35351e-02,9.99999e-01,9.99999e-01,9.99999e-01,4.35351e-02,9.99999e-01
5.081956644e-01,4.63154e-02,9.99999e-01,9.99999e-01,9.99999e-01,4.63154e-02,9.99999e-01
5.107366428e-01,4.92131e-02,9.99999e-01,9.99999e-01,9.99999e-01,4.92131e-02,9.99999e-01
5.132903260e-01,5.22294e-02,9.99999e-01,9.99999e-01,9.99999e-01,5.22294e-02,9.99999e-01
5.158567776e-01,5.53656e-02,9.99999e-01,9.99999e-01,9.99999e-01,5.53656e-02,9.99999e-01
5.184360615e-01,5.86224e-02,9.99999e-01,9.99999e-01,9.99999e-01,5.86224e-02,9.99999e-01
5.210282418e-01,6.20009e-02,9.99999e-01,9.99999e-01,9.99999e-01,6.20009e-02,9.99999e-01
5.236333830e-01,6.55014e-02,9.99999e-01,9.99999e-01,9.99999e-01,6.55014e-02,9.99999e-01
5.262515499e-01,6.91246e-02,9.99999e-01,9.99999e-01,9.99999e-01,6.91246e-02,9.99999e-01
5.288828077e-01,7.28707e-02,9.99999e-01,9.99999e-01,9.99999e-01,7.28707e-02,9.99999e-01
5.315272217e-01,7.67397e-02,9.99999e-01,9.99999e-01,9.99999e-01,7.67397e-02,9.99999e-01
5.341848578e-01,8.07317e-02,9.99999e-01,9.99999e-01,9.99999e-01,8.07317e-02,9.99999e-01
5.368557821e-01,8.48462e-02,9.99999e-01,9.99999e-01,9.99999e-01,8.48462e-02,9.99999e-01
5.395400610e-01,8.90830e-02,9.99999e-01,9.99999e-01,9.99999e-01,8.90830e-02,9.99999e-01
5.422377613e-01,9.34413e-02,9.99999e-01,9.99999e-01,9.99999e-01,9.34413e-02,9.99999e-01
5.449489501e-01,9.79204e-02,9.99999e-01,9.99999e-01,9.99999e-01,9.79204e-02,9.99999e-01
5.476736949e-01,1.02519e-01,9.99999e-01,9.99999e-01,9.99999e-01,1.02519e-01,9.99999e-01
5.504120634e-01,1.07237e-01,9.99999e-01,9.99999e-01,9.99999e-01,1.07237e-01,9.99999e-01
5.531641237e-01,1.12072e-01,9.99999e-01,9.99999e-01,9.99999e-01,1.12072e-01,9.99999e-01
5.559299443e-01,1.17023e-01,9.99999e-01,9.99999e-01,9.99999e-01,1.17023e-01,9.99999e-01
5.587095940e-01,1.22089e-01,9.99999e-01,9.99999e-01,9.99999e-01,1.22089e-01,9.99999e-01
5.615031420e-01,1.27267e-01,9.99999e-01,9.99999e-01,9.99999e-01,1.27267e-01,9.99999e-01
5.643106577e-01,1.32557e-01,9.99999e-01,9.99999e-01,9.99999e-01,1.32557e-01,9.99999e-01
5.671322110e-01,1.37954e-01,9.99999e-01,9.99999e-01,9.99999e-01,1.37954e-01,9.99999e-01
5.699678720e-01,1.43459e-01,9.99999e-01,9.99999e-01,9.99999e-01,1.43459e-01,9.99999e-01
5.728177114e-01,1.49068e-01,9.99999e-01,9.99999e-01,9.99999e-01,1.49068e-01,9.99999e-01
5.756818000e-01,1.54779e-01,9.99999e-01,9.99999e-01,9.99999e-01,1.54779e-01,9.99999e-01
5.785602090e-01,1.60590e-01,9.99999e-01,9.99999e-01,9.99999e-01,1.60590e-01,9.99999e-01
5.814530100e-01,1.66497e-01,9.99999e-01,9.99999e-01,9.99999e-01,1.66497e-01,9.99999e-01
5.843602750e-01,1.72499e-01,9.99999e-01,9.99999e-01,9.99999e-01,1.72499e-01,9.99999e-01
5.872820764e-01,1.78592e-01,9.99999e-01,9.99999e-01,9.99999e-01,1.78592e-01,9.99999e-01
5.902184868e-01,1.84773e-01,9.99999e-01,9.99999e-01,9.99999e-01,1.84773e-01,9.99999e-01
5.931695792e-01,1.91040e-01,9.99999e-01,9.99999e-01,9.99999e-01,1.91040e-01,9.99999e-01
5.961354271e-01,1.97390e-01,9.99999e-01,9.99999e-01,9.99999e-01,1.97390e-01,9.99999e-01
5.991161043e-01,2.03818e-01,9.99999e-01,9.99999e-01,9.99999e-01,2.03818e-01,9.99999e-01
6.021116848e-01,2.10323e-01,9.99999e-01,9.99999e-01,9.99999e-01,2.10323e-01,9.99999e-01
6.051222432e-01,2.16901e-01,9.99999e-01,9.99999e-01,9.99999e-01,2.16901e-01,9.99999e-01
6.081478544e-01,2.23549e-01,9.99999e-01,9.99999e-01,9.99999e-01,2.23549e-01,9.99999e-01
6.111885937e-01,2.30263e-01,9.99999e-01,9.99999e-01,9.99999e-01,2.30263e-01,9.99999e-01
6.142445367e-01,2.37040e-01,9.99999e-01,9.99999e-01,9.99999e-01,2.37040e-01,9.99999e-01
6.173157594e-01,2.43877e-01,9.99999e-01,9.99999e-01,9.99999e-01,2.43877e-01,9.99999e-01
6.204023382e-01,2.50770e-01,9.99999e-01,9.99999e-01,9.99999e-01,2.50770e-01,9.99999e-01
6.235043498e-01,2.57716e-01,9.99999e-01,9.99999e-01,9.99999e-01,2.57716e-01,9.99999e-01
6.266218716e-01,2.64711e-01,9.99999e-01,9.99999e-01,9.99999e-01,2.64711e-01,9.99999e-01
6.297549810e-01,2.71753e-01,9.99999e-01,9.99999e-01,9.99999e-01,2.71753e-01,9.99999e-01
6.329037559e-01,2.78837e-01,9.99999e-01,9.99999e-01,9.99999e-01,2.78837e-01,9.99999e-01
6.360682746e-01,2.85961e-01,9.99999e-01,9.99999e-01,9.99999e-01,2.85961e-01,9.99999e-01
6.392486160e-01,2.93120e-01,9.99999e-01,9.99999e-01,9.99999e-01,2.93120e-01,9.99999e-01
6.424448591e-01,3.00312e-01,9.99999e-01,9.99999e-01,9.99999e-01,3.00312e-01,9.99999e-01
6.456570834e-01,3.07533e-01,9.99999e-01,9.99999e-01,9.99999e-01,3.07533e-01,9.99999e-01
6.488853688e-01,3.14780e-01,9.99999e-01,9.99999e-01,9.99999e-01,3.14780e-01,9.99999e-01
6.521297956e-01,3.22050e-01,9.99999e-01,9.99999e-01,9.99999e-01,3.22050e-01,9.99999e-01
6.553904446e-01,3.29339e-01,9.99999e-01,9.99999e-01,9.99999e-01,3.29339e-01,9.99999e-01
6.586673968e-01,3.36644e-01,9.99999e-01,9.99999e-01,9.99999e-01,3.36644e-01,9.99999e-01
6.619607338e-01,3.43962e-01,9.99999e-01,9.99999e-01,9.99999e-01,3.43962e-01,9.99999e-01
6.652705375e-01,3.51289e-01,9.99999e-01,9.99999e-01,9.99999e-01,3.51289e-01,9.99999e-01
6.685968902e-01,3.58624e-01,9.99999e-01,9.99999e-01,9.99999e-01,3.58624e-01,9.99999e-01
6.719398746e-01,3.65962e-01,9.99999e-01,9.99999e-01,9.99999e-01,3.65962e-01,9.99999e-01
6.752995740e-01,3.73301e-01,9.99999e-01,9.99999e-01,9.99999e-01,3.73301e-01,9.99999e-01
6.786760719e-01,3.80638e-01,9.99999e-01,9.99999e-01,9.99999e-01,3.80638e-01,9.99999e-01
6.820694522e-01,3.87970e-01,9.99999e-01,9.99999e-01,9.99999e-01,3.87970e-01,9.99999e-01
6.854797995e-01,3.95294e-01,9.99999e-01,9.99999e-01,9.99999e-01,3.95294e-01,9.99999e-01
6.889071985e-01,4.02608e-01,9.99999e-01,9.99999e-01,9.99999e-01,4.02608e-01,9.99999e-01
6.923517345e-01,4.09908e-01,9.99999e-01,9.99999e-01,9.99999e-01,4.09908e-01,9.99999e-01
6.958134932e-01,4.17193e-01,9.99999e-01,9.99999e-01,9.99999e-01,4.17193e-01,9.99999e-01
6.992925606e-01,4.24460e-01,9.99999e-01,9.99999e-01,9.99999e-01,4.24460e-01,9.99999e-01
7.027890234e-01,4.31706e-01,9.99999e-01,9.99999e-01,9.99999e-01,4.31706e-01,9.99999e-01
7.063029686e-01,4.38928e-01,9.99999e-01,9.99999e-01,9.99999e-01,4.38928e-01,9.99999e-01
7.098344834e-01,4.46126e-01,9.99999e-01,9.99999e-01,9.99999e-01,4.46126e-01,9.99999e-01
7.133836558e-01,4.53295e-01,9.99999e-01,9.99999e-01,9.99999e-01,4.53295e-01,9.99999e-01
7.169505741e-01,4.60435e-01,9.99999e-01,9.99999e-01,9.99999e-01,4.60435e-01,9.99999e-01
7.205353270e-01,4.67543e-01,9.99999e-01,9.99999e-01,9.99999e-01,4.67543e-01,9.99999e-01
7.241380036e-01,4.74617e-01,9.99999e-01,9.99999e-01,9.99999e-01,4.74617e-01,9.99999e-01
7.277586936e-01,4.81656e-01,9.99999e-01,9.99999e-01,9.99999e-01,4.81656e-01,9.99999e-01
7.313974871e-01,4.88656e-01,9.99999e-01,9.99999e-01,9.99999e-01,4.88656e-01,9.99999e-01
7.350544745e-01,4.95617e-01,9.99999e-01,9.99999e-01,9.99999e-01,4.95617e-01,9.99999e-01
7.387297469e-01,5.02537e-01,9.99999e-01,9.99999e-01,9.99999e-01,5.02537e-01,9.99999e-01
7.424233956e-01,5.09414e-01,9.99999e-01,9.99999e-01,9.99999e-01,5.09414e-01,9.99999e-01
7.461355126e-01,5.16246e-01,9.99999e-01,9.99999e-01,9.99999e-01,5.16246e-01,9.99999e-01
7.498661902e-01,5.23032e-01,9.99999e-01,9.99999e-01,9.99999e-01,5.23032e-01,9.99999e-01
7.536155211e-01,5.29771e-01,9.99999e-01,9.99999e-01,9.99999e-01,5.29771e-01,9.99999e-01
7.573835987e-01,5.36461e-01,9.99999e-01,9.99999e-01,9.99999e-01,5.36461e-01,9.99999e-01
7.611705167e-01,5.43101e-01,9.99999e-01,9.99999e-01,9.99999e-01,5.43101e-01,9.99999e-01
7.649763693e-01,5.49689e-01,9.99999e-01,9.99999e-01,9.99999e-01,5.49689e-01,9.99999e-01
7.688012511e-01,5.56225e-01,9.99999e-01,9.99999e-01,9.99999e-01,5.56225e-01,9.99999e-01
7.726452574e-01,5.62707e-01,9.99999e-01,9.99999e-01,9.99999e-01,5.62707e-01,9.99999e-01
7.765084837e-01,5.69135e-01,9.99999e-01,9.99999e-01,9.99999e-01,5.69135e-01,9.99999e-01
7.803910261e-01,5.60878e-01,9.99999e-01,9.99999e-01,9.74581e-01,5.75506e-01,9.99999e-01
7.842929812e-01,5.18021e-01,9.99999e-01,9.99999e-01,8.90343e-01,5.81821e-01,9.99999e-01
7.882144461e-01,5.19531e-01,9.99999e-01,9.99999e-01,8.83437e-01,5.88079e-01,9.99999e-01
7.921555184e-01,5.53153e-01,9.99999e-01,9.99999e-01,9.30796e-01,5.94278e-01,9.99999e-01
7.961162960e-01,5.72150e-01,9.99999e-01,9.99999e-01,9.52917e-01,6.00419e-01,9.99999e-01
8.000968774e-01,5.90877e-01,9.99999e-01,9.99999e-01,9.74242e-01,6.06499e-01,9.99999e-01
8.040973618e-01,6.04272e-01,9.99999e-01,9.99999e-01,9.86534e-01,6.12519e-01,9.99999e-01
8.081178486e-01,6.14656e-01,9.99999e-01,9.99999e-01,9.93819e-01,6.18479e-01,9.99999e-01
8.121584379e-01,6.23175e-01,9.99999e-01,9.99999e-01,9.98074e-01,6.24377e-01,9.99999e-01
8.162192301e-01,6.29944e-01,9.99999e-01,9.99999e-01,9.99574e-01,6.30213e-01,9.99999e-01
8.203003262e-01,6.35982e-01,9.99999e-01,9.99999e-01,9.99992e-01,6.35986e-01,9.99999e-01
8.244018279e-01,6.41697e-01,9.99999e-01,9.99999e-01,9.99999e-01,6.41697e-01,9.99999e-01
8.285238370e-01,6.47345e-01,9.99999e-01,9.99999e-01,9.99999e-01,6.47345e-01,9.99999e-01
8.326664562e-01,6.52929e-01,9.99999e-01,9.99999e-01,9.99999e-01,6.52929e-01,9.99999e-01
8.368297885e-01,6.58450e-01,9.99999e-01,9.99999e-01,9.99999e-01,6.58450e-01,9.99999e-01
8.410139374e-01,6.63908e-01,9.99999e-01,9.99999e-01,9.99999e-01,6.63908e-01,9.99999e-01
8.452190071e-01,6.69301e-01,9.99999e-01,9.99999e-01,9.99999e-01,6.69301e-01,9.99999e-01
8.494451021e-01,6.74630e-01,9.99999e-01,9.99999e-01,9.99999e-01,6.74630e-01,9.99999e-01
8.536923276e-01,6.79896e-01,9.99999e-01,9.99999e-01,9.99999e-01,6.79896e-01,9.99999e-01
8.579607893e-01,6.85097e-01,9.99999e-01,9.99999e-01,9.99999e-01,6.85097e-01,9.99999e-01
8.622505932e-01,6.90234e-01,9.99999e-01,9.99999e-01,9.99999e-01,6.90234e-01,9.99999e-01
8.665618462e-01,6.52862e-01,9.99999e-01,9.99999e-01,9.38955e-01,6.95307e-01,9.99999e-01
8.708946554e-01,5.20995e-01,9.99999e-01,9.99999e-01,7.43942e-01,7.00316e-01,9.99999e-01
8.752491287e-01,5.56073e-01,9.99999e-01,9.99999e-01,7.88463e-01,7.05261e-01,9.99999e-01
8.796253743e-01,6.23545e-01,9.99999e-01,9.99999e-01,8.78056e-01,7.10142e-01,9.99999e-01
8.840235012e-01,6.68469e-01,9.99999e-01,9.99999e-01,9.34974e-01,7.14959e-01,9.99999e-01
8.884436187e-01,7.00853e-01,9.99999e-01,9.99999e-01,9.73793e-01,7.19714e-01,9.99999e-01
8.928858368e-01,7.16676e-01,9.99999e-01,9.99999e-01,9.89330e-01,7.24405e-01,9.99999e-01
8.973502660e-01,7.27127e-01,9.99999e-01,9.99999e-01,9.97385e-01,7.29032e-01,9.99999e-01
9.018370173e-01,7.33386e-01,9.99999e-01,9.99999e-01,9.99710e-01,7.33598e-01,9.99999e-01
9.063462024e-01,7.32774e-01,9.99999e-01,9.99999e-01,9.92783e-01,7.38100e-01,9.99999e-01
9.108779334e-01,7.30089e-01,9.99999e-01,9.99999e-01,9.83230e-01,7.42541e-01,9.99999e-01
9.154323231e-01,7.43941e-01,9.99999e-01,9.99999e-01,9.96010e-01,7.46920e-01,9.99999e-01
9.200094847e-01,7.08977e-01,9.99999e-01,9.99999e-01,9.43745e-01,7.51237e-01,9.99999e-01
9.246095321e-01,6.95473e-01,9.99999e-01,9.99999e-01,9.20554e-01,7.55494e-01,9.99999e-01
9.292325798e-01,7.12249e-01,9.99999e-01,9.99999e-01,9.37552e-01,7.59690e-01,9.99999e-01
9.338787427e-01,7.17377e-01,9.99999e-01,9.99999e-01,9.39190e-01,7.63825e-01,9.99999e-01
9.385481364e-01,7.33353e-01,9.99999e-01,9.99999e-01,9.55010e-01,7.67901e-01,9.99999e-01
9.432408771e-01,7.50430e-01,9.99999e-01,9.99999e-01,9.72163e-01,7.71917e-01,9.99999e-01
9.479570815e-01,7.64746e-01,9.99999e-01,9.99999e-01,9.85657e-01,7.75874e-01,9.99999e-01
9.526968669e-01,7.74353e-01,9.99999e-01,9.99999e-01,9.93048e-01,7.79773e-01,9.99999e-01
9.574603512e-01,7.81280e-01,9.99999e-01,9.99999e-01,9.97021e-01,7.83614e-01,9.99999e-01
9.622476530e-01,7.86665e-01,9.99999e-01,9.99999e-01,9.99069e-01,7.87397e-01,9.99999e-01
9.670588912e-01,7.90903e-01,9.99999e-01,9.99999e-01,9.99720e-01,7.91123e-01,9.99999e-01
9.718941857e-01,7.94777e-01,9.99999e-01,9.99999e-01,9.99979e-01,7.94793e-01,9.99999e-01
9.767536566e-01,7.98407e-01,9.99999e-01,9.99999e-01,9.99999e-01,7.98407e-01,9.99999e-01
9.816374249e-01,8.01965e-01,9.99999e-01,9.99999e-01,9.99999e-01,8.01965e-01,9.99999e-01
9.865456120e-01,8.05469e-01,9.99999e-01,9.99999e-01,9.99999e-01,8.05469e-01,9.99999e-01
9.914783401e-01,8.08918e-01,9.99999e-01,9.99999e-01,9.99999e-01,8.08918e-01,9.99999e-01
9.964357318e-01,8.12314e-01,9.99999e-01,9.99999e-01,9.99999e-01,8.12314e-01,9.99999e-01
1.001417910e+00,8.15656e-01,9.99999e-01,9.99999e-01,9.99999e-01,8.15656e-01,9.99999e-01
1.006425000e+00,8.18945e-01,9.99999e-01,9.99999e-01,9.99999e-01,8.18945e-01,9.99999e-01
1.011457125e+00,8.22183e-01,9.99999e-01,9.99999e-01,9.99999e-01,8.22183e-01,9.99999e-01
1.016514411e+00,8.25368e-01,9.99999e-01,9.99999e-01,9.99999e-01,8.25368e-01,9.99999e-01
1.021596983e+00,8.28474e-01,9.99999e-01,9.99999e-01,9.99964e-01,8.28503e-01,9.99999e-01
1.026704968e+00,8.29255e-01,9.99999e-01,9.99999e-01,9.97194e-01,8.31588e-01,9.99999e-01
1.031838492e+00,8.05918e-01,9.99999e-01,9.99999e-01,9.65607e-01,8.34623e-01,9.99999e-01
1.036997685e+00,1.65241e-01,9.99999e-01,9.99999e-01,1.97277e-01,8.37608e-01,9.99999e-01
1.042182673e+00,1.61540e-01,9.99999e-01,9.99999e-01,1.92185e-01,8.40545e-01,9.99999e-01
1.047393587e+00,1.72577e-01,9.99999e-01,9.99999e-01,2.04612e-01,8.43434e-01,9.99999e-01
1.052630555e+00,1.01614e-02,9.99999e-01,9.99999e-01,1.20072e-02,8.46275e-01,9.99999e-01
1.057893707e+00,2.25856e-02,9.99999e-01,9.99999e-01,2.66004e-02,8.49070e-01,9.99999e-01
1.063183176e+00,5.99053e-02,9.99999e-01,9.99999e-01,7.03263e-02,8.51819e-01,9.99999e-01
1.068499092e+00,1.39644e-01,9.99999e-01,9.99999e-01,1.63417e-01,8.54521e-01,9.99999e-01
1.073841587e+00,2.72458e-01,9.99999e-01,9.99999e-01,3.17854e-01,8.57179e-01,9.99999e-01
1.079210795e+00,4.16582e-01,9.99999e-01,9.99999e-01,4.84515e-01,8.59792e-01,9.99999e-01
1.084606849e+00,5.79322e-01,9.99999e-01,9.99999e-01,6.71785e-01,8.62362e-01,9.99999e-01
1.090029883e+00,7.03821e-01,9.99999e-01,9.99999e-01,8.13771e-01,8.64888e-01,9.99999e-01
1.095480033e+00,7.83573e-01,9.99999e-01,9.99999e-01,9.03388e-01,8.67371e-01,9.99999e-01
1.100957433e+00,8.28299e-01,9.99999e-01,9.99999e-01,9.52273e-01,8.69812e-01,9.99999e-01
1.106462220e+00,8.54740e-01,9.99999e-01,9.99999e-01,9.79967e-01,8.72212e-01,9.99999e-01
1.111994531e+00,8.68038e-01,9.99999e-01,9.99999e-01,9.92529e-01,8.74571e-01,9.99999e-01
1.117554504e+00,8.75280e-01,9.99999e-01,9.99999e-01,9.98164e-01,8.76889e-01,9.99999e-01
1.123142276e+00,8.79061e-01,9.99999e-01,9.99999e-01,9.99878e-01,8.79167e-01,9.99999e-01
1.128757988e+00,8.81406e-01,9.99999e-01,9.99999e-01,9.99999e-01,8.81406e-01,9.99999e-01
1.134401778e+00,8.83607e-01,9.99999e-01,9.99999e-01,9.99999e-01,8.83607e-01,9.99999e-01
1.140073787e+00,8.85769e-01,9.99999e-01,9.99999e-01,9.99999e-01,8.85769e-01,9.99999e-01
1.145774156e+00,8.87894e-01,9.99999e-01,9.99999e-01,9.99999e-01,8.87894e-01,9.99999e-01
1.151503026e+00,8.89982e-01,9.99999e-01,9.99999e-01,9.99999e-01,8.89982e-01,9.99999e-01
1.157260541e+00,8.92033e-01,9.99999e-01,9.99999e-01,9.99999e-01,8.92033e-01,9.99999e-01
1.163046844e+00,8.94049e-01,9.99999e-01,9.99999e-01,9.99999e-01,8.94049e-01,9.99999e-01
1.168862078e+00,8.96028e-01,9.99999e-01,9.99999e-01,9.99999e-01,8.96028e-01,9.99999e-01
1.174706389e+00,8.97974e-01,9.99999e-01,9.99999e-01,9.99999e-01,8.97974e-01,9.99999e-01
1.180579921e+00,8.99884e-01,9.99999e-01,9.99999e-01,9.99999e-01,8.99884e-01,9.99999e-01
1.186482820e+00,9.01758e-01,9.99999e-01,9.99999e-01,9.99995e-01,9.01761e-01,9.99999e-01
1.192415234e+00,8.94591e-01,9.99999e-01,9.99999e-01,9.90023e-01,9.03605e-01,9.99999e-01
1.198377311e+00,5.15930e-01,9.99999e-01,9.99999e-01,5.69826e-01,9.05416e-01,9.99999e-01
1.204369197e+00,4.52354e-09,9.99999e-01,9.99999e-01,4.98629e-09,9.07195e-01,9.99999e-01
1.210391043e+00,1.48268e-31,9.99999e-01,9.99999e-01,1.63122e-31,9.08942e-01,9.99999e-01
1.216442998e+00,1.55518e-27,9.99999e-01,9.99999e-01,1.70776e-27,9.10657e-01,9.99999e-01
1.222525213e+00,3.81600e-27,9.99999e-01,9.99999e-01,4.18264e-27,9.12342e-01,9.99999e-01
1.228637839e+00,5.36033e-21,9.99999e-01,9.99999e-01,5.86471e-21,9.13997e-01,9.99999e-01
