#,Wave/freq,Total,N2,O2,CO2,Rayleigh,CIA
4.000000000e-01,8.09610e-10,9.99999e-01,9.99999e-01,9.99999e-01,8.09610e-10,9.99999e-01
4.020000000e-01,1.22473e-09,9.99999e-01,9.99999e-01,9.99999e-01,1.22473e-09,9.99999e-01
4.040100000e-01,1.83685e-09,9.99999e-01,9.99999e-01,9.99999e-01,1.83685e-09,9.99999e-01
4.060300500e-01,2.73294e-09,9.99999e-01,9.99999e-01,9.99999e-01,2.73294e-09,9.99999e-01
4.080602003e-01,4.03440e-09,9.99999e-01,9.99999e-01,9.99999e-01,4.03440e-09,9.99999e-01
4.101005013e-01,5.90997e-09,9.99999e-01,9.99999e-01,9.99999e-01,5.90997e-09,9.99999e-01
4.121510038e-01,8.59244e-09,9.99999e-01,9.99999e-01,9.99999e-01,8.59244e-09,9.99999e-01
4.142117588e-01,1.24005e-08,9.99999e-01,9.99999e-01,9.99999e-01,1.24005e-08,9.99999e-01
4.162828176e-01,1.77669e-08,9.99999e-01,9.99999e-01,9.99999e-01,1.77669e-08,9.99999e-01
4.183642317e-01,2.52756e-08,9.99999e-01,9.99999e-01,9.99999e-01,2.52756e-08,9.99999e-01
4.204560528e-01,3.57081e-08,9.99999e-01,9.99999e-01,9.99999e-01,3.57081e-08,9.99999e-01
4.225583331e-01,5.01035e-08,9.99999e-01,9.99999e-01,9.99999e-01,5.01035e-08,9.99999e-01
4.246711247e-01,6.98335e-08,9.99999e-01,9.99999e-01,9.99999e-01,6.98335e-08,9.99999e-01
4.267944804e-01,9.66966e-08,9.99999e-01,9.99999e-01,9.99999e-01,9.66966e-08,9.99999e-01
4.289284528e-01,1.33035e-07,9.99999e-01,9.99999e-01,9.99999e-01,1.33035e-07,9.99999e-01
4.310730950e-01,1.81880e-07,9.99999e-01,9.99999e-01,9.99999e-01,1.81880e-07,9.99999e-01
4.332284605e-01,2.47128e-07,9.99999e-01,9.99999e-01,9.99999e-01,2.47128e-07,9.99999e-01
4.353946028e-01,3.33755e-07,9.99999e-01,9.99999e-01,9.99999e-01,3.33755e-07,9.99999e-01
4.375715758e-01,4.48080e-07,9.99999e-01,9.99999e-01,9.99999e-01,4.48080e-07,9.99999e-01
4.397594337e-01,5.98077e-07,9.99999e-01,9.99999e-01,9.99999e-01,5.98077e-07,9.99999e-01
4.419582309e-01,7.93747e-07,9.99999e-01,9.99999e-01,9.99999e-01,7.93747e-07,9.99999e-01
4.441680220e-01,1.04756e-06,9.99999e-01,9.99999e-01,9.99999e-01,1.04756e-06,9.99999e-01
4.463888621e-01,1.37497e-06,9.99999e-01,9.99999e-01,9.99999e-01,1.37497e-06,9.99999e-01
4.486208064e-01,1.79506e-06,9.99999e-01,9.99999e-01,9.99999e-01,1.79506e-06,9.99999e-01
4.508639105e-01,2.33117e-06,9.99999e-01,9.99999e-01,9.99999e-01,2.33117e-06,9.99999e-01
4.531182300e-01,3.01182e-06,9.99999e-01,9.99999e-01,9.99999e-01,3.01182e-06,9.99999e-01
4.553838212e-01,3.87155e-06,9.99999e-01,9.99999e-01,9.99999e-01,3.87155e-06,9.99999e-01
4.576607403e-01,4.95208e-06,9.99999e-01,9.99999e-01,9.99999e-01,4.95208e-06,9.99999e-01
4.599490440e-01,6.30346e-06,9.99999e-01,9.99999e-01,9.99999e-01,6.30346e-06,9.99999e-01
4.622487892e-01,7.98546e-06,9.99999e-01,9.99999e-01,9.99999e-01,7.98546e-06,9.99999e-01
4.645600332e-01,1.00691e-05,9.99999e-01,9.99999e-01,9.99999e-01,1.00691e-05,9.99999e-01
4.668828333e-01,1.26385e-05,9.99999e-01,9.99999e-01,9.99999e-01,1.26385e-05,9.99999e-01
4.692172475e-01,1.57924e-05,9.99999e-01,9.99999e-01,9.99999e-01,1.57924e-05,9.99999e-01
4.715633337e-01,1.96468e-05,9.99999e-01,9.99999e-01,9.99999e-01,1.96468e-05,9.99999e-01
4.739211504e-01,2.43367e-05,9.99999e-01,9.99999e-01,9.99999e-01,2.43367e-05,9.99999e-01
4.762907561e-01,3.00188e-05,9.99999e-01,9.99999e-01,9.99999e-01,3.00188e-05,9.99999e-01
4.786722099e-01,3.68745e-05,9.99999e-01,9.99999e-01,9.99999e-01,3.68745e-05,9.99999e-01
4.810655710e-01,4.51122e-05,9.99999e-01,9.99999e-01,9.99999e-01,4.51122e-05,9.99999e-01
4.834708988e-01,5.49709e-05,9.99999e-01,9.99999e-01,9.99999e-01,5.49709e-05,9.99999e-01
4.858882533e-01,6.67230e-05,9.99999e-01,9.99999e-01,9.99999e-01,6.67230e-05,9.99999e-01
4.883176946e-01,8.06783e-05,9.99999e-01,9.99999e-01,9.99999e-01,8.06783e-05,9.99999e-01
4.907592831e-01,9.71871e-05,9.99999e-01,9.99999e-01,9.99999e-01,9.71871e-05,9.99999e-01
4.932130795e-01,1.16644e-04,9.99999e-01,9.99999e-01,9.99999e-01,1.16644e-04,9.99999e-01
4.956791449e-01,1.39493e-04,9.99999e-01,9.99999e-01,9.99999e-01,1.39493e-04,9.99999e-01
4.981575406e-01,1.66229e-04,9.99999e-01,9.99999e-01,9.99999e-01,1.66229e-04,9.99999e-01
5.006483283e-01,1.97405e-04,9.99999e-01,9.99999e-01,9.99999e-01,1.97405e-04,9.99999e-01
5.031515699e-01,2.33632e-04,9.99999e-01,9.99999e-01,9.99999e-01,2.33632e-04,9.99999e-01
5.056673278e-01,2.75590e-04,9.99999e-01,9.99999e-01,9.99999e-01,2.75590e-04,9.99999e-01
5.081956644e-01,3.24024e-04,9.99999e-01,9.99999e-01,9.99999e-01,3.24024e-04,9.99999e-01
5.107366428e-01,3.79754e-04,9.99999e-01,9.99999e-01,9.99999e-01,3.79754e-04,9.99999e-01
5.132903260e-01,4.43675e-04,9.99999e-01,9.99999e-01,9.99999e-01,4.43675e-04,9.99999e-01
5.158567776e-01,5.16766e-04,9.99999e-01,9.99999e-01,9.99999e-01,5.16766e-04,9.99999e-01
5.184360615e-01,6.00088e-04,9.99999e-01,9.99999e-01,9.99999e-01,6.00088e-04,9.99999e-01
5.210282418e-01,6.94789e-04,9.99999e-01,9.99999e-01,9.99999e-01,6.94789e-04,9.99999e-01
5.236333830e-01,8.02110e-04,9.99999e-01,9.99999e-01,9.99999e-01,8.02110e-04,9.99999e-01
5.262515499e-01,9.23386e-04,9.99999e-01,9.99999e-01,9.99999e-01,9.23386e-04,9.99999e-01
5.288828077e-01,1.06005e-03,9.99999e-01,9.99999e-01,9.99999e-01,1.06005e-03,9.99999e-01
5.315272217e-01,1.21362e-03,9.99999e-01,9.99999e-01,9.99999e-01,1.21362e-03,9.99999e-01
5.341848578e-01,1.38573e-03,9.99999e-01,9.99999e-01,9.99999e-01,1.38573e-03,9.99999e-01
5.368557821e-01,1.57811e-03,9.99999e-01,9.99999e-01,9.99999e-01,1.57811e-03,9.99999e-01
5.395400610e-01,1.79259e-03,9.99999e-01,9.99999e-01,9.99999e-01,1.79259e-03,9.99999e-01
5.422377613e-01,2.03110e-03,9.99999e-01,9.99999e-01,9.99999e-01,2.03110e-03,9.99999e-01
5.449489501e-01,2.29567e-03,9.99999e-01,9.99999e-01,9.99999e-01,2.29567e-03,9.99999e-01
5.476736949e-01,2.58844e-03,9.99999e-01,9.99999e-01,9.99999e-01,2.58844e-03,9.99999e-01
5.504120634e-01,2.91164e-03,9.99999e-01,9.99999e-01,9.99999e-01,2.91164e-03,9.99999e-01
5.531641237e-01,3.26759e-03,9.99999e-01,9.99999e-01,9.99999e-01,3.26759e-03,9.99999e-01
5.559299443e-01,3.65871e-03,9.99999e-01,9.99999e-01,9.99999e-01,3.65871e-03,9.99999e-01
5.587095940e-01,4.08750e-03,9.99999e-01,9.99999e-01,9.99999e-01,4.08750e-03,9.99999e-01
5.615031420e-01,4.55656e-03,9.99999e-01,9.99999e-01,9.99999e-01,4.55656e-03,9.99999e-01
5.643106577e-01,5.06857e-03,9.99999e-01,9.99999e-01,9.99999e-01,5.06857e-03,9.99999e-01
5.671322110e-01,5.62625e-03,9.99999e-01,9.99999e-01,9.99999e-01,5.62625e-03,9.99999e-01
5.699678720e-01,6.23244e-03,9.99999e-01,9.99999e-01,9.99999e-01,6.23244e-03,9.99999e-01
5.728177114e-01,6.89000e-03,9.99999e-01,9.99999e-01,9.99999e-01,6.89000e-03,9.99999e-01
5.756818000e-01,7.60185e-03,9.99999e-01,9.99999e-01,9.99999e-01,7.60185e-03,9.99999e-01
5.785602090e-01,8.37099e-03,9.99999e-01,9.99999e-01,9.99999e-01,8.37099e-03,9.99999e-01
5.814530100e-01,9.20040e-03,9.99999e-01,9.99999e-01,9.99999e-01,9.20040e-03,9.99999e-01
5.843602750e-01,1.00932e-02,9.99999e-01,9.99999e-01,9.99999e-01,1.00932e-02,9.99999e-01
5.872820764e-01,1.10523e-02,9.99999e-01,9.99999e-01,9.99999e-01,1.10523e-02,9.99999e-01
5.902184868e-01,1.20809e-02,9.99999e-01,9.99999e-01,9.99999e-01,1.20809e-02,9.99999e-01
5.931695792e-01,1.31820e-02,9.99999e-01,9.99999e-01,9.99999e-01,1.31820e-02,9.99999e-01
5.961354271e-01,1.43588e-02,9.99999e-01,9.99999e-01,9.99999e-01,1.43588e-02,9.99999e-01
5.991161043e-01,1.56142e-02,9.99999e-01,9.99999e-01,9.99999e-01,1.56142e-02,9.99999e-01
6.021116848e-01,1.69512e-02,9.99999e-01,9.99999e-01,9.99999e-01,1.69512e-02,9.99999e-01
6.051222432e-01,1.83729e-02,9.99999e-01,9.99999e-01,9.99999e-01,1.83729e-02,9.99999e-01
6.081478544e-01,1.98823e-02,9.99999e-01,9.99999e-01,9.99999e-01,1.98823e-02,9.99999e-01
6.111885937e-01,2.14820e-02,9.99999e-01,9.99999e-01,9.99999e-01,2.14820e-02,9.99999e-01
6.142445367e-01,2.31751e-02,9.99999e-01,9.99999e-01,9.99999e-01,2.31751e-02,9.99999e-01
6.173157594e-01,2.49641e-02,9.99999e-01,9.99999e-01,9.99999e-01,2.49641e-02,9.99999e-01
6.204023382e-01,2.68517e-02,9.99999e-01,9.99999e-01,9.99999e-01,2.68517e-02,9.99999e-01
6.235043498e-01,2.88406e-02,9.99999e-01,9.99999e-01,9.99999e-01,2.88406e-02,9.99999e-01
6.266218716e-01,3.09331e-02,9.99999e-01,9.99999e-01,9.99999e-01,3.09331e-02,9.99999e-01
6.297549810e-01,3.31315e-02,9.99999e-01,9.99999e-01,9.99999e-01,3.31315e-02,9.99999e-01
6.329037559e-01,3.54380e-02,9.99999e-01,9.99999e-01,9.99999e-01,3.54380e-02,9.99999e-01
6.360682746e-01,3.78548e-02,9.99999e-01,9.99999e-01,9.99999e-01,3.78548e-02,9.99999e-01
6.392486160e-01,4.03838e-02,9.99999e-01,9.99999e-01,9.99999e-01,4.03838e-02,9.99999e-01
6.424448591e-01,4.30267e-02,9.99999e-01,9.99999e-01,9.99999e-01,4.30267e-02,9.99999e-01
6.456570834e-01,4.57852e-02,9.99999e-01,9.99999e-01,9.99999e-01,4.57852e-02,9.99999e-01
6.488853688e-01,4.86608e-02,9.99999e-01,9.99999e-01,9.99999e-01,4.86608e-02,9.99999e-01
6.521297956e-01,5.16548e-02,9.99999e-01,9.99999e-01,9.99999e-01,5.16548e-02,9.99999e-01
6.553904446e-01,5.47683e-02,9.99999e-01,9.99999e-01,9.99999e-01,5.47683e-02,9.99999e-01
6.586673968e-01,5.80025e-02,9.99999e-01,9.99999e-01,9.99999e-01,5.80025e-02,9.99999e-01
6.619607338e-01,6.13581e-02,9.99999e-01,9.99999e-01,9.99999e-01,6.13581e-02,9.99999e-01
6.652705375e-01,6.48357e-02,9.99999e-01,9.99999e-01,9.99999e-01,6.48357e-02,9.99999e-01
6.685968902e-01,6.84359e-02,9.99999e-01,9.99999e-01,9.99999e-01,6.84359e-02,9.99999e-01
6.719398746e-01,7.21589e-02,9.99999e-01,9.99999e-01,9.99999e-01,7.21589e-02,9.99999e-01
6.752995740e-01,7.60049e-02,9.99999e-01,9.99999e-01,9.99999e-01,7.60049e-02,9.99999e-01
6.786760719e-01,7.99738e-02,9.99999e-01,9.99999e-01,9.99999e-01,7.99738e-02,9.99999e-01
6.820694522e-01,8.40654e-02,9.99999e-01,9.99999e-01,9.99999e-01,8.40654e-02,9.99999e-01
6.854797995e-01,8.82792e-02,9.99999e-01,9.99999e-01,9.99999e-01,8.82792e-02,9.99999e-01
6.889071985e-01,9.26148e-02,9.99999e-01,9.99999e-01,9.99999e-01,9.26148e-02,9.99999e-01
6.923517345e-01,9.70713e-02,9.99999e-01,9.99999e-01,9.99999e-01,9.70713e-02,9.99999e-01
6.958134932e-01,1.01648e-01,9.99999e-01,9.99999e-01,9.99999e-01,1.01648e-01,9.99999e-01
6.992925606e-01,1.06343e-01,9.99999e-01,9.99999e-01,9.99999e-01,1.06343e-01,9.99999e-01
7.027890234e-01,1.11157e-01,9.99999e-01,9.99999e-01,9.99999e-01,1.11157e-01,9.99999e-01
7.063029686e-01,1.16086e-01,9.99999e-01,9.99999e-01,9.99999e-01,1.16086e-01,9.99999e-01
7.098344834e-01,1.21131e-01,9.99999e-01,9.99999e-01,9.99999e-01,1.21131e-01,9.99999e-01
7.133836558e-01,1.26288e-01,9.99999e-01,9.99999e-01,9.99999e-01,1.26288e-01,9.99999e-01
7.169505741e-01,1.31556e-01,9.99999e-01,9.99999e-01,9.99999e-01,1.31556e-01,9.99999e-01
7.205353270e-01,1.36934e-01,9.99999e-01,9.99999e-01,9.99999e-01,1.36934e-01,9.99999e-01
7.241380036e-01,1.42419e-01,9.99999e-01,9.99999e-01,9.99999e-01,1.42419e-01,9.99999e-01
7.277586936e-01,1.48009e-01,9.99999e-01,9.99999e-01,9.99999e-01,1.48009e-01,9.99999e-01
7.313974871e-01,1.53701e-01,9.99999e-01,9.99999e-01,9.99999e-01,1.53701e-01,9.99999e-01
7.350544745e-01,1.59493e-01,9.99999e-01,9.99999e-01,9.99999e-01,1.59493e-01,9.99999e-01
7.387297469e-01,1.65382e-01,9.99999e-01,9.99999e-01,9.99999e-01,1.65382e-01,9.99999e-01
7.424233956e-01,1.71366e-01,9.99999e-01,9.99999e-01,9.99999e-01,1.71366e-01,9.99999e-01
7.461355126e-01,1.77442e-01,9.99999e-01,9.99999e-01,9.99999e-01,1.77442e-01,9.99999e-01
7.498661902e-01,1.83607e-01,9.99999e-01,9.99999e-01,9.99999e-01,1.83607e-01,9.99999e-01
7.536155211e-01,1.89859e-01,9.99999e-01,9.99999e-01,9.99999e-01,1.89859e-01,9.99999e-01
7.573835987e-01,1.96193e-01,9.99999e-01,9.99999e-01,9.99999e-01,1.96193e-01,9.99999e-01
7.611705167e-01,2.02607e-01,9.99999e-01,9.99999e-01,9.99999e-01,2.02607e-01,9.99999e-01
7.649763693e-01,2.09098e-01,9.99999e-01,9.99999e-01,9.99999e-01,2.09098e-01,9.99999e-01
7.688012511e-01,2.15662e-01,9.99999e-01,9.99999e-01,9.99999e-01,2.15662e-01,9.99999e-01
7.726452574e-01,2.22297e-01,9.99999e-01,9.99999e-01,9.99999e-01,2.22297e-01,9.99999e-01
7.765084837e-01,2.28999e-01,9.99999e-01,9.99999e-01,9.99999e-01,2.28999e-01,9.99999e-01
7.803910261e-01,2.20995e-01,9.99999e-01,9.99999e-01,9.37355e-01,2.35765e-01,9.99999e-01
7.842929812e-01,1.81426e-01,9.99999e-01,9.99999e-01,7.47870e-01,2.42590e-01,9.99999e-01
7.882144461e-01,1.82853e-01,9.99999e-01,9.99999e-01,7.32955e-01,2.49473e-01,9.99999e-01
7.921555184e-01,2.12861e-01,9.99999e-01,9.99999e-01,8.30159e-01,2.56410e-01,9.99999e-01
7.961162960e-01,2.32557e-01,9.99999e-01,9.99999e-01,8.82916e-01,2.63396e-01,9.99999e-01
8.000968774e-01,2.52740e-01,9.99999e-01,9.99999e-01,9.34586e-01,2.70429e-01,9.99999e-01
8.040973618e-01,2.67973e-01,9.99999e-01,9.99999e-01,9.65649e-01,2.77506e-01,9.99999e-01
8.081178486e-01,2.80075e-01,9.99999e-01,9.99999e-01,9.84023e-01,2.84622e-01,9.99999e-01
8.121584379e-01,2.90340e-01,9.99999e-01,9.99999e-01,9.95079e-01,2.91775e-01,9.99999e-01
8.162192301e-01,2.98636e-01,9.99999e-01,9.99999e-01,9.98911e-01,2.98961e-01,9.99999e-01
8.203003262e-01,3.06173e-01,9.99999e-01,9.99999e-01,9.99984e-01,3.06177e-01,9.99999e-01
8.244018279e-01,3.13419e-01,9.99999e-01,9.99999e-01,9.99999e-01,3.13419e-01,9.99999e-01
8.285238370e-01,3.20685e-01,9.99999e-01,9.99999e-01,9.99999e-01,3.20685e-01,9.99999e-01
8.326664562e-01,3.27971e-01,9.99999e-01,9.99999e-01,9.99999e-01,3.27971e-01,9.99999e-01
8.368297885e-01,3.35273e-01,9.99999e-01,9.99999e-01,9.99999e-01,3.35273e-01,9.99999e-01
8.410139374e-01,3.42589e-01,9.99999e-01,9.99999e-01,9.99999e-01,3.42589e-01,9.99999e-01
8.452190071e-01,3.49915e-01,9.99999e-01,9.99999e-01,9.99999e-01,3.49915e-01,9.99999e-01
8.494451021e-01,3.57248e-01,9.99999e-01,9.99999e-01,9.99999e-01,3.57248e-01,9.99999e-01
8.536923276e-01,3.64586e-01,9.99999e-01,9.99999e-01,9.99999e-01,3.64586e-01,9.99999e-01
8.579607893e-01,3.71925e-01,9.99999e-01,9.99999e-01,9.99999e-01,3.71925e-01,9.99999e-01
8.622505932e-01,3.79263e-01,9.99999e-01,9.99999e-01,9.99999e-01,3.79263e-01,9.99999e-01
8.665618462e-01,3.43915e-01,9.99999e-01,9.99999e-01,8.89599e-01,3.86596e-01,9.99999e-01
8.708946554e-01,1.90242e-01,9.99999e-01,9.99999e-01,4.82943e-01,3.93922e-01,9.99999e-01
8.752491287e-01,2.21361e-01,9.99999e-01,9.99999e-01,5.51695e-01,4.01237e-01,9.99999e-01
8.796253743e-01,2.93400e-01,9.99999e-01,9.99999e-01,7.18165e-01,4.08541e-01,9.99999e-01
8.840235012e-01,3.49690e-01,9.99999e-01,9.99999e-01,8.40946e-01,4.15829e-01,9.99999e-01
8.884436187e-01,3.95195e-01,9.99999e-01,9.99999e-01,9.34049e-01,4.23099e-01,9.99999e-01
8.928858368e-01,4.18583e-01,9.99999e-01,9.99999e-01,9.72659e-01,4.30349e-01,9.99999e-01
8.973502660e-01,4.34654e-01,9.99999e-01,9.99999e-01,9.93321e-01,4.37576e-01,9.99999e-01
9.018370173e-01,4.44451e-01,9.99999e-01,9.99999e-01,9.99263e-01,4.44778e-01,9.99999e-01
9.063462024e-01,4.43314e-01,9.99999e-01,9.99999e-01,9.80884e-01,4.51953e-01,9.99999e-01
9.108779334e-01,4.39426e-01,9.99999e-01,9.99999e-01,9.57148e-01,4.59099e-01,9.99999e-01
9.154323231e-01,4.61485e-01,9.99999e-01,9.99999e-01,9.89859e-01,4.66213e-01,9.99999e-01
9.200094847e-01,4.10531e-01,9.99999e-01,9.99999e-01,8.67391e-01,4.73294e-01,9.99999e-01
9.246095321e-01,3.87820e-01,9.99999e-01,9.99999e-01,8.07388e-01,4.80339e-01,9.99999e-01
9.292325798e-01,4.12158e-01,9.99999e-01,9.99999e-01,8.45718e-01,4.87346e-01,9.99999e-01
9.338787427e-01,4.20533e-01,9.99999e-01,9.99999e-01,8.50737e-01,4.94315e-01,9.99999e-01
9.385481364e-01,4.44874e-01,9.99999e-01,9.99999e-01,8.87541e-01,5.01243e-01,9.99999e-01
9.432408771e-01,4.72327e-01,9.99999e-01,9.99999e-01,9.29544e-01,5.08128e-01,9.99999e-01
9.479570815e-01,4.95984e-01,9.99999e-01,9.99999e-01,9.63134e-01,5.14968e-01,9.99999e-01
9.526968669e-01,5.12420e-01,9.99999e-01,9.99999e-01,9.82092e-01,5.21763e-01,9.99999e-01
9.574603512e-01,5.24445e-01,9.99999e-01,9.99999e-01,9.92306e-01,5.28511e-01,9.99999e-01
9.622476530e-01,5.33924e-01,9.99999e-01,9.99999e-01,9.97596e-01,5.35210e-01,9.99999e-01
9.670588912e-01,5.41470e-01,9.99999e-01,9.99999e-01,9.99280e-01,5.41860e-01,9.99999e-01
9.718941857e-01,5.48430e-01,9.99999e-01,9.99999e-01,9.99949e-01,5.48458e-01,9.99999e-01
9.767536566e-01,5.55004e-01,9.99999e-01,9.99999e-01,9.99999e-01,5.55004e-01,9.99999e-01
9.816374249e-01,5.61496e-01,9.99999e-01,9.99999e-01,9.99999e-01,5.61496e-01,9.99999e-01
9.865456120e-01,5.67934e-01,9.99999e-01,9.99999e-01,9.99999e-01,5.67934e-01,9.99999e-01
9.914783401e-01,5.74316e-01,9.99999e-01,9.99999e-01,9.99999e-01,5.74316e-01,9.99999e-01
9.964357318e-01,5.80642e-01,9.99999e-01,9.99999e-01,9.99999e-01,5.80642e-01,9.99999e-01
1.001417910e+00,5.86910e-01,9.99999e-01,9.99999e-01,9.99999e-01,5.86910e-01,9.99999e-01
1.006425000e+00,5.93120e-01,9.99999e-01,9.99999e-01,9.99999e-01,5.93120e-01,9.99999e-01
1.011457125e+00,5.99272e-01,9.99999e-01,9.99999e-01,9.99999e-01,5.99272e-01,9.99999e-01
1.016514411e+00,6.05364e-01,9.99999e-01,9.99999e-01,9.99999e-01,6.05364e-01,9.99999e-01
1.021596983e+00,6.11326e-01,9.99999e-01,9.99999e-01,9.99885e-01,6.11395e-01,9.99999e-01
1.026704968e+00,6.12696e-01,9.99999e-01,9.99999e-01,9.92435e-01,6.17366e-01,9.99999e-01
1.031838492e+00,5.77374e-01,9.99999e-01,9.99999e-01,9.26354e-01,6.23275e-01,9.99999e-01
1.036997685e+00,5.01333e-02,9.99999e-01,9.99999e-01,7.96876e-02,6.29123e-01,9.99999e-01
1.042182673e+00,1.29262e-02,9.99999e-01,9.99999e-01,2.03592e-02,6.34908e-01,9.99999e-01
1.047393587e+00,2.34589e-02,9.99999e-01,9.99999e-01,3.66184e-02,6.40631e-01,9.99999e-01
1.052630555e+00,4.34086e-05,9.99999e-01,9.99999e-01,6.71657e-05,6.46291e-01,9.99999e-01
1.057893707e+00,1.53638e-04,9.99999e-01,9.99999e-01,2.35682e-04,6.51887e-01,9.99999e-01
1.063183176e+00,1.30017e-03,9.99999e-01,9.99999e-01,1.97768e-03,6.57420e-01,9.99999e-01
1.068499092e+00,7.08208e-03,9.99999e-01,9.99999e-01,1.06836e-02,6.62889e-01,9.99999e-01
1.073841587e+00,3.71937e-02,9.99999e-01,9.99999e-01,5.56546e-02,6.68295e-01,9.99999e-01
1.079210795e+00,1.08571e-01,9.99999e-01,9.99999e-01,1.61171e-01,6.73636e-01,9.99999e-01
1.084606849e+00,2.44981e-01,9.99999e-01,9.99999e-01,3.60842e-01,6.78913e-01,9.99999e-01
1.090029883e+00,4.01827e-01,9.99999e-01,9.99999e-01,5.87357e-01,6.84126e-01,9.99999e-01
1.095480033e+00,5.30201e-01,9.99999e-01,9.99999e-01,7.69214e-01,6.89275e-01,9.99999e-01
1.100957433e+00,6.11683e-01,9.99999e-01,9.99999e-01,8.80930e-01,6.94360e-01,9.99999e-01
1.106462220e+00,6.63678e-01,9.99999e-01,9.99999e-01,9.48949e-01,6.99381e-01,9.99999e-01
1.111994531e+00,6.90783e-01,9.99999e-01,9.99999e-01,9.80753e-01,7.04338e-01,9.99999e-01
1.117554504e+00,7.05890e-01,9.99999e-01,9.99999e-01,9.95287e-01,7.09231e-01,9.99999e-01
1.123142276e+00,7.13841e-01,9.99999e-01,9.99999e-01,9.99691e-01,7.14061e-01,9.99999e-01
1.128757988e+00,7.18827e-01,9.99999e-01,9.99999e-01,9.99999e-01,7.18827e-01,9.99999e-01
1.134401778e+00,7.23530e-01,9.99999e-01,9.99999e-01,9.99999e-01,7.23530e-01,9.99999e-01
1.140073787e+00,7.28169e-01,9.99999e-01,9.99999e-01,9.99999e-01,7.28169e-01,9.99999e-01
1.145774156e+00,7.32746e-01,9.99999e-01,9.99999e-01,9.99999e-01,7.32746e-01,9.99999e-01
1.151503026e+00,7.37261e-01,9.99999e-01,9.99999e-01,9.99999e-01,7.37261e-01,9.99999e-01
1.157260541e+00,7.41713e-01,9.99999e-01,9.99999e-01,9.99999e-01,7.41713e-01,9.99999e-01
1.163046844e+00,7.46104e-01,9.99999e-01,9.99999e-01,9.99999e-01,7.46104e-01,9.99999e-01
1.168862078e+00,7.50433e-01,9.99999e-01,9.99999e-01,9.99999e-01,7.50433e-01,9.99999e-01
1.174706389e+00,7.54700e-01,9.99999e-01,9.99999e-01,9.99999e-01,7.54700e-01,9.99999e-01
1.180579921e+00,7.58907e-01,9.99999e-01,9.99999e-01,9.99999e-01,7.58907e-01,9.99999e-01
1.186482820e+00,7.63041e-01,9.99999e-01,9.99999e-01,9.99982e-01,7.63054e-01,9.99999e-01
1.192415234e+00,7.46874e-01,9.99999e-01,9.99999e-01,9.73580e-01,7.67141e-01,9.99999e-01
1.198377311e+00,4.15245e-01,9.99999e-01,9.99999e-01,5.38461e-01,7.71168e-01,9.99999e-01
1.204369197e+00,4.28617e-20,9.99999e-01,9.99999e-01,5.52957e-20,7.75137e-01,9.99999e-01
1.210391043e+00,6.51464e-79,9.99999e-01,9.99999e-01,8.36232e-79,7.79046e-01,9.99999e-01
1.216442998e+00,2.14606e-68,9.99999e-01,9.99999e-01,2.74117e-68,7.82898e-01,9.99999e-01
1.222525213e+00,2.21941e-67,9.99999e-01,9.99999e-01,2.82119e-67,7.86692e-01,9.99999e-01
1.228637839e+00,4.19230e-52,9.99999e-01,9.99999e-01,5.30383e-52,7.90429e-01,9.99999e-01
