#,Wave/freq,Total,N2,O2,CO2,Rayleigh,CIA
4.000000000e-01,9.96936e-06,9.99999e-01,9.99999e-01,9.99999e-01,9.96936e-06,9.99999e-01
4.020000000e-01,1.25187e-05,9.99999e-01,9.99999e-01,9.99999e-01,1.25187e-05,9.99999e-01
4.040100000e-01,1.56456e-05,9.99999e-01,9.99999e-01,9.99999e-01,1.56456e-05,9.99999e-01
4.060300500e-01,1.94677e-05,9.99999e-01,9.99999e-01,9.99999e-01,1.94677e-05,9.99999e-01
4.080602003e-01,2.41192e-05,9.99999e-01,9.99999e-01,9.99999e-01,2.41192e-05,9.99999e-01
4.101005013e-01,2.97559e-05,9.99999e-01,9.99999e-01,9.99999e-01,2.97559e-05,9.99999e-01
4.121510038e-01,3.65579e-05,9.99999e-01,9.99999e-01,9.99999e-01,3.65579e-05,9.99999e-01
4.142117588e-01,4.47325e-05,9.99999e-01,9.99999e-01,9.99999e-01,4.47325e-05,9.99999e-01
4.162828176e-01,5.45173e-05,9.99999e-01,9.99999e-01,9.99999e-01,5.45173e-05,9.99999e-01
4.183642317e-01,6.61833e-05,9.99999e-01,9.99999e-01,9.99999e-01,6.61833e-05,9.99999e-01
4.204560528e-01,8.00385e-05,9.99999e-01,9.99999e-01,9.99999e-01,8.00385e-05,9.99999e-01
4.225583331e-01,9.64315e-05,9.99999e-01,9.99999e-01,9.99999e-01,9.64315e-05,9.99999e-01
4.246711247e-01,1.15755e-04,9.99999e-01,9.99999e-01,9.99999e-01,1.15755e-04,9.99999e-01
4.267944804e-01,1.38451e-04,9.99999e-01,9.99999e-01,9.99999e-01,1.38451e-04,9.99999e-01
4.289284528e-01,1.65012e-04,9.99999e-01,9.99999e-01,9.99999e-01,1.65012e-04,9.99999e-01
4.310730950e-01,1.95987e-04,9.99999e-01,9.99999e-01,9.99999e-01,1.95987e-04,9.99999e-01
4.332284605e-01,2.31988e-04,9.99999e-01,9.99999e-01,9.99999e-01,2.31988e-04,9.99999e-01
4.353946028e-01,2.73688e-04,9.99999e-01,9.99999e-01,9.99999e-01,2.73688e-04,9.99999e-01
4.375715758e-01,3.21832e-04,9.99999e-01,9.99999e-01,9.99999e-01,3.21832e-04,9.99999e-01
4.397594337e-01,3.77235e-04,9.99999e-01,9.99999e-01,9.99999e-01,3.77235e-04,9.99999e-01
4.419582309e-01,4.40791e-04,9.99999e-01,9.99999e-01,9.99999e-01,4.40791e-04,9.99999e-01
4.441680220e-01,5.13473e-04,9.99999e-01,9.99999e-01,9.99999e-01,5.13473e-04,9.99999e-01
4.463888621e-01,5.96339e-04,9.99999e-01,9.99999e-01,9.99999e-01,5.96339e-04,9.99999e-01
4.486208064e-01,6.90534e-04,9.99999e-01,9.99999e-01,9.99999e-01,6.90534e-04,9.99999e-01
4.508639105e-01,7.97295e-04,9.99999e-01,9.99999e-01,9.99999e-01,7.97295e-04,9.99999e-01
4.531182300e-01,9.17951e-04,9.99999e-01,9.99999e-01,9.99999e-01,9.17951e-04,9.99999e-01
4.553838212e-01,1.05393e-03,9.99999e-01,9.99999e-01,9.99999e-01,1.05393e-03,9.99999e-01
4.576607403e-01,1.20675e-03,9.99999e-01,9.99999e-01,9.99999e-01,1.20675e-03,9.99999e-01
4.599490440e-01,1.37805e-03,9.99999e-01,9.99999e-01,9.99999e-01,1.37805e-03,9.99999e-01
4.622487892e-01,1.56953e-03,9.99999e-01,9.99999e-01,9.99999e-01,1.56953e-03,9.99999e-01
4.645600332e-01,1.78304e-03,9.99999e-01,9.99999e-01,9.99999e-01,1.78304e-03,9.99999e-01
4.668828333e-01,2.02049e-03,9.99999e-01,9.99999e-01,9.99999e-01,2.02049e-03,9.99999e-01
4.692172475e-01,2.28392e-03,9.99999e-01,9.99999e-01,9.99999e-01,2.28392e-03,9.99999e-01
4.715633337e-01,2.57545e-03,9.99999e-01,9.99999e-01,9.99999e-01,2.57545e-03,9.99999e-01
4.739211504e-01,2.89731e-03,9.99999e-01,9.99999e-01,9.99999e-01,2.89731e-03,9.99999e-01
4.762907561e-01,3.25183e-03,9.99999e-01,9.99999e-01,9.99999e-01,3.25183e-03,9.99999e-01
4.786722099e-01,3.64141e-03,9.99999e-01,9.99999e-01,9.99999e-01,3.64141e-03,9.99999e-01
4.810655710e-01,4.06855e-03,9.99999e-01,9.99999e-01,9.99999e-01,4.06855e-03,9.99999e-01
4.834708988e-01,4.53586e-03,9.99999e-01,9.99999e-01,9.99999e-01,4.53586e-03,9.99999e-01
4.858882533e-01,5.04599e-03,9.99999e-01,9.99999e-01,9.99999e-01,5.04599e-03,9.99999e-01
4.883176946e-01,5.60169e-03,9.99999e-01,9.99999e-01,9.99999e-01,5.60169e-03,9.99999e-01
4.907592831e-01,6.20576e-03,9.99999e-01,9.99999e-01,9.99999e-01,6.20576e-03,9.99999e-01
4.932130795e-01,6.86109e-03,9.99999e-01,9.99999e-01,9.99999e-01,6.86109e-03,9.99999e-01
4.956791449e-01,7.57058e-03,9.99999e-01,9.99999e-01,9.99999e-01,7.57058e-03,9.99999e-01
4.981575406e-01,8.33723e-03,9.99999e-01,9.99999e-01,9.99999e-01,8.33723e-03,9.99999e-01
5.006483283e-01,9.16404e-03,9.99999e-01,9.99999e-01,9.99999e-01,9.16404e-03,9.99999e-01
5.031515699e-01,1.00540e-02,9.99999e-01,9.99999e-01,9.99999e-01,1.00540e-02,9.99999e-01
5.056673278e-01,1.10103e-02,9.99999e-01,9.99999e-01,9.99999e-01,1.10103e-02,9.99999e-01
5.081956644e-01,1.20359e-02,9.99999e-01,9.99999e-01,9.99999e-01,1.20359e-02,9.99999e-01
5.107366428e-01,1.31339e-02,9.99999e-01,9.99999e-01,9.99999e-01,1.31339e-02,9.99999e-01
5.132903260e-01,1.43074e-02,9.99999e-01,9.99999e-01,9.99999e-01,1.43074e-02,9.99999e-01
5.158567776e-01,1.55594e-02,9.99999e-01,9.99999e-01,9.99999e-01,1.55594e-02,9.99999e-01
5.184360615e-01,1.68929e-02,9.99999e-01,9.99999e-01,9.99999e-01,1.68929e-02,9.99999e-01
5.210282418e-01,1.83110e-02,9.99999e-01,9.99999e-01,9.99999e-01,1.83110e-02,9.99999e-01
5.236333830e-01,1.98166e-02,9.99999e-01,9.99999e-01,9.99999e-01,1.98166e-02,9.99999e-01
5.262515499e-01,2.14124e-02,9.99999e-01,9.99999e-01,9.99999e-01,2.14124e-02,9.99999e-01
5.288828077e-01,2.31015e-02,9.99999e-01,9.99999e-01,9.99999e-01,2.31015e-02,9.99999e-01
5.315272217e-01,2.48864e-02,9.99999e-01,9.99999e-01,9.99999e-01,2.48864e-02,9.99999e-01
5.341848578e-01,2.67698e-02,9.99999e-01,9.99999e-01,9.99999e-01,2.67698e-02,9.99999e-01
5.368557821e-01,2.87543e-02,9.99999e-01,9.99999e-01,9.99999e-01,2.87543e-02,9.99999e-01
5.395400610e-01,3.08424e-02,9.99999e-01,9.99999e-01,9.99999e-01,3.08424e-02,9.99999e-01
5.422377613e-01,3.30363e-02,9.99999e-01,9.99999e-01,9.99999e-01,3.30363e-02,9.99999e-01
5.449489501e-01,3.53382e-02,9.99999e-01,9.99999e-01,9.99999e-01,3.53382e-02,9.99999e-01
5.476736949e-01,3.77503e-02,9.99999e-01,9.99999e-01,9.99999e-01,3.77503e-02,9.99999e-01
5.504120634e-01,4.02744e-02,9.99999e-01,9.99999e-01,9.99999e-01,4.02744e-02,9.99999e-01
5.531641237e-01,4.29125e-02,9.99999e-01,9.99999e-01,9.99999e-01,4.29125e-02,9.99999e-01
5.559299443e-01,4.56661e-02,9.99999e-01,9.99999e-01,9.99999e-01,4.56661e-02,9.99999e-01
5.587095940e-01,4.85366e-02,9.99999e-01,9.99999e-01,9.99999e-01,4.85366e-02,9.99999e-01
5.615031420e-01,5.15256e-02,9.99999e-01,9.99999e-01,9.99999e-01,5.15256e-02,9.99999e-01
5.643106577e-01,5.46341e-02,9.99999e-01,9.99999e-01,9.99999e-01,5.46341e-02,9.99999e-01
5.671322110e-01,5.78632e-02,9.99999e-01,9.99999e-01,9.99999e-01,5.78632e-02,9.99999e-01
5.699678720e-01,6.12136e-02,9.99999e-01,9.99999e-01,9.99999e-01,6.12136e-02,9.99999e-01
5.728177114e-01,6.46860e-02,9.99999e-01,9.99999e-01,9.99999e-01,6.46860e-02,9.99999e-01
5.756818000e-01,6.82810e-02,9.99999e-01,9.99999e-01,9.99999e-01,6.82810e-02,9.99999e-01
5.785602090e-01,7.19988e-02,9.99999e-01,9.99999e-01,9.99999e-01,7.19988e-02,9.99999e-01
5.814530100e-01,7.58396e-02,9.99999e-01,9.99999e-01,9.99999e-01,7.58396e-02,9.99999e-01
5.843602750e-01,7.98033e-02,9.99999e-01,9.99999e-01,9.99999e-01,7.98033e-02,9.99999e-01
5.872820764e-01,8.38897e-02,9.99999e-01,9.99999e-01,9.99999e-01,8.38897e-02,9.99999e-01
5.902184868e-01,8.80984e-02,9.99999e-01,9.99999e-01,9.99999e-01,8.80984e-02,9.99999e-01
5.931695792e-01,9.24288e-02,9.99999e-01,9.99999e-01,9.99999e-01,9.24288e-02,9.99999e-01
5.961354271e-01,9.68803e-02,9.99999e-01,9.99999e-01,9.99999e-01,9.68803e-02,9.99999e-01
5.991161043e-01,1.01452e-01,9.99999e-01,9.99999e-01,9.99999e-01,1.01452e-01,9.99999e-01
6.021116848e-01,1.06142e-01,9.99999e-01,9.99999e-01,9.99999e-01,1.06142e-01,9.99999e-01
6.051222432e-01,1.10951e-01,9.99999e-01,9.99999e-01,9.99999e-01,1.10951e-01,9.99999e-01
6.081478544e-01,1.15875e-01,9.99999e-01,9.99999e-01,9.99999e-01,1.15875e-01,9.99999e-01
6.111885937e-01,1.20915e-01,9.99999e-01,9.99999e-01,9.99999e-01,1.20915e-01,9.99999e-01
6.142445367e-01,1.26067e-01,9.99999e-01,9.99999e-01,9.99999e-01,1.26067e-01,9.99999e-01
6.173157594e-01,1.31331e-01,9.99999e-01,9.99999e-01,9.99999e-01,1.31331e-01,9.99999e-01
6.204023382e-01,1.36704e-01,9.99999e-01,9.99999e-01,9.99999e-01,1.36704e-01,9.99999e-01
6.235043498e-01,1.42185e-01,9.99999e-01,9.99999e-01,9.99999e-01,1.42185e-01,9.99999e-01
6.266218716e-01,1.47770e-01,9.99999e-01,9.99999e-01,9.99999e-01,1.47770e-01,9.99999e-01
6.297549810e-01,1.53458e-01,9.99999e-01,9.99999e-01,9.99999e-01,1.53458e-01,9.99999e-01
6.329037559e-01,1.59246e-01,9.99999e-01,9.99999e-01,9.99999e-01,1.59246e-01,9.99999e-01
6.360682746e-01,1.65131e-01,9.99999e-01,9.99999e-01,9.99999e-01,1.65131e-01,9.99999e-01
6.392486160e-01,1.71111e-01,9.99999e-01,9.99999e-01,9.99999e-01,1.71111e-01,9.99999e-01
6.424448591e-01,1.77183e-01,9.99999e-01,9.99999e-01,9.99999e-01,1.77183e-01,9.99999e-01
6.456570834e-01,1.83345e-01,9.99999e-01,9.99999e-01,9.99999e-01,1.83345e-01,9.99999e-01
6.488853688e-01,1.89592e-01,9.99999e-01,9.99999e-01,9.99999e-01,1.89592e-01,9.99999e-01
6.521297956e-01,1.95923e-01,9.99999e-01,9.99999e-01,9.99999e-01,1.95923e-01,9.99999e-01
6.553904446e-01,2.02334e-01,9.99999e-01,9.99999e-01,9.99999e-01,2.02334e-01,9.99999e-01
6.586673968e-01,2.08822e-01,9.99999e-01,9.99999e-01,9.99999e-01,2.08822e-01,9.99999e-01
6.619607338e-01,2.15383e-01,9.99999e-01,9.99999e-01,9.99999e-01,2.15383e-01,9.99999e-01
6.652705375e-01,2.22015e-01,9.99999e-01,9.99999e-01,9.99999e-01,2.22015e-01,9.99999e-01
6.685968902e-01,2.28714e-01,9.99999e-01,9.99999e-01,9.99999e-01,2.28714e-01,9.99999e-01
6.719398746e-01,2.35477e-01,9.99999e-01,9.99999e-01,9.99999e-01,2.35477e-01,9.99999e-01
6.752995740e-01,2.42300e-01,9.99999e-01,9.99999e-01,9.99999e-01,2.42300e-01,9.99999e-01
6.786760719e-01,2.49181e-01,9.99999e-01,9.99999e-01,9.99999e-01,2.49181e-01,9.99999e-01
6.820694522e-01,2.56115e-01,9.99999e-01,9.99999e-01,9.99999e-01,2.56115e-01,9.99999e-01
6.854797995e-01,2.63099e-01,9.99999e-01,9.99999e-01,9.99999e-01,2.63099e-01,9.99999e-01
6.889071985e-01,2.70131e-01,9.99999e-01,9.99999e-01,9.99999e-01,2.70131e-01,9.99999e-01
6.923517345e-01,2.77205e-01,9.99999e-01,9.99999e-01,9.99999e-01,2.77205e-01,9.99999e-01
6.958134932e-01,2.84320e-01,9.99999e-01,9.99999e-01,9.99999e-01,2.84320e-01,9.99999e-01
6.992925606e-01,2.91472e-01,9.99999e-01,9.99999e-01,9.99999e-01,2.91472e-01,9.99999e-01
7.027890234e-01,2.98656e-01,9.99999e-01,9.99999e-01,9.99999e-01,2.98656e-01,9.99999e-01
7.063029686e-01,3.05871e-01,9.99999e-01,9.99999e-01,9.99999e-01,3.05871e-01,9.99999e-01
7.098344834e-01,3.13112e-01,9.99999e-01,9.99999e-01,9.99999e-01,3.13112e-01,9.99999e-01
7.133836558e-01,3.20377e-01,9.99999e-01,9.99999e-01,9.99999e-01,3.20377e-01,9.99999e-01
7.169505741e-01,3.27662e-01,9.99999e-01,9.99999e-01,9.99999e-01,3.27662e-01,9.99999e-01
7.205353270e-01,3.34963e-01,9.99999e-01,9.99999e-01,9.99999e-01,3.34963e-01,9.99999e-01
7.241380036e-01,3.42279e-01,9.99999e-01,9.99999e-01,9.99999e-01,3.42279e-01,9.99999e-01
7.277586936e-01,3.49605e-01,9.99999e-01,9.99999e-01,9.99999e-01,3.49605e-01,9.99999e-01
7.313974871e-01,3.56938e-01,9.99999e-01,9.99999e-01,9.99999e-01,3.56938e-01,9.99999e-01
7.350544745e-01,3.64275e-01,9.99999e-01,9.99999e-01,9.99999e-01,3.64275e-01,9.99999e-01
7.387297469e-01,3.71615e-01,9.99999e-01,9.99999e-01,9.99999e-01,3.71615e-01,9.99999e-01
7.424233956e-01,3.78952e-01,9.99999e-01,9.99999e-01,9.99999e-01,3.78952e-01,9.99999e-01
7.461355126e-01,3.86286e-01,9.99999e-01,9.99999e-01,9.99999e-01,3.86286e-01,9.99999e-01
7.498661902e-01,3.93612e-01,9.99999e-01,9.99999e-01,9.99999e-01,3.93612e-01,9.99999e-01
7.536155211e-01,4.00928e-01,9.99999e-01,9.99999e-01,9.99999e-01,4.00928e-01,9.99999e-01
7.573835987e-01,4.08232e-01,9.99999e-01,9.99999e-01,9.99999e-01,4.08232e-01,9.99999e-01
7.611705167e-01,4.15520e-01,9.99999e-01,9.99999e-01,9.99999e-01,4.15520e-01,9.99999e-01
7.649763693e-01,4.22791e-01,9.99999e-01,9.99999e-01,9.99999e-01,4.22791e-01,9.99999e-01
7.688012511e-01,4.30042e-01,9.99999e-01,9.99999e-01,9.99999e-01,4.30042e-01,9.99999e-01
7.726452574e-01,4.37270e-01,9.99999e-01,9.99999e-01,9.99999e-01,4.37270e-01,9.99999e-01
7.765084837e-01,4.44474e-01,9.99999e-01,9.99999e-01,9.99999e-01,4.44474e-01,9.99999e-01
7.803910261e-01,4.35240e-01,9.99999e-01,9.99999e-01,9.63665e-01,4.51650e-01,9.99999e-01
7.842929812e-01,3.89121e-01,9.99999e-01,9.99999e-01,8.48132e-01,4.58797e-01,9.99999e-01
7.882144461e-01,3.90646e-01,9.99999e-01,9.99999e-01,8.38453e-01,4.65913e-01,9.99999e-01
7.921555184e-01,4.26697e-01,9.99999e-01,9.99999e-01,9.02118e-01,4.72995e-01,9.99999e-01
7.961162960e-01,4.48022e-01,9.99999e-01,9.99999e-01,9.33299e-01,4.80041e-01,9.99999e-01
8.000968774e-01,4.69168e-01,9.99999e-01,9.99999e-01,9.63283e-01,4.87051e-01,9.99999e-01
8.040973618e-01,4.84538e-01,9.99999e-01,9.99999e-01,9.80804e-01,4.94021e-01,9.99999e-01
8.081178486e-01,4.96515e-01,9.99999e-01,9.99999e-01,9.91146e-01,5.00950e-01,9.99999e-01
8.121584379e-01,5.06444e-01,9.99999e-01,9.99999e-01,9.97256e-01,5.07837e-01,9.99999e-01
8.162192301e-01,5.14368e-01,9.99999e-01,9.99999e-01,9.99393e-01,5.14680e-01,9.99999e-01
8.203003262e-01,5.21472e-01,9.99999e-01,9.99999e-01,9.99990e-01,5.21477e-01,9.99999e-01
8.244018279e-01,5.28227e-01,9.99999e-01,9.99999e-01,9.99999e-01,5.28227e-01,9.99999e-01
8.285238370e-01,5.34928e-01,9.99999e-01,9.99999e-01,9.99999e-01,5.34928e-01,9.99999e-01
8.326664562e-01,5.41579e-01,9.99999e-01,9.99999e-01,9.99999e-01,5.41579e-01,9.99999e-01
8.368297885e-01,5.48180e-01,9.99999e-01,9.99999e-01,9.99999e-01,5.48180e-01,9.99999e-01
8.410139374e-01,5.54728e-01,9.99999e-01,9.99999e-01,9.99999e-01,5.54728e-01,9.99999e-01
8.452190071e-01,5.61222e-01,9.99999e-01,9.99999e-01,9.99999e-01,5.61222e-01,9.99999e-01
8.494451021e-01,5.67662e-01,9.99999e-01,9.99999e-01,9.99999e-01,5.67662e-01,9.99999e-01
8.536923276e-01,5.74047e-01,9.99999e-01,9.99999e-01,9.99999e-01,5.74047e-01,9.99999e-01
8.579607893e-01,5.80375e-01,9.99999e-01,9.99999e-01,9.99999e-01,5.80375e-01,9.99999e-01
8.622505932e-01,5.86646e-01,9.99999e-01,9.99999e-01,9.99999e-01,5.86646e-01,9.99999e-01
8.665618462e-01,5.46435e-01,9.99999e-01,9.99999e-01,9.21695e-01,5.92859e-01,9.99999e-01
8.708946554e-01,3.94603e-01,9.99999e-01,9.99999e-01,6.58756e-01,5.99013e-01,9.99999e-01
8.752491287e-01,4.31990e-01,9.99999e-01,9.99999e-01,7.13906e-01,6.05107e-01,9.99999e-01
8.796253743e-01,5.07708e-01,9.99999e-01,9.99999e-01,8.30753e-01,6.11141e-01,9.99999e-01
8.840235012e-01,5.60503e-01,9.99999e-01,9.99999e-01,9.08264e-01,6.17114e-01,9.99999e-01
8.884436187e-01,5.99836e-01,9.99999e-01,9.99999e-01,9.62777e-01,6.23026e-01,9.99999e-01
8.928858368e-01,6.19291e-01,9.99999e-01,9.99999e-01,9.84757e-01,6.28877e-01,9.99999e-01
8.973502660e-01,6.32302e-01,9.99999e-01,9.99999e-01,9.96276e-01,6.34665e-01,9.99999e-01
9.018370173e-01,6.40127e-01,9.99999e-01,9.99999e-01,9.99588e-01,6.40390e-01,9.99999e-01
9.063462024e-01,6.39286e-01,9.99999e-01,9.99999e-01,9.89526e-01,6.46052e-01,9.99999e-01
9.108779334e-01,6.36049e-01,9.99999e-01,9.99999e-01,9.76056e-01,6.51652e-01,9.99999e-01
9.154323231e-01,6.53459e-01,9.99999e-01,9.99999e-01,9.94325e-01,6.57187e-01,9.99999e-01
9.200094847e-01,6.10431e-01,9.99999e-01,9.99999e-01,9.21183e-01,6.62659e-01,9.99999e-01
9.246095321e-01,5.93360e-01,9.99999e-01,9.99999e-01,8.88174e-01,6.68067e-01,9.99999e-01
9.292325798e-01,6.13746e-01,9.99999e-01,9.99999e-01,9.11397e-01,6.73411e-01,9.99999e-01
9.338787427e-01,6.20397e-01,9.99999e-01,9.99999e-01,9.14107e-01,6.78691e-01,9.99999e-01
9.385481364e-01,6.40221e-01,9.99999e-01,9.99999e-01,9.36122e-01,6.83907e-01,9.99999e-01
9.432408771e-01,6.61761e-01,9.99999e-01,9.99999e-01,9.60383e-01,6.89059e-01,9.99999e-01
9.479570815e-01,6.79904e-01,9.99999e-01,9.99999e-01,9.79481e-01,6.94146e-01,9.99999e-01
9.526968669e-01,6.92217e-01,9.99999e-01,9.99999e-01,9.90054e-01,6.99170e-01,9.99999e-01
9.574603512e-01,7.01127e-01,9.99999e-01,9.99999e-01,9.95735e-01,7.04130e-01,9.99999e-01
9.622476530e-01,7.08082e-01,9.99999e-01,9.99999e-01,9.98667e-01,7.09026e-01,9.99999e-01
9.670588912e-01,7.13573e-01,9.99999e-01,9.99999e-01,9.99600e-01,7.13858e-01,9.99999e-01
9.718941857e-01,7.18606e-01,9.99999e-01,9.99999e-01,9.99971e-01,7.18627e-01,9.99999e-01
9.767536566e-01,7.23332e-01,9.99999e-01,9.99999e-01,9.99999e-01,7.23332e-01,9.99999e-01
9.816374249e-01,7.27974e-01,9.99999e-01,9.99999e-01,9.99999e-01,7.27974e-01,9.99999e-01
9.865456120e-01,7.32554e-01,9.99999e-01,9.99999e-01,9.99999e-01,7.32554e-01,9.99999e-01
9.914783401e-01,7.37071e-01,9.99999e-01,9.99999e-01,9.99999e-01,7.37071e-01,9.99999e-01
9.964357318e-01,7.41526e-01,9.99999e-01,9.99999e-01,9.99999e-01,7.41526e-01,9.99999e-01
1.001417910e+00,7.45919e-01,9.99999e-01,9.99999e-01,9.99999e-01,7.45919e-01,9.99999e-01
1.006425000e+00,7.50251e-01,9.99999e-01,9.99999e-01,9.99999e-01,7.50251e-01,9.99999e-01
1.011457125e+00,7.54521e-01,9.99999e-01,9.99999e-01,9.99999e-01,7.54521e-01,9.99999e-01
1.016514411e+00,7.58731e-01,9.99999e-01,9.99999e-01,9.99999e-01,7.58731e-01,9.99999e-01
1.021596983e+00,7.62838e-01,9.99999e-01,9.99999e-01,9.99944e-01,7.62880e-01,9.99999e-01
1.026704968e+00,7.63830e-01,9.99999e-01,9.99999e-01,9.95905e-01,7.66969e-01,9.99999e-01
1.031838492e+00,7.34913e-01,9.99999e-01,9.99999e-01,9.53194e-01,7.70999e-01,9.99999e-01
1.036997685e+00,1.09253e-01,9.99999e-01,9.99999e-01,1.40977e-01,7.74970e-01,9.99999e-01
1.042182673e+00,7.80667e-02,9.99999e-01,9.99999e-01,1.00229e-01,7.78882e-01,9.99999e-01
1.047393587e+00,9.71183e-02,9.99999e-01,9.99999e-01,1.24075e-01,7.82736e-01,9.99999e-01
1.052630555e+00,2.04789e-03,9.99999e-01,9.99999e-01,2.60370e-03,7.86533e-01,9.99999e-01
1.057893707e+00,5.44604e-03,9.99999e-01,9.99999e-01,6.89134e-03,7.90272e-01,9.99999e-01
1.063183176e+00,2.00470e-02,9.99999e-01,9.99999e-01,2.52495e-02,7.93955e-01,9.99999e-01
1.068499092e+00,6.08984e-02,9.99999e-01,9.99999e-01,7.63538e-02,7.97581e-01,9.99999e-01
1.073841587e+00,1.57357e-01,9.99999e-01,9.99999e-01,1.96413e-01,8.01153e-01,9.99999e-01
1.079210795e+00,2.87056e-01,9.99999e-01,9.99999e-01,3.56738e-01,8.04669e-01,9.99999e-01
1.084606849e+00,4.57747e-01,9.99999e-01,9.99999e-01,5.66427e-01,8.08130e-01,9.99999e-01
1.090029883e+00,6.04082e-01,9.99999e-01,9.99999e-01,7.44366e-01,8.11538e-01,9.99999e-01
1.095480033e+00,7.04546e-01,9.99999e-01,9.99999e-01,8.64588e-01,8.14892e-01,9.99999e-01
1.100957433e+00,7.62796e-01,9.99999e-01,9.99999e-01,9.32291e-01,8.18194e-01,9.99999e-01
1.106462220e+00,7.97968e-01,9.99999e-01,9.99999e-01,9.71421e-01,8.21443e-01,9.99999e-01
1.111994531e+00,8.15826e-01,9.99999e-01,9.99999e-01,9.89310e-01,8.24641e-01,9.99999e-01
1.117554504e+00,8.25619e-01,9.99999e-01,9.99999e-01,9.97379e-01,8.27787e-01,9.99999e-01
1.123142276e+00,8.30740e-01,9.99999e-01,9.99999e-01,9.99827e-01,8.30883e-01,9.99999e-01
1.128757988e+00,8.33929e-01,9.99999e-01,9.99999e-01,9.99999e-01,8.33929e-01,9.99999e-01
1.134401778e+00,8.36926e-01,9.99999e-01,9.99999e-01,9.99999e-01,8.36926e-01,9.99999e-01
1.140073787e+00,8.39874e-01,9.99999e-01,9.99999e-01,9.99999e-01,8.39874e-01,9.99999e-01
1.145774156e+00,8.42774e-01,9.99999e-01,9.99999e-01,9.99999e-01,8.42774e-01,9.99999e-01
1.151503026e+00,8.45627e-01,9.99999e-01,9.99999e-01,9.99999e-01,8.45627e-01,9.99999e-01
1.157260541e+00,8.48432e-01,9.99999e-01,9.99999e-01,9.99999e-01,8.48432e-01,9.99999e-01
1.163046844e+00,8.51191e-01,9.99999e-01,9.99999e-01,9.99999e-01,8.51191e-01,9.99999e-01
1.168862078e+00,8.53904e-01,9.99999e-01,9.99999e-01,9.99999e-01,8.53904e-01,9.99999e-01
1.174706389e+00,8.56572e-01,9.99999e-01,9.99999e-01,9.99999e-01,8.56572e-01,9.99999e-01
1.180579921e+00,8.59196e-01,9.99999e-01,9.99999e-01,9.99999e-01,8.59196e-01,9.99999e-01
1.186482820e+00,8.61769e-01,9.99999e-01,9.99999e-01,9.99992e-01,8.61775e-01,9.99999e-01
1.192415234e+00,8.51765e-01,9.99999e-01,9.99999e-01,9.85483e-01,8.64311e-01,9.99999e-01
1.198377311e+00,4.84683e-01,9.99999e-01,9.99999e-01,5.59161e-01,8.66804e-01,9.99999e-01
1.204369197e+00,4.59292e-12,9.99999e-01,9.99999e-01,5.28374e-12,8.69255e-01,9.99999e-01
1.210391043e+00,2.04872e-44,9.99999e-01,9.99999e-01,2.35035e-44,8.71664e-01,9.99999e-01
1.216442998e+00,1.24833e-38,9.99999e-01,9.99999e-01,1.42824e-38,8.74032e-01,9.99999e-01
1.222525213e+00,4.51352e-38,9.99999e-01,9.99999e-01,5.15030e-38,8.76360e-01,9.99999e-01
1.228637839e+00,1.71640e-29,9.99999e-01,9.99999e-01,1.95346e-29,8.78647e-01,9.99999e-01
