#,Wave/freq,Total,N2,O2,CO2,Rayleigh,CIA
4.000000000e-01,3.27153e-04,9.99999e-01,9.99999e-01,9.99999e-01,3.27153e-04,9.99999e-01
4.020000000e-01,3.83409e-04,9.99999e-01,9.99999e-01,9.99999e-01,3.83409e-04,9.99999e-01
4.040100000e-01,4.47861e-04,9.99999e-01,9.99999e-01,9.99999e-01,4.47861e-04,9.99999e-01
4.060300500e-01,5.21545e-04,9.99999e-01,9.99999e-01,9.99999e-01,5.21545e-04,9.99999e-01
4.080602003e-01,6.05526e-04,9.99999e-01,9.99999e-01,9.99999e-01,6.05526e-04,9.99999e-01
4.101005013e-01,7.00961e-04,9.99999e-01,9.99999e-01,9.99999e-01,7.00961e-04,9.99999e-01
4.121510038e-01,8.09095e-04,9.99999e-01,9.99999e-01,9.99999e-01,8.09095e-04,9.99999e-01
4.142117588e-01,9.31266e-04,9.99999e-01,9.99999e-01,9.99999e-01,9.31266e-04,9.99999e-01
4.162828176e-01,1.06891e-03,9.99999e-01,9.99999e-01,9.99999e-01,1.06891e-03,9.99999e-01
4.183642317e-01,1.22357e-03,9.99999e-01,9.99999e-01,9.99999e-01,1.22357e-03,9.99999e-01
4.204560528e-01,1.39687e-03,9.99999e-01,9.99999e-01,9.99999e-01,1.39687e-03,9.99999e-01
4.225583331e-01,1.59054e-03,9.99999e-01,9.99999e-01,9.99999e-01,1.59054e-03,9.99999e-01
4.246711247e-01,1.80643e-03,9.99999e-01,9.99999e-01,9.99999e-01,1.80643e-03,9.99999e-01
4.267944804e-01,2.04647e-03,9.99999e-01,9.99999e-01,9.99999e-01,2.04647e-03,9.99999e-01
4.289284528e-01,2.31270e-03,9.99999e-01,9.99999e-01,9.99999e-01,2.31270e-03,9.99999e-01
4.310730950e-01,2.60727e-03,9.99999e-01,9.99999e-01,9.99999e-01,2.60727e-03,9.99999e-01
4.332284605e-01,2.93239e-03,9.99999e-01,9.99999e-01,9.99999e-01,2.93239e-03,9.99999e-01
4.353946028e-01,3.29041e-03,9.99999e-01,9.99999e-01,9.99999e-01,3.29041e-03,9.99999e-01
4.375715758e-01,3.68376e-03,9.99999e-01,9.99999e-01,9.99999e-01,3.68376e-03,9.99999e-01
4.397594337e-01,4.11493e-03,9.99999e-01,9.99999e-01,9.99999e-01,4.11493e-03,9.99999e-01
4.419582309e-01,4.58654e-03,9.99999e-01,9.99999e-01,9.99999e-01,4.58654e-03,9.99999e-01
4.441680220e-01,5.10125e-03,9.99999e-01,9.99999e-01,9.99999e-01,5.10125e-03,9.99999e-01
4.463888621e-01,5.66181e-03,9.99999e-01,9.99999e-01,9.99999e-01,5.66181e-03,9.99999e-01
4.486208064e-01,6.27105e-03,9.99999e-01,9.99999e-01,9.99999e-01,6.27105e-03,9.99999e-01
4.508639105e-01,6.93184e-03,9.99999e-01,9.99999e-01,9.99999e-01,6.93184e-03,9.99999e-01
4.531182300e-01,7.64710e-03,9.99999e-01,9.99999e-01,9.99999e-01,7.64710e-03,9.99999e-01
4.553838212e-01,8.41982e-03,9.99999e-01,9.99999e-01,9.99999e-01,8.41982e-03,9.99999e-01
4.576607403e-01,9.25302e-03,9.99999e-01,9.99999e-01,9.99999e-01,9.25302e-03,9.99999e-01
4.599490440e-01,1.01497e-02,9.99999e-01,9.99999e-01,9.99999e-01,1.01497e-02,9.99999e-01
4.622487892e-01,1.11130e-02,9.99999e-01,9.99999e-01,9.99999e-01,1.11130e-02,9.99999e-01
4.645600332e-01,1.21459e-02,9.99999e-01,9.99999e-01,9.99999e-01,1.21459e-02,9.99999e-01
4.668828333e-01,1.32516e-02,9.99999e-01,9.99999e-01,9.99999e-01,1.32516e-02,9.99999e-01
4.692172475e-01,1.44331e-02,9.99999e-01,9.99999e-01,9.99999e-01,1.44331e-02,9.99999e-01
4.715633337e-01,1.56934e-02,9.99999e-01,9.99999e-01,9.99999e-01,1.56934e-02,9.99999e-01
4.739211504e-01,1.70355e-02,9.99999e-01,9.99999e-01,9.99999e-01,1.70355e-02,9.99999e-01
4.762907561e-01,1.84625e-02,9.99999e-01,9.99999e-01,9.99999e-01,1.84625e-02,9.99999e-01
4.786722099e-01,1.99772e-02,9.99999e-01,9.99999e-01,9.99999e-01,1.99772e-02,9.99999e-01
4.810655710e-01,2.15826e-02,9.99999e-01,9.99999e-01,9.99999e-01,2.15826e-02,9.99999e-01
4.834708988e-01,2.32814e-02,9.99999e-01,9.99999e-01,9.99999e-01,2.32814e-02,9.99999e-01
4.858882533e-01,2.50764e-02,9.99999e-01,9.99999e-01,9.99999e-01,2.50764e-02,9.99999e-01
4.883176946e-01,2.69701e-02,9.99999e-01,9.99999e-01,9.99999e-01,2.69701e-02,9.99999e-01
4.907592831e-01,2.89652e-02,9.99999e-01,9.99999e-01,9.99999e-01,2.89652e-02,9.99999e-01
4.932130795e-01,3.10641e-02,9.99999e-01,9.99999e-01,9.99999e-01,3.10641e-02,9.99999e-01
4.956791449e-01,3.32691e-02,9.99999e-01,9.99999e-01,9.99999e-01,3.32691e-02,9.99999e-01
4.981575406e-01,3.55823e-02,9.99999e-01,9.99999e-01,9.99999e-01,3.55823e-02,9.99999e-01
5.006483283e-01,3.80059e-02,9.99999e-01,9.99999e-01,9.99999e-01,3.80059e-02,9.99999e-01
5.031515699e-01,4.05417e-02,9.99999e-01,9.99999e-01,9.99999e-01,4.05417e-02,9.99999e-01
5.056673278e-01,4.31916e-02,9.99999e-01,9.99999e-01,9.99999e-01,4.31916e-02,9.99999e-01
5.081956644e-01,4.59572e-02,9.99999e-01,9.99999e-01,9.99999e-01,4.59572e-02,9.99999e-01
5.107366428e-01,4.88400e-02,9.99999e-01,9.99999e-01,9.99999e-01,4.88400e-02,9.99999e-01
5.132903260e-01,5.18412e-02,9.99999e-01,9.99999e-01,9.99999e-01,5.18412e-02,9.99999e-01
5.158567776e-01,5.49622e-02,9.99999e-01,9.99999e-01,9.99999e-01,5.49622e-02,9.99999e-01
5.184360615e-01,5.82037e-02,9.99999e-01,9.99999e-01,9.99999e-01,5.82037e-02,9.99999e-01
5.210282418e-01,6.15667e-02,9.99999e-01,9.99999e-01,9.99999e-01,6.15667e-02,9.99999e-01
5.236333830e-01,6.50518e-02,9.99999e-01,9.99999e-01,9.99999e-01,6.50518e-02,9.99999e-01
5.262515499e-01,6.86595e-02,9.99999e-01,9.99999e-01,9.99999e-01,6.86595e-02,9.99999e-01
5.288828077e-01,7.23900e-02,9.99999e-01,9.99999e-01,9.99999e-01,7.23900e-02,9.99999e-01
5.315272217e-01,7.62435e-02,9.99999e-01,9.99999e-01,9.99999e-01,7.62435e-02,9.99999e-01
5.341848578e-01,8.02199e-02,9.99999e-01,9.99999e-01,9.99999e-01,8.02199e-02,9.99999e-01
5.368557821e-01,8.43189e-02,9.99999e-01,9.99999e-01,9.99999e-01,8.43189e-02,9.99999e-01
5.395400610e-01,8.85402e-02,9.99999e-01,9.99999e-01,9.99999e-01,8.85402e-02,9.99999e-01
5.422377613e-01,9.28832e-02,9.99999e-01,9.99999e-01,9.99999e-01,9.28832e-02,9.99999e-01
5.449489501e-01,9.73471e-02,9.99999e-01,9.99999e-01,9.99999e-01,9.73471e-02,9.99999e-01
5.476736949e-01,1.01931e-01,9.99999e-01,9.99999e-01,9.99999e-01,1.01931e-01,9.99999e-01
5.504120634e-01,1.06634e-01,9.99999e-01,9.99999e-01,9.99999e-01,1.06634e-01,9.99999e-01
5.531641237e-01,1.11454e-01,9.99999e-01,9.99999e-01,9.99999e-01,1.11454e-01,9.99999e-01
5.559299443e-01,1.16391e-01,9.99999e-01,9.99999e-01,9.99999e-01,1.16391e-01,9.99999e-01
5.587095940e-01,1.21442e-01,9.99999e-01,9.99999e-01,9.99999e-01,1.21442e-01,9.99999e-01
5.615031420e-01,1.26606e-01,9.99999e-01,9.99999e-01,9.99999e-01,1.26606e-01,9.99999e-01
5.643106577e-01,1.31881e-01,9.99999e-01,9.99999e-01,9.99999e-01,1.31881e-01,9.99999e-01
5.671322110e-01,1.37266e-01,9.99999e-01,9.99999e-01,9.99999e-01,1.37266e-01,9.99999e-01
5.699678720e-01,1.42757e-01,9.99999e-01,9.99999e-01,9.99999e-01,1.42757e-01,9.99999e-01
5.728177114e-01,1.48353e-01,9.99999e-01,9.99999e-01,9.99999e-01,1.48353e-01,9.99999e-01
5.756818000e-01,1.54051e-01,9.99999e-01,9.99999e-01,9.99999e-01,1.54051e-01,9.99999e-01
5.785602090e-01,1.59849e-01,9.99999e-01,9.99999e-01,9.99999e-01,1.59849e-01,9.99999e-01
5.814530100e-01,1.65745e-01,9.99999e-01,9.99999e-01,9.99999e-01,1.65745e-01,9.99999e-01
5.843602750e-01,1.71734e-01,9.99999e-01,9.99999e-01,9.99999e-01,1.71734e-01,9.99999e-01
5.872820764e-01,1.77816e-01,9.99999e-01,9.99999e-01,9.99999e-01,1.77816e-01,9.99999e-01
5.902184868e-01,1.83986e-01,9.99999e-01,9.99999e-01,9.99999e-01,1.83986e-01,9.99999e-01
5.931695792e-01,1.90243e-01,9.99999e-01,9.99999e-01,9.99999e-01,1.90243e-01,9.99999e-01
5.961354271e-01,1.96582e-01,9.99999e-01,9.99999e-01,9.99999e-01,1.96582e-01,9.99999e-01
5.991161043e-01,2.03001e-01,9.99999e-01,9.99999e-01,9.99999e-01,2.03001e-01,9.99999e-01
6.021116848e-01,2.09496e-01,9.99999e-01,9.99999e-01,9.99999e-01,2.09496e-01,9.99999e-01
6.051222432e-01,2.16065e-01,9.99999e-01,9.99999e-01,9.99999e-01,2.16065e-01,9.99999e-01
6.081478544e-01,2.22704e-01,9.99999e-01,9.99999e-01,9.99999e-01,2.22704e-01,9.99999e-01
6.111885937e-01,2.29410e-01,9.99999e-01,9.99999e-01,9.99999e-01,2.29410e-01,9.99999e-01
6.142445367e-01,2.36179e-01,9.99999e-01,9.99999e-01,9.99999e-01,2.36179e-01,9.99999e-01
6.173157594e-01,2.43009e-01,9.99999e-01,9.99999e-01,9.99999e-01,2.43009e-01,9.99999e-01
6.204023382e-01,2.49895e-01,9.99999e-01,9.99999e-01,9.99999e-01,2.49895e-01,9.99999e-01
6.235043498e-01,2.56834e-01,9.99999e-01,9.99999e-01,9.99999e-01,2.56834e-01,9.99999e-01
6.266218716e-01,2.63824e-01,9.99999e-01,9.99999e-01,9.99999e-01,2.63824e-01,9.99999e-01
6.297549810e-01,2.70860e-01,9.99999e-01,9.99999e-01,9.99999e-01,2.70860e-01,9.99999e-01
6.329037559e-01,2.77939e-01,9.99999e-01,9.99999e-01,9.99999e-01,2.77939e-01,9.99999e-01
6.360682746e-01,2.85057e-01,9.99999e-01,9.99999e-01,9.99999e-01,2.85057e-01,9.99999e-01
6.392486160e-01,2.92213e-01,9.99999e-01,9.99999e-01,9.99999e-01,2.92213e-01,9.99999e-01
6.424448591e-01,2.99401e-01,9.99999e-01,9.99999e-01,9.99999e-01,2.99401e-01,9.99999e-01
6.456570834e-01,3.06618e-01,9.99999e-01,9.99999e-01,9.99999e-01,3.06618e-01,9.99999e-01
6.488853688e-01,3.13862e-01,9.99999e-01,9.99999e-01,9.99999e-01,3.13862e-01,9.99999e-01
6.521297956e-01,3.21129e-01,9.99999e-01,9.99999e-01,9.99999e-01,3.21129e-01,9.99999e-01
6.553904446e-01,3.28416e-01,9.99999e-01,9.99999e-01,9.99999e-01,3.28416e-01,9.99999e-01
6.586673968e-01,3.35719e-01,9.99999e-01,9.99999e-01,9.99999e-01,3.35719e-01,9.99999e-01
6.619607338e-01,3.43035e-01,9.99999e-01,9.99999e-01,9.99999e-01,3.43035e-01,9.99999e-01
6.652705375e-01,3.50362e-01,9.99999e-01,9.99999e-01,9.99999e-01,3.50362e-01,9.99999e-01
6.685968902e-01,3.57696e-01,9.99999e-01,9.99999e-01,9.99999e-01,3.57696e-01,9.99999e-01
6.719398746e-01,3.65034e-01,9.99999e-01,9.99999e-01,9.99999e-01,3.65034e-01,9.99999e-01
6.752995740e-01,3.72373e-01,9.99999e-01,9.99999e-01,9.99999e-01,3.72373e-01,9.99999e-01
6.786760719e-01,3.79710e-01,9.99999e-01,9.99999e-01,9.99999e-01,3.79710e-01,9.99999e-01
6.820694522e-01,3.87043e-01,9.99999e-01,9.99999e-01,9.99999e-01,3.87043e-01,9.99999e-01
6.854797995e-01,3.94368e-01,9.99999e-01,9.99999e-01,9.99999e-01,3.94368e-01,9.99999e-01
6.889071985e-01,4.01683e-01,9.99999e-01,9.99999e-01,9.99999e-01,4.01683e-01,9.99999e-01
6.923517345e-01,4.08986e-01,9.99999e-01,9.99999e-01,9.99999e-01,4.08986e-01,9.99999e-01
6.958134932e-01,4.16273e-01,9.99999e-01,9.99999e-01,9.99999e-01,4.16273e-01,9.99999e-01
6.992925606e-01,4.23542e-01,9.99999e-01,9.99999e-01,9.99999e-01,4.23542e-01,9.99999e-01
7.027890234e-01,4.30790e-01,9.99999e-01,9.99999e-01,9.99999e-01,4.30790e-01,9.99999e-01
7.063029686e-01,4.38016e-01,9.99999e-01,9.99999e-01,9.99999e-01,4.38016e-01,9.99999e-01
7.098344834e-01,4.45217e-01,9.99999e-01,9.99999e-01,9.99999e-01,4.45217e-01,9.99999e-01
7.133836558e-01,4.52390e-01,9.99999e-01,9.99999e-01,9.99999e-01,4.52390e-01,9.99999e-01
7.169505741e-01,4.59534e-01,9.99999e-01,9.99999e-01,9.99999e-01,4.59534e-01,9.99999e-01
7.205353270e-01,4.66646e-01,9.99999e-01,9.99999e-01,9.99999e-01,4.66646e-01,9.99999e-01
7.241380036e-01,4.73724e-01,9.99999e-01,9.99999e-01,9.99999e-01,4.73724e-01,9.99999e-01
7.277586936e-01,4.80767e-01,9.99999e-01,9.99999e-01,9.99999e-01,4.80767e-01,9.99999e-01
7.313974871e-01,4.87773e-01,9.99999e-01,9.99999e-01,9.99999e-01,4.87773e-01,9.99999e-01
7.350544745e-01,4.94739e-01,9.99999e-01,9.99999e-01,9.99999e-01,4.94739e-01,9.99999e-01
7.387297469e-01,5.01664e-01,9.99999e-01,9.99999e-01,9.99999e-01,5.01664e-01,9.99999e-01
7.424233956e-01,5.08546e-01,9.99999e-01,9.99999e-01,9.99999e-01,5.08546e-01,9.99999e-01
7.461355126e-01,5.15384e-01,9.99999e-01,9.99999e-01,9.99999e-01,5.15384e-01,9.99999e-01
7.498661902e-01,5.22176e-01,9.99999e-01,9.99999e-01,9.99999e-01,5.22176e-01,9.99999e-01
7.536155211e-01,5.28921e-01,9.99999e-01,9.99999e-01,9.99999e-01,5.28921e-01,9.99999e-01
7.573835987e-01,5.35617e-01,9.99999e-01,9.99999e-01,9.99999e-01,5.35617e-01,9.99999e-01
7.611705167e-01,5.42264e-01,9.99999e-01,9.99999e-01,9.99999e-01,5.42264e-01,9.99999e-01
7.649763693e-01,5.48859e-01,9.99999e-01,9.99999e-01,9.99999e-01,5.48859e-01,9.99999e-01
7.688012511e-01,5.55401e-01,9.99999e-01,9.99999e-01,9.99999e-01,5.55401e-01,9.99999e-01
7.726452574e-01,5.61890e-01,9.99999e-01,9.99999e-01,9.99999e-01,5.61890e-01,9.99999e-01
7.765084837e-01,5.68325e-01,9.99999e-01,9.99999e-01,9.99999e-01,5.68325e-01,9.99999e-01
7.803910261e-01,5.58976e-01,9.99999e-01,9.99999e-01,9.72632e-01,5.74703e-01,9.99999e-01
7.842929812e-01,5.17734e-01,9.99999e-01,9.99999e-01,8.91069e-01,5.81026e-01,9.99999e-01
7.882144461e-01,5.18527e-01,9.99999e-01,9.99999e-01,8.82914e-01,5.87291e-01,9.99999e-01
7.921555184e-01,5.52193e-01,9.99999e-01,9.99999e-01,9.30404e-01,5.93497e-01,9.99999e-01
7.961162960e-01,5.71622e-01,9.99999e-01,9.99999e-01,9.53267e-01,5.99645e-01,9.99999e-01
8.000968774e-01,5.90196e-01,9.99999e-01,9.99999e-01,9.74349e-01,6.05733e-01,9.99999e-01
8.040973618e-01,6.03616e-01,9.99999e-01,9.99999e-01,9.86685e-01,6.11761e-01,9.99999e-01
8.081178486e-01,6.13926e-01,9.99999e-01,9.99999e-01,9.93844e-01,6.17728e-01,9.99999e-01
8.121584379e-01,6.22458e-01,9.99999e-01,9.99999e-01,9.98113e-01,6.23634e-01,9.99999e-01
8.162192301e-01,6.29215e-01,9.99999e-01,9.99999e-01,9.99582e-01,6.29478e-01,9.99999e-01
8.203003262e-01,6.35256e-01,9.99999e-01,9.99999e-01,9.99993e-01,6.35259e-01,9.99999e-01
8.244018279e-01,6.40978e-01,9.99999e-01,9.99999e-01,9.99999e-01,6.40978e-01,9.99999e-01
8.285238370e-01,6.46634e-01,9.99999e-01,9.99999e-01,9.99999e-01,6.46634e-01,9.99999e-01
8.326664562e-01,6.52226e-01,9.99999e-01,9.99999e-01,9.99999e-01,6.52226e-01,9.99999e-01
8.368297885e-01,6.57755e-01,9.99999e-01,9.99999e-01,9.99999e-01,6.57755e-01,9.99999e-01
8.410139374e-01,6.63221e-01,9.99999e-01,9.99999e-01,9.99999e-01,6.63221e-01,9.99999e-01
8.452190071e-01,6.68622e-01,9.99999e-01,9.99999e-01,9.99999e-01,6.68622e-01,9.99999e-01
8.494451021e-01,6.73960e-01,9.99999e-01,9.99999e-01,9.99999e-01,6.73960e-01,9.99999e-01
8.536923276e-01,6.79233e-01,9.99999e-01,9.99999e-01,9.99999e-01,6.79233e-01,9.99999e-01
8.579607893e-01,6.84442e-01,9.99999e-01,9.99999e-01,9.99999e-01,6.84442e-01,9.99999e-01
8.622505932e-01,6.89587e-01,9.99999e-01,9.99999e-01,9.99999e-01,6.89587e-01,9.99999e-01
8.665618462e-01,6.49559e-01,9.99999e-01,9.99999e-01,9.35063e-01,6.94669e-01,9.99999e-01
8.708946554e-01,5.20230e-01,9.99999e-01,9.99999e-01,7.43519e-01,6.99686e-01,9.99999e-01
8.752491287e-01,5.56223e-01,9.99999e-01,9.99999e-01,7.89372e-01,7.04639e-01,9.99999e-01
8.796253743e-01,6.23555e-01,9.99999e-01,9.99999e-01,8.78829e-01,7.09528e-01,9.99999e-01
8.840235012e-01,6.68181e-01,9.99999e-01,9.99999e-01,9.35364e-01,7.14354e-01,9.99999e-01
8.884436187e-01,7.00522e-01,9.99999e-01,9.99999e-01,9.74142e-01,7.19116e-01,9.99999e-01
8.928858368e-01,7.16163e-01,9.99999e-01,9.99999e-01,9.89428e-01,7.23815e-01,9.99999e-01
8.973502660e-01,7.26584e-01,9.99999e-01,9.99999e-01,9.97436e-01,7.28450e-01,9.99999e-01
9.018370173e-01,7.32817e-01,9.99999e-01,9.99999e-01,9.99717e-01,7.33024e-01,9.99999e-01
9.063462024e-01,7.32020e-01,9.99999e-01,9.99999e-01,9.92523e-01,7.37534e-01,9.99999e-01
9.108779334e-01,7.29608e-01,9.99999e-01,9.99999e-01,9.83321e-01,7.41983e-01,9.99999e-01
9.154323231e-01,7.43460e-01,9.99999e-01,9.99999e-01,9.96101e-01,7.46369e-01,9.99999e-01
9.200094847e-01,7.07476e-01,9.99999e-01,9.99999e-01,9.42428e-01,7.50695e-01,9.99999e-01
9.246095321e-01,6.95190e-01,9.99999e-01,9.99999e-01,9.20831e-01,7.54959e-01,9.99999e-01
9.292325798e-01,7.11072e-01,9.99999e-01,9.99999e-01,9.36652e-01,7.59162e-01,9.99999e-01
9.338787427e-01,7.17025e-01,9.99999e-01,9.99999e-01,9.39368e-01,7.63305e-01,9.99999e-01
9.385481364e-01,7.32937e-01,9.99999e-01,9.99999e-01,9.55105e-01,7.67388e-01,9.99999e-01
9.432408771e-01,7.50090e-01,9.99999e-01,9.99999e-01,9.72359e-01,7.71412e-01,9.99999e-01
9.479570815e-01,7.64289e-01,9.99999e-01,9.99999e-01,9.85699e-01,7.75377e-01,9.99999e-01
9.526968669e-01,7.73901e-01,9.99999e-01,9.99999e-01,9.93093e-01,7.79283e-01,9.99999e-01
9.574603512e-01,7.80817e-01,9.99999e-01,9.99999e-01,9.97044e-01,7.83131e-01,9.99999e-01
9.622476530e-01,7.86197e-01,9.99999e-01,9.99999e-01,9.99078e-01,7.86922e-01,9.99999e-01
9.670588912e-01,7.90437e-01,9.99999e-01,9.99999e-01,9.99724e-01,7.90655e-01,9.99999e-01
9.718941857e-01,7.94317e-01,9.99999e-01,9.99999e-01,9.99980e-01,7.94332e-01,9.99999e-01
9.767536566e-01,7.97953e-01,9.99999e-01,9.99999e-01,9.99999e-01,7.97953e-01,9.99999e-01
9.816374249e-01,8.01518e-01,9.99999e-01,9.99999e-01,9.99999e-01,8.01518e-01,9.99999e-01
9.865456120e-01,8.05029e-01,9.99999e-01,9.99999e-01,9.99999e-01,8.05029e-01,9.99999e-01
9.914783401e-01,8.08485e-01,9.99999e-01,9.99999e-01,9.99999e-01,8.08485e-01,9.99999e-01
9.964357318e-01,8.11887e-01,9.99999e-01,9.99999e-01,9.99999e-01,8.11887e-01,9.99999e-01
1.001417910e+00,8.15236e-01,9.99999e-01,9.99999e-01,9.99999e-01,8.15236e-01,9.99999e-01
1.006425000e+00,8.18532e-01,9.99999e-01,9.99999e-01,9.99999e-01,8.18532e-01,9.99999e-01
1.011457125e+00,8.21776e-01,9.99999e-01,9.99999e-01,9.99999e-01,8.21776e-01,9.99999e-01
1.016514411e+00,8.24968e-01,9.99999e-01,9.99999e-01,9.99999e-01,8.24968e-01,9.99999e-01
1.021596983e+00,8.28073e-01,9.99999e-01,9.99999e-01,9.99955e-01,8.28109e-01,9.99999e-01
1.026704968e+00,8.28768e-01,9.99999e-01,9.99999e-01,9.97073e-01,8.31200e-01,9.99999e-01
1.031838492e+00,8.01281e-01,9.99999e-01,9.99999e-01,9.60490e-01,8.34241e-01,9.99999e-01
1.036997685e+00,1.62046e-01,9.99999e-01,9.99999e-01,1.93549e-01,8.37233e-01,9.99999e-01
1.042182673e+00,1.62355e-01,9.99999e-01,9.99999e-01,1.93239e-01,8.40176e-01,9.99999e-01
1.047393587e+00,1.68935e-01,9.99999e-01,9.99999e-01,2.00380e-01,8.43071e-01,9.99999e-01
1.052630555e+00,1.00079e-02,9.99999e-01,9.99999e-01,1.18308e-02,8.45919e-01,9.99999e-01
1.057893707e+00,2.28392e-02,9.99999e-01,9.99999e-01,2.69101e-02,8.48719e-01,9.99999e-01
1.063183176e+00,6.01220e-02,9.99999e-01,9.99999e-01,7.06093e-02,8.51473e-01,9.99999e-01
1.068499092e+00,1.38753e-01,9.99999e-01,9.99999e-01,1.62440e-01,8.54182e-01,9.99999e-01
1.073841587e+00,2.73062e-01,9.99999e-01,9.99999e-01,3.18683e-01,8.56845e-01,9.99999e-01
1.079210795e+00,4.16861e-01,9.99999e-01,9.99999e-01,4.85024e-01,8.59464e-01,9.99999e-01
1.084606849e+00,5.80080e-01,9.99999e-01,9.99999e-01,6.72916e-01,8.62039e-01,9.99999e-01
1.090029883e+00,7.03888e-01,9.99999e-01,9.99999e-01,8.14147e-01,8.64570e-01,9.99999e-01
1.095480033e+00,7.83676e-01,9.99999e-01,9.99999e-01,9.03832e-01,8.67059e-01,9.99999e-01
1.100957433e+00,8.28174e-01,9.99999e-01,9.99999e-01,9.52464e-01,8.69506e-01,9.99999e-01
1.106462220e+00,8.54558e-01,9.99999e-01,9.99999e-01,9.80097e-01,8.71911e-01,9.99999e-01
1.111994531e+00,8.67786e-01,9.99999e-01,9.99999e-01,9.92577e-01,8.74274e-01,9.99999e-01
1.117554504e+00,8.75013e-01,9.99999e-01,9.99999e-01,9.98192e-01,8.76598e-01,9.99999e-01
1.123142276e+00,8.78778e-01,9.99999e-01,9.99999e-01,9.99881e-01,8.78881e-01,9.99999e-01
1.128757988e+00,8.81125e-01,9.99999e-01,9.99999e-01,9.99999e-01,8.81125e-01,9.99999e-01
1.134401778e+00,8.83331e-01,9.99999e-01,9.99999e-01,9.99999e-01,8.83331e-01,9.99999e-01
1.140073787e+00,8.85498e-01,9.99999e-01,9.99999e-01,9.99999e-01,8.85498e-01,9.99999e-01
1.145774156e+00,8.87627e-01,9.99999e-01,9.99999e-01,9.99999e-01,8.87627e-01,9.99999e-01
1.151503026e+00,8.89720e-01,9.99999e-01,9.99999e-01,9.99999e-01,8.89720e-01,9.99999e-01
1.157260541e+00,8.91776e-01,9.99999e-01,9.99999e-01,9.99999e-01,8.91776e-01,9.99999e-01
1.163046844e+00,8.93796e-01,9.99999e-01,9.99999e-01,9.99999e-01,8.93796e-01,9.99999e-01
1.168862078e+00,8.95780e-01,9.99999e-01,9.99999e-01,9.99999e-01,8.95780e-01,9.99999e-01
1.174706389e+00,8.97729e-01,9.99999e-01,9.99999e-01,9.99999e-01,8.97729e-01,9.99999e-01
1.180579921e+00,8.99645e-01,9.99999e-01,9.99999e-01,9.99999e-01,8.99645e-01,9.99999e-01
1.186482820e+00,9.01520e-01,9.99999e-01,9.99999e-01,9.99992e-01,9.01526e-01,9.99999e-01
1.192415234e+00,8.93890e-01,9.99999e-01,9.99999e-01,9.89501e-01,9.03374e-01,9.99999e-01
1.198377311e+00,5.14022e-01,9.99999e-01,9.99999e-01,5.67861e-01,9.05189e-01,9.99999e-01
1.204369197e+00,4.32532e-09,9.99999e-01,9.99999e-01,4.76896e-09,9.06972e-01,9.99999e-01
1.210391043e+00,1.22316e-31,9.99999e-01,9.99999e-01,1.34602e-31,9.08722e-01,9.99999e-01
1.216442998e+00,1.31732e-27,9.99999e-01,9.99999e-01,1.44690e-27,9.10442e-01,9.99999e-01
1.222525213e+00,3.23941e-27,9.99999e-01,9.99999e-01,3.55147e-27,9.12131e-01,9.99999e-01
1.228637839e+00,4.68699e-21,9.99999e-01,9.99999e-01,5.12917e-21,9.13790e-01,9.99999e-01
