#,Wave/freq,Total,N2,O2,CO2,Rayleigh,CIA
4.000000000e-01,5.27176e-09,9.99999e-01,9.99999e-01,9.99999e-01,5.27176e-09,9.99999e-01
4.020000000e-01,7.68489e-09,9.99999e-01,9.99999e-01,9.99999e-01,7.68489e-09,9.99999e-01
4.040100000e-01,1.11152e-08,9.99999e-01,9.99999e-01,9.99999e-01,1.11152e-08,9.99999e-01
4.060300500e-01,1.59599e-08,9.99999e-01,9.99999e-01,9.99999e-01,1.59599e-08,9.99999e-01
4.080602003e-01,2.27530e-08,9.99999e-01,9.99999e-01,9.99999e-01,2.27530e-08,9.99999e-01
4.101005013e-01,3.22111e-08,9.99999e-01,9.99999e-01,9.99999e-01,3.22111e-08,9.99999e-01
4.121510038e-01,4.52889e-08,9.99999e-01,9.99999e-01,9.99999e-01,4.52889e-08,9.99999e-01
4.142117588e-01,6.32490e-08,9.99999e-01,9.99999e-01,9.99999e-01,6.32490e-08,9.99999e-01
4.162828176e-01,8.77507e-08,9.99999e-01,9.99999e-01,9.99999e-01,8.77507e-08,9.99999e-01
4.183642317e-01,1.20959e-07,9.99999e-01,9.99999e-01,9.99999e-01,1.20959e-07,9.99999e-01
4.204560528e-01,1.65682e-07,9.99999e-01,9.99999e-01,9.99999e-01,1.65682e-07,9.99999e-01
4.225583331e-01,2.25533e-07,9.99999e-01,9.99999e-01,9.99999e-01,2.25533e-07,9.99999e-01
4.246711247e-01,3.05141e-07,9.99999e-01,9.99999e-01,9.99999e-01,3.05141e-07,9.99999e-01
4.267944804e-01,4.10391e-07,9.99999e-01,9.99999e-01,9.99999e-01,4.10391e-07,9.99999e-01
4.289284528e-01,5.48723e-07,9.99999e-01,9.99999e-01,9.99999e-01,5.48723e-07,9.99999e-01
4.310730950e-01,7.29485e-07,9.99999e-01,9.99999e-01,9.99999e-01,7.29485e-07,9.99999e-01
4.332284605e-01,9.64355e-07,9.99999e-01,9.99999e-01,9.99999e-01,9.64355e-07,9.99999e-01
4.353946028e-01,1.26784e-06,9.99999e-01,9.99999e-01,9.99999e-01,1.26784e-06,9.99999e-01
4.375715758e-01,1.65784e-06,9.99999e-01,9.99999e-01,9.99999e-01,1.65784e-06,9.99999e-01
4.397594337e-01,2.15636e-06,9.99999e-01,9.99999e-01,9.99999e-01,2.15636e-06,9.99999e-01
4.419582309e-01,2.79025e-06,9.99999e-01,9.99999e-01,9.99999e-01,2.79025e-06,9.99999e-01
4.441680220e-01,3.59216e-06,9.99999e-01,9.99999e-01,9.99999e-01,3.59216e-06,9.99999e-01
4.463888621e-01,4.60152e-06,9.99999e-01,9.99999e-01,9.99999e-01,4.60152e-06,9.99999e-01
4.486208064e-01,5.86573e-06,9.99999e-01,9.99999e-01,9.99999e-01,5.86573e-06,9.99999e-01
4.508639105e-01,7.44151e-06,9.99999e-01,9.99999e-01,9.99999e-01,7.44151e-06,9.99999e-01
4.531182300e-01,9.39633e-06,9.99999e-01,9.99999e-01,9.99999e-01,9.39633e-06,9.99999e-01
4.553838212e-01,1.18101e-05,9.99999e-01,9.99999e-01,9.99999e-01,1.18101e-05,9.99999e-01
4.576607403e-01,1.47771e-05,9.99999e-01,9.99999e-01,9.99999e-01,1.47771e-05,9.99999e-01
4.599490440e-01,1.84078e-05,9.99999e-01,9.99999e-01,9.99999e-01,1.84078e-05,9.99999e-01
4.622487892e-01,2.28313e-05,9.99999e-01,9.99999e-01,9.99999e-01,2.28313e-05,9.99999e-01
4.645600332e-01,2.81975e-05,9.99999e-01,9.99999e-01,9.99999e-01,2.81975e-05,9.99999e-01
4.668828333e-01,3.46801e-05,9.99999e-01,9.99999e-01,9.99999e-01,3.46801e-05,9.99999e-01
4.692172475e-01,4.24791e-05,9.99999e-01,9.99999e-01,9.99999e-01,4.24791e-05,9.99999e-01
4.715633337e-01,5.18238e-05,9.99999e-01,9.99999e-01,9.99999e-01,5.18238e-05,9.99999e-01
4.739211504e-01,6.29764e-05,9.99999e-01,9.99999e-01,9.99999e-01,6.29764e-05,9.99999e-01
4.762907561e-01,7.62350e-05,9.99999e-01,9.99999e-01,9.99999e-01,7.62350e-05,9.99999e-01
4.786722099e-01,9.19374e-05,9.99999e-01,9.99999e-01,9.99999e-01,9.19374e-05,9.99999e-01
4.810655710e-01,1.10465e-04,9.99999e-01,9.99999e-01,9.99999e-01,1.10465e-04,9.99999e-01
4.834708988e-01,1.32245e-04,9.99999e-01,9.99999e-01,9.99999e-01,1.32245e-04,9.99999e-01
4.858882533e-01,1.57758e-04,9.99999e-01,9.99999e-01,9.99999e-01,1.57758e-04,9.99999e-01
4.883176946e-01,1.87539e-04,9.99999e-01,9.99999e-01,9.99999e-01,1.87539e-04,9.99999e-01
4.907592831e-01,2.22181e-04,9.99999e-01,9.99999e-01,9.99999e-01,2.22181e-04,9.99999e-01
4.932130795e-01,2.62342e-04,9.99999e-01,9.99999e-01,9.99999e-01,2.62342e-04,9.99999e-01
4.956791449e-01,3.08748e-04,9.99999e-01,9.99999e-01,9.99999e-01,3.08748e-04,9.99999e-01
4.981575406e-01,3.62196e-04,9.99999e-01,9.99999e-01,9.99999e-01,3.62196e-04,9.99999e-01
5.006483283e-01,4.23558e-04,9.99999e-01,9.99999e-01,9.99999e-01,4.23558e-04,9.99999e-01
5.031515699e-01,4.93787e-04,9.99999e-01,9.99999e-01,9.99999e-01,4.93787e-04,9.99999e-01
5.056673278e-01,5.73919e-04,9.99999e-01,9.99999e-01,9.99999e-01,5.73919e-04,9.99999e-01
5.081956644e-01,6.65076e-04,9.99999e-01,9.99999e-01,9.99999e-01,6.65076e-04,9.99999e-01
5.107366428e-01,7.68471e-04,9.99999e-01,9.99999e-01,9.99999e-01,7.68471e-04,9.99999e-01
5.132903260e-01,8.85409e-04,9.99999e-01,9.99999e-01,9.99999e-01,8.85409e-04,9.99999e-01
5.158567776e-01,1.01729e-03,9.99999e-01,9.99999e-01,9.99999e-01,1.01729e-03,9.99999e-01
5.184360615e-01,1.16562e-03,9.99999e-01,9.99999e-01,9.99999e-01,1.16562e-03,9.99999e-01
5.210282418e-01,1.33198e-03,9.99999e-01,9.99999e-01,9.99999e-01,1.33198e-03,9.99999e-01
5.236333830e-01,1.51809e-03,9.99999e-01,9.99999e-01,9.99999e-01,1.51809e-03,9.99999e-01
5.262515499e-01,1.72573e-03,9.99999e-01,9.99999e-01,9.99999e-01,1.72573e-03,9.99999e-01
5.288828077e-01,1.95681e-03,9.99999e-01,9.99999e-01,9.99999e-01,1.95681e-03,9.99999e-01
5.315272217e-01,2.21334e-03,9.99999e-01,9.99999e-01,9.99999e-01,2.21334e-03,9.99999e-01
5.341848578e-01,2.49741e-03,9.99999e-01,9.99999e-01,9.99999e-01,2.49741e-03,9.99999e-01
5.368557821e-01,2.81123e-03,9.99999e-01,9.99999e-01,9.99999e-01,2.81123e-03,9.99999e-01
5.395400610e-01,3.15709e-03,9.99999e-01,9.99999e-01,9.99999e-01,3.15709e-03,9.99999e-01
5.422377613e-01,3.53738e-03,9.99999e-01,9.99999e-01,9.99999e-01,3.53738e-03,9.99999e-01
5.449489501e-01,3.95459e-03,9.99999e-01,9.99999e-01,9.99999e-01,3.95459e-03,9.99999e-01
5.476736949e-01,4.41128e-03,9.99999e-01,9.99999e-01,9.99999e-01,4.41128e-03,9.99999e-01
5.504120634e-01,4.91010e-03,9.99999e-01,9.99999e-01,9.99999e-01,4.91010e-03,9.99999e-01
5.531641237e-01,5.45378e-03,9.99999e-01,9.99999e-01,9.99999e-01,5.45378e-03,9.99999e-01
5.559299443e-01,6.04509e-03,9.99999e-01,9.99999e-01,9.99999e-01,6.04509e-03,9.99999e-01
5.587095940e-01,6.68692e-03,9.99999e-01,9.99999e-01,9.99999e-01,6.68692e-03,9.99999e-01
5.615031420e-01,7.38215e-03,9.99999e-01,9.99999e-01,9.99999e-01,7.38215e-03,9.99999e-01
5.643106577e-01,8.13377e-03,9.99999e-01,9.99999e-01,9.99999e-01,8.13377e-03,9.99999e-01
5.671322110e-01,8.94476e-03,9.99999e-01,9.99999e-01,9.99999e-01,8.94476e-03,9.99999e-01
5.699678720e-01,9.81816e-03,9.99999e-01,9.99999e-01,9.99999e-01,9.81816e-03,9.99999e-01
5.728177114e-01,1.07570e-02,9.99999e-01,9.99999e-01,9.99999e-01,1.07570e-02,9.99999e-01
5.756818000e-01,1.17644e-02,9.99999e-01,9.99999e-01,9.99999e-01,1.17644e-02,9.99999e-01
5.785602090e-01,1.28435e-02,9.99999e-01,9.99999e-01,9.99999e-01,1.28435e-02,9.99999e-01
5.814530100e-01,1.39972e-02,9.99999e-01,9.99999e-01,9.99999e-01,1.39972e-02,9.99999e-01
5.843602750e-01,1.52286e-02,9.99999e-01,9.99999e-01,9.99999e-01,1.52286e-02,9.99999e-01
5.872820764e-01,1.65409e-02,9.99999e-01,9.99999e-01,9.99999e-01,1.65409e-02,9.99999e-01
5.902184868e-01,1.79368e-02,9.99999e-01,9.99999e-01,9.99999e-01,1.79368e-02,9.99999e-01
5.931695792e-01,1.94195e-02,9.99999e-01,9.99999e-01,9.99999e-01,1.94195e-02,9.99999e-01
5.961354271e-01,2.09918e-02,9.99999e-01,9.99999e-01,9.99999e-01,2.09918e-02,9.99999e-01
5.991161043e-01,2.26566e-02,9.99999e-01,9.99999e-01,9.99999e-01,2.26566e-02,9.99999e-01
6.021116848e-01,2.44165e-02,9.99999e-01,9.99999e-01,9.99999e-01,2.44165e-02,9.99999e-01
6.051222432e-01,2.62742e-02,9.99999e-01,9.99999e-01,9.99999e-01,2.62742e-02,9.99999e-01
6.081478544e-01,2.82324e-02,9.99999e-01,9.99999e-01,9.99999e-01,2.82324e-02,9.99999e-01
6.111885937e-01,3.02935e-02,9.99999e-01,9.99999e-01,9.99999e-01,3.02935e-02,9.99999e-01
6.142445367e-01,3.24599e-02,9.99999e-01,9.99999e-01,9.99999e-01,3.24599e-02,9.99999e-01
6.173157594e-01,3.47337e-02,9.99999e-01,9.99999e-01,9.99999e-01,3.47337e-02,9.99999e-01
6.204023382e-01,3.71172e-02,9.99999e-01,9.99999e-01,9.99999e-01,3.71172e-02,9.99999e-01
6.235043498e-01,3.96123e-02,9.99999e-01,9.99999e-01,9.99999e-01,3.96123e-02,9.99999e-01
6.266218716e-01,4.22208e-02,9.99999e-01,9.99999e-01,9.99999e-01,4.22208e-02,9.99999e-01
6.297549810e-01,4.49444e-02,9.99999e-01,9.99999e-01,9.99999e-01,4.49444e-02,9.99999e-01
6.329037559e-01,4.77846e-02,9.99999e-01,9.99999e-01,9.99999e-01,4.77846e-02,9.99999e-01
6.360682746e-01,5.07429e-02,9.99999e-01,9.99999e-01,9.99999e-01,5.07429e-02,9.99999e-01
6.392486160e-01,5.38205e-02,9.99999e-01,9.99999e-01,9.99999e-01,5.38205e-02,9.99999e-01
6.424448591e-01,5.70183e-02,9.99999e-01,9.99999e-01,9.99999e-01,5.70183e-02,9.99999e-01
6.456570834e-01,6.03374e-02,9.99999e-01,9.99999e-01,9.99999e-01,6.03374e-02,9.99999e-01
6.488853688e-01,6.37783e-02,9.99999e-01,9.99999e-01,9.99999e-01,6.37783e-02,9.99999e-01
6.521297956e-01,6.73416e-02,9.99999e-01,9.99999e-01,9.99999e-01,6.73416e-02,9.99999e-01
6.553904446e-01,7.10277e-02,9.99999e-01,9.99999e-01,9.99999e-01,7.10277e-02,9.99999e-01
6.586673968e-01,7.48367e-02,9.99999e-01,9.99999e-01,9.99999e-01,7.48367e-02,9.99999e-01
6.619607338e-01,7.87687e-02,9.99999e-01,9.99999e-01,9.99999e-01,7.87687e-02,9.99999e-01
6.652705375e-01,8.28235e-02,9.99999e-01,9.99999e-01,9.99999e-01,8.28235e-02,9.99999e-01
6.685968902e-01,8.70007e-02,9.99999e-01,9.99999e-01,9.99999e-01,8.70007e-02,9.99999e-01
6.719398746e-01,9.12998e-02,9.99999e-01,9.99999e-01,9.99999e-01,9.12998e-02,9.99999e-01
6.752995740e-01,9.57201e-02,9.99999e-01,9.99999e-01,9.99999e-01,9.57201e-02,9.99999e-01
6.786760719e-01,1.00261e-01,9.99999e-01,9.99999e-01,9.99999e-01,1.00261e-01,9.99999e-01
6.820694522e-01,1.04921e-01,9.99999e-01,9.99999e-01,9.99999e-01,1.04921e-01,9.99999e-01
6.854797995e-01,1.09699e-01,9.99999e-01,9.99999e-01,9.99999e-01,1.09699e-01,9.99999e-01
6.889071985e-01,1.14593e-01,9.99999e-01,9.99999e-01,9.99999e-01,1.14593e-01,9.99999e-01
6.923517345e-01,1.19603e-01,9.99999e-01,9.99999e-01,9.99999e-01,1.19603e-01,9.99999e-01
6.958134932e-01,1.24727e-01,9.99999e-01,9.99999e-01,9.99999e-01,1.24727e-01,9.99999e-01
6.992925606e-01,1.29962e-01,9.99999e-01,9.99999e-01,9.99999e-01,1.29962e-01,9.99999e-01
7.027890234e-01,1.35307e-01,9.99999e-01,9.99999e-01,9.99999e-01,1.35307e-01,9.99999e-01
7.063029686e-01,1.40760e-01,9.99999e-01,9.99999e-01,9.99999e-01,1.40760e-01,9.99999e-01
7.098344834e-01,1.46319e-01,9.99999e-01,9.99999e-01,9.99999e-01,1.46319e-01,9.99999e-01
7.133836558e-01,1.51980e-01,9.99999e-01,9.99999e-01,9.99999e-01,1.51980e-01,9.99999e-01
7.169505741e-01,1.57743e-01,9.99999e-01,9.99999e-01,9.99999e-01,1.57743e-01,9.99999e-01
7.205353270e-01,1.63603e-01,9.99999e-01,9.99999e-01,9.99999e-01,1.63603e-01,9.99999e-01
7.241380036e-01,1.69559e-01,9.99999e-01,9.99999e-01,9.99999e-01,1.69559e-01,9.99999e-01
7.277586936e-01,1.75608e-01,9.99999e-01,9.99999e-01,9.99999e-01,1.75608e-01,9.99999e-01
7.313974871e-01,1.81746e-01,9.99999e-01,9.99999e-01,9.99999e-01,1.81746e-01,9.99999e-01
7.350544745e-01,1.87972e-01,9.99999e-01,9.99999e-01,9.99999e-01,1.87972e-01,9.99999e-01
7.387297469e-01,1.94282e-01,9.99999e-01,9.99999e-01,9.99999e-01,1.94282e-01,9.99999e-01
7.424233956e-01,2.00672e-01,9.99999e-01,9.99999e-01,9.99999e-01,2.00672e-01,9.99999e-01
7.461355126e-01,2.07140e-01,9.99999e-01,9.99999e-01,9.99999e-01,2.07140e-01,9.99999e-01
7.498661902e-01,2.13683e-01,9.99999e-01,9.99999e-01,9.99999e-01,2.13683e-01,9.99999e-01
7.536155211e-01,2.20297e-01,9.99999e-01,9.99999e-01,9.99999e-01,2.20297e-01,9.99999e-01
7.573835987e-01,2.26979e-01,9.99999e-01,9.99999e-01,9.99999e-01,2.26979e-01,9.99999e-01
7.611705167e-01,2.33726e-01,9.99999e-01,9.99999e-01,9.99999e-01,2.33726e-01,9.99999e-01
7.649763693e-01,2.40534e-01,9.99999e-01,9.99999e-01,9.99999e-01,2.40534e-01,9.99999e-01
7.688012511e-01,2.47400e-01,9.99999e-01,9.99999e-01,9.99999e-01,2.47400e-01,9.99999e-01
7.726452574e-01,2.54321e-01,9.99999e-01,9.99999e-01,9.99999e-01,2.54321e-01,9.99999e-01
7.765084837e-01,2.61292e-01,9.99999e-01,9.99999e-01,9.99999e-01,2.61292e-01,9.99999e-01
7.803910261e-01,2.53550e-01,9.99999e-01,9.99999e-01,9.44980e-01,2.68312e-01,9.99999e-01
7.842929812e-01,2.10710e-01,9.99999e-01,9.99999e-01,7.65172e-01,2.75376e-01,9.99999e-01
7.882144461e-01,2.12631e-01,9.99999e-01,9.99999e-01,7.52727e-01,2.82481e-01,9.99999e-01
7.921555184e-01,2.44512e-01,9.99999e-01,9.99999e-01,8.44242e-01,2.89623e-01,9.99999e-01
7.961162960e-01,2.64743e-01,9.99999e-01,9.99999e-01,8.91992e-01,2.96799e-01,9.99999e-01
8.000968774e-01,2.85749e-01,9.99999e-01,9.99999e-01,9.39942e-01,3.04007e-01,9.99999e-01
8.040973618e-01,3.01387e-01,9.99999e-01,9.99999e-01,9.68337e-01,3.11242e-01,9.99999e-01
8.081178486e-01,3.13841e-01,9.99999e-01,9.99999e-01,9.85368e-01,3.18500e-01,9.99999e-01
8.121584379e-01,3.24294e-01,9.99999e-01,9.99999e-01,9.95438e-01,3.25780e-01,9.99999e-01
8.162192301e-01,3.32742e-01,9.99999e-01,9.99999e-01,9.98990e-01,3.33078e-01,9.99999e-01
8.203003262e-01,3.40385e-01,9.99999e-01,9.99999e-01,9.99983e-01,3.40390e-01,9.99999e-01
8.244018279e-01,3.47713e-01,9.99999e-01,9.99999e-01,9.99999e-01,3.47713e-01,9.99999e-01
8.285238370e-01,3.55045e-01,9.99999e-01,9.99999e-01,9.99999e-01,3.55045e-01,9.99999e-01
8.326664562e-01,3.62382e-01,9.99999e-01,9.99999e-01,9.99999e-01,3.62382e-01,9.99999e-01
8.368297885e-01,3.69721e-01,9.99999e-01,9.99999e-01,9.99999e-01,3.69721e-01,9.99999e-01
8.410139374e-01,3.77059e-01,9.99999e-01,9.99999e-01,9.99999e-01,3.77059e-01,9.99999e-01
8.452190071e-01,3.84394e-01,9.99999e-01,9.99999e-01,9.99999e-01,3.84394e-01,9.99999e-01
8.494451021e-01,3.91722e-01,9.99999e-01,9.99999e-01,9.99999e-01,3.91722e-01,9.99999e-01
8.536923276e-01,3.99041e-01,9.99999e-01,9.99999e-01,9.99999e-01,3.99041e-01,9.99999e-01
8.579607893e-01,4.06348e-01,9.99999e-01,9.99999e-01,9.99999e-01,4.06348e-01,9.99999e-01
8.622505932e-01,4.13641e-01,9.99999e-01,9.99999e-01,9.99999e-01,4.13641e-01,9.99999e-01
8.665618462e-01,3.78483e-01,9.99999e-01,9.99999e-01,8.99186e-01,4.20917e-01,9.99999e-01
8.708946554e-01,2.19714e-01,9.99999e-01,9.99999e-01,5.13143e-01,4.28173e-01,9.99999e-01
8.752491287e-01,2.52016e-01,9.99999e-01,9.99999e-01,5.78804e-01,4.35408e-01,9.99999e-01
8.796253743e-01,3.26477e-01,9.99999e-01,9.99999e-01,7.37604e-01,4.42618e-01,9.99999e-01
8.840235012e-01,3.83694e-01,9.99999e-01,9.99999e-01,8.53031e-01,4.49801e-01,9.99999e-01
8.884436187e-01,4.29085e-01,9.99999e-01,9.99999e-01,9.39007e-01,4.56956e-01,9.99999e-01
8.928858368e-01,4.52405e-01,9.99999e-01,9.99999e-01,9.74844e-01,4.64080e-01,9.99999e-01
8.973502660e-01,4.68255e-01,9.99999e-01,9.99999e-01,9.93811e-01,4.71170e-01,9.99999e-01
9.018370173e-01,4.77899e-01,9.99999e-01,9.99999e-01,9.99315e-01,4.78226e-01,9.99999e-01
9.063462024e-01,4.76991e-01,9.99999e-01,9.99999e-01,9.82988e-01,4.85246e-01,9.99999e-01
9.108779334e-01,4.72860e-01,9.99999e-01,9.99999e-01,9.60655e-01,4.92226e-01,9.99999e-01
9.154323231e-01,4.94463e-01,9.99999e-01,9.99999e-01,9.90576e-01,4.99166e-01,9.99999e-01
9.200094847e-01,4.44926e-01,9.99999e-01,9.99999e-01,8.79187e-01,5.06064e-01,9.99999e-01
9.246095321e-01,4.21679e-01,9.99999e-01,9.99999e-01,8.22116e-01,5.12918e-01,9.99999e-01
9.292325798e-01,4.46634e-01,9.99999e-01,9.99999e-01,8.59362e-01,5.19727e-01,9.99999e-01
9.338787427e-01,4.54072e-01,9.99999e-01,9.99999e-01,8.62452e-01,5.26489e-01,9.99999e-01
9.385481364e-01,4.78100e-01,9.99999e-01,9.99999e-01,8.96656e-01,5.33203e-01,9.99999e-01
9.432408771e-01,5.04867e-01,9.99999e-01,9.99999e-01,9.35167e-01,5.39868e-01,9.99999e-01
9.479570815e-01,5.28029e-01,9.99999e-01,9.99999e-01,9.66234e-01,5.46481e-01,9.99999e-01
9.526968669e-01,5.43955e-01,9.99999e-01,9.99999e-01,9.83566e-01,5.53043e-01,9.99999e-01
9.574603512e-01,5.55599e-01,9.99999e-01,9.99999e-01,9.92935e-01,5.59551e-01,9.99999e-01
9.622476530e-01,5.64755e-01,9.99999e-01,9.99999e-01,9.97790e-01,5.66006e-01,9.99999e-01
9.670588912e-01,5.72025e-01,9.99999e-01,9.99999e-01,9.99336e-01,5.72405e-01,9.99999e-01
9.718941857e-01,5.78720e-01,9.99999e-01,9.99999e-01,9.99952e-01,5.78748e-01,9.99999e-01
9.767536566e-01,5.85033e-01,9.99999e-01,9.99999e-01,9.99999e-01,5.85033e-01,9.99999e-01
9.816374249e-01,5.91261e-01,9.99999e-01,9.99999e-01,9.99999e-01,5.91261e-01,9.99999e-01
9.865456120e-01,5.97430e-01,9.99999e-01,9.99999e-01,9.99999e-01,5.97430e-01,9.99999e-01
9.914783401e-01,6.03540e-01,9.99999e-01,9.99999e-01,9.99999e-01,6.03540e-01,9.99999e-01
9.964357318e-01,6.09590e-01,9.99999e-01,9.99999e-01,9.99999e-01,6.09590e-01,9.99999e-01
1.001417910e+00,6.15579e-01,9.99999e-01,9.99999e-01,9.99999e-01,6.15579e-01,9.99999e-01
1.006425000e+00,6.21507e-01,9.99999e-01,9.99999e-01,9.99999e-01,6.21507e-01,9.99999e-01
1.011457125e+00,6.27373e-01,9.99999e-01,9.99999e-01,9.99999e-01,6.27373e-01,9.99999e-01
1.016514411e+00,6.33177e-01,9.99999e-01,9.99999e-01,9.99999e-01,6.33177e-01,9.99999e-01
1.021596983e+00,6.38863e-01,9.99999e-01,9.99999e-01,9.99913e-01,6.38919e-01,9.99999e-01
1.026704968e+00,6.40289e-01,9.99999e-01,9.99999e-01,9.93316e-01,6.44597e-01,9.99999e-01
1.031838492e+00,6.08719e-01,9.99999e-01,9.99999e-01,9.36183e-01,6.50213e-01,9.99999e-01
1.036997685e+00,5.86478e-02,9.99999e-01,9.99999e-01,8.94341e-02,6.55765e-01,9.99999e-01
1.042182673e+00,1.79850e-02,9.99999e-01,9.99999e-01,2.71984e-02,6.61253e-01,9.99999e-01
1.047393587e+00,3.13569e-02,9.99999e-01,9.99999e-01,4.70345e-02,6.66678e-01,9.99999e-01
1.052630555e+00,9.08222e-05,9.99999e-01,9.99999e-01,1.35144e-04,6.72038e-01,9.99999e-01
1.057893707e+00,3.01175e-04,9.99999e-01,9.99999e-01,4.44647e-04,6.77335e-01,9.99999e-01
1.063183176e+00,2.17559e-03,9.99999e-01,9.99999e-01,3.18736e-03,6.82567e-01,9.99999e-01
1.068499092e+00,1.07985e-02,9.99999e-01,9.99999e-01,1.57015e-02,6.87736e-01,9.99999e-01
1.073841587e+00,4.91174e-02,9.99999e-01,9.99999e-01,7.08927e-02,6.92840e-01,9.99999e-01
1.079210795e+00,1.30843e-01,9.99999e-01,9.99999e-01,1.87486e-01,6.97880e-01,9.99999e-01
1.084606849e+00,2.76101e-01,9.99999e-01,9.99999e-01,3.92826e-01,7.02856e-01,9.99999e-01
1.090029883e+00,4.34977e-01,9.99999e-01,9.99999e-01,6.14575e-01,7.07768e-01,9.99999e-01
1.095480033e+00,5.60325e-01,9.99999e-01,9.99999e-01,7.86291e-01,7.12617e-01,9.99999e-01
1.100957433e+00,6.38790e-01,9.99999e-01,9.99999e-01,8.90420e-01,7.17402e-01,9.99999e-01
1.106462220e+00,6.88243e-01,9.99999e-01,9.99999e-01,9.53080e-01,7.22124e-01,9.99999e-01
1.111994531e+00,7.13947e-01,9.99999e-01,9.99999e-01,9.82338e-01,7.26782e-01,9.99999e-01
1.117554504e+00,7.28197e-01,9.99999e-01,9.99999e-01,9.95649e-01,7.31378e-01,9.99999e-01
1.123142276e+00,7.35700e-01,9.99999e-01,9.99999e-01,9.99712e-01,7.35911e-01,9.99999e-01
1.128757988e+00,7.40382e-01,9.99999e-01,9.99999e-01,9.99999e-01,7.40382e-01,9.99999e-01
1.134401778e+00,7.44791e-01,9.99999e-01,9.99999e-01,9.99999e-01,7.44791e-01,9.99999e-01
1.140073787e+00,7.49139e-01,9.99999e-01,9.99999e-01,9.99999e-01,7.49139e-01,9.99999e-01
1.145774156e+00,7.53425e-01,9.99999e-01,9.99999e-01,9.99999e-01,7.53425e-01,9.99999e-01
1.151503026e+00,7.57650e-01,9.99999e-01,9.99999e-01,9.99999e-01,7.57650e-01,9.99999e-01
1.157260541e+00,7.61815e-01,9.99999e-01,9.99999e-01,9.99999e-01,7.61815e-01,9.99999e-01
1.163046844e+00,7.65920e-01,9.99999e-01,9.99999e-01,9.99999e-01,7.65920e-01,9.99999e-01
1.168862078e+00,7.69965e-01,9.99999e-01,9.99999e-01,9.99999e-01,7.69965e-01,9.99999e-01
1.174706389e+00,7.73951e-01,9.99999e-01,9.99999e-01,9.99999e-01,7.73951e-01,9.99999e-01
1.180579921e+00,7.77878e-01,9.99999e-01,9.99999e-01,9.99999e-01,7.77878e-01,9.99999e-01
1.186482820e+00,7.81739e-01,9.99999e-01,9.99999e-01,9.99989e-01,7.81747e-01,9.99999e-01
1.192415234e+00,7.67255e-01,9.99999e-01,9.99999e-01,9.76699e-01,7.85558e-01,9.99999e-01
1.198377311e+00,4.29430e-01,9.99999e-01,9.99999e-01,5.44055e-01,7.89313e-01,9.99999e-01
1.204369197e+00,1.71476e-18,9.99999e-01,9.99999e-01,2.16234e-18,7.93010e-01,9.99999e-01
1.210391043e+00,4.96029e-72,9.99999e-01,9.99999e-01,6.22642e-72,7.96651e-01,9.99999e-01
1.216442998e+00,1.85925e-62,9.99999e-01,9.99999e-01,2.32338e-62,8.00236e-01,9.99999e-01
1.222525213e+00,1.55861e-61,9.99999e-01,9.99999e-01,1.93913e-61,8.03767e-01,9.99999e-01
1.228637839e+00,1.32538e-47,9.99999e-01,9.99999e-01,1.64186e-47,8.07242e-01,9.99999e-01
