#,Wave/freq,Total,N2,O2,CO2,Rayleigh,CIA
4.000000000e-01,2.07877e-02,9.99999e-01,9.99999e-01,9.99999e-01,2.07877e-02,9.99999e-01
4.020000000e-01,2.24424e-02,9.99999e-01,9.99999e-01,9.99999e-01,2.24424e-02,9.99999e-01
4.040100000e-01,2.41902e-02,9.99999e-01,9.99999e-01,9.99999e-01,2.41902e-02,9.99999e-01
4.060300500e-01,2.60356e-02,9.99999e-01,9.99999e-01,9.99999e-01,2.60356e-02,9.99999e-01
4.080602003e-01,2.79810e-02,9.99999e-01,9.99999e-01,9.99999e-01,2.79810e-02,9.99999e-01
4.101005013e-01,3.00291e-02,9.99999e-01,9.99999e-01,9.99999e-01,3.00291e-02,9.99999e-01
4.121510038e-01,3.21821e-02,9.99999e-01,9.99999e-01,9.99999e-01,3.21821e-02,9.99999e-01
4.142117588e-01,3.44423e-02,9.99999e-01,9.99999e-01,9.99999e-01,3.44423e-02,9.99999e-01
4.162828176e-01,3.68119e-02,9.99999e-01,9.99999e-01,9.99999e-01,3.68119e-02,9.99999e-01
4.183642317e-01,3.92929e-02,9.99999e-01,9.99999e-01,9.99999e-01,3.92929e-02,9.99999e-01
4.204560528e-01,4.18870e-02,9.99999e-01,9.99999e-01,9.99999e-01,4.18870e-02,9.99999e-01
4.225583331e-01,4.45961e-02,9.99999e-01,9.99999e-01,9.99999e-01,4.45961e-02,9.99999e-01
4.246711247e-01,4.74216e-02,9.99999e-01,9.99999e-01,9.99999e-01,4.74216e-02,9.99999e-01
4.267944804e-01,5.03650e-02,9.99999e-01,9.99999e-01,9.99999e-01,5.03650e-02,9.99999e-01
4.289284528e-01,5.34276e-02,9.99999e-01,9.99999e-01,9.99999e-01,5.34276e-02,9.99999e-01
4.310730950e-01,5.66103e-02,9.99999e-01,9.99999e-01,9.99999e-01,5.66103e-02,9.99999e-01
4.332284605e-01,5.99140e-02,9.99999e-01,9.99999e-01,9.99999e-01,5.99140e-02,9.99999e-01
4.353946028e-01,6.33396e-02,9.99999e-01,9.99999e-01,9.99999e-01,6.33396e-02,9.99999e-01
4.375715758e-01,6.68875e-02,9.99999e-01,9.99999e-01,9.99999e-01,6.68875e-02,9.99999e-01
4.397594337e-01,7.05582e-02,9.99999e-01,9.99999e-01,9.99999e-01,7.05582e-02,9.99999e-01
4.419582309e-01,7.43518e-02,9.99999e-01,9.99999e-01,9.99999e-01,7.43518e-02,9.99999e-01
4.441680220e-01,7.82684e-02,9.99999e-01,9.99999e-01,9.99999e-01,7.82684e-02,9.99999e-01
4.463888621e-01,8.23078e-02,9.99999e-01,9.99999e-01,9.99999e-01,8.23078e-02,9.99999e-01
4.486208064e-01,8.64696e-02,9.99999e-01,9.99999e-01,9.99999e-01,8.64696e-02,9.99999e-01
4.508639105e-01,9.07534e-02,9.99999e-01,9.99999e-01,9.99999e-01,9.07534e-02,9.99999e-01
4.531182300e-01,9.51586e-02,9.99999e-01,9.99999e-01,9.99999e-01,9.51586e-02,9.99999e-01
4.553838212e-01,9.96841e-02,9.99999e-01,9.99999e-01,9.99999e-01,9.96841e-02,9.99999e-01
4.576607403e-01,1.04329e-01,9.99999e-01,9.99999e-01,9.99999e-01,1.04329e-01,9.99999e-01
4.599490440e-01,1.09092e-01,9.99999e-01,9.99999e-01,9.99999e-01,1.09092e-01,9.99999e-01
4.622487892e-01,1.13973e-01,9.99999e-01,9.99999e-01,9.99999e-01,1.13973e-01,9.99999e-01
4.645600332e-01,1.18968e-01,9.99999e-01,9.99999e-01,9.99999e-01,1.18968e-01,9.99999e-01
4.668828333e-01,1.24078e-01,9.99999e-01,9.99999e-01,9.99999e-01,1.24078e-01,9.99999e-01
4.692172475e-01,1.29299e-01,9.99999e-01,9.99999e-01,9.99999e-01,1.29299e-01,9.99999e-01
4.715633337e-01,1.34631e-01,9.99999e-01,9.99999e-01,9.99999e-01,1.34631e-01,9.99999e-01
4.739211504e-01,1.40070e-01,9.99999e-01,9.99999e-01,9.99999e-01,1.40070e-01,9.99999e-01
4.762907561e-01,1.45615e-01,9.99999e-01,9.99999e-01,9.99999e-01,1.45615e-01,9.99999e-01
4.786722099e-01,1.51264e-01,9.99999e-01,9.99999e-01,9.99999e-01,1.51264e-01,9.99999e-01
4.810655710e-01,1.57014e-01,9.99999e-01,9.99999e-01,9.99999e-01,1.57014e-01,9.99999e-01
4.834708988e-01,1.62862e-01,9.99999e-01,9.99999e-01,9.99999e-01,1.62862e-01,9.99999e-01
4.858882533e-01,1.68806e-01,9.99999e-01,9.99999e-01,9.99999e-01,1.68806e-01,9.99999e-01
4.883176946e-01,1.74844e-01,9.99999e-01,9.99999e-01,9.99999e-01,1.74844e-01,9.99999e-01
4.907592831e-01,1.80971e-01,9.99999e-01,9.99999e-01,9.99999e-01,1.80971e-01,9.99999e-01
4.932130795e-01,1.87186e-01,9.99999e-01,9.99999e-01,9.99999e-01,1.87186e-01,9.99999e-01
4.956791449e-01,1.93485e-01,9.99999e-01,9.99999e-01,9.99999e-01,1.93485e-01,9.99999e-01
4.981575406e-01,1.99866e-01,9.99999e-01,9.99999e-01,9.99999e-01,1.99866e-01,9.99999e-01
5.006483283e-01,2.06324e-01,9.99999e-01,9.99999e-01,9.99999e-01,2.06324e-01,9.99999e-01
5.031515699e-01,2.12858e-01,9.99999e-01,9.99999e-01,9.99999e-01,2.12858e-01,9.99999e-01
5.056673278e-01,2.19463e-01,9.99999e-01,9.99999e-01,9.99999e-01,2.19463e-01,9.99999e-01
5.081956644e-01,2.26137e-01,9.99999e-01,9.99999e-01,9.99999e-01,2.26137e-01,9.99999e-01
5.107366428e-01,2.32876e-01,9.99999e-01,9.99999e-01,9.99999e-01,2.32876e-01,9.99999e-01
5.132903260e-01,2.39676e-01,9.99999e-01,9.99999e-01,9.99999e-01,2.39676e-01,9.99999e-01
5.158567776e-01,2.46535e-01,9.99999e-01,9.99999e-01,9.99999e-01,2.46535e-01,9.99999e-01
5.184360615e-01,2.53449e-01,9.99999e-01,9.99999e-01,9.99999e-01,2.53449e-01,9.99999e-01
5.210282418e-01,2.60415e-01,9.99999e-01,9.99999e-01,9.99999e-01,2.60415e-01,9.99999e-01
5.236333830e-01,2.67428e-01,9.99999e-01,9.99999e-01,9.99999e-01,2.67428e-01,9.99999e-01
5.262515499e-01,2.74487e-01,9.99999e-01,9.99999e-01,9.99999e-01,2.74487e-01,9.99999e-01
5.288828077e-01,2.81587e-01,9.99999e-01,9.99999e-01,9.99999e-01,2.81587e-01,9.99999e-01
5.315272217e-01,2.88724e-01,9.99999e-01,9.99999e-01,9.99999e-01,2.88724e-01,9.99999e-01
5.341848578e-01,2.95897e-01,9.99999e-01,9.99999e-01,9.99999e-01,2.95897e-01,9.99999e-01
5.368557821e-01,3.03100e-01,9.99999e-01,9.99999e-01,9.99999e-01,3.03100e-01,9.99999e-01
5.395400610e-01,3.10332e-01,9.99999e-01,9.99999e-01,9.99999e-01,3.10332e-01,9.99999e-01
5.422377613e-01,3.17588e-01,9.99999e-01,9.99999e-01,9.99999e-01,3.17588e-01,9.99999e-01
5.449489501e-01,3.24865e-01,9.99999e-01,9.99999e-01,9.99999e-01,3.24865e-01,9.99999e-01
5.476736949e-01,3.32161e-01,9.99999e-01,9.99999e-01,9.99999e-01,3.32161e-01,9.99999e-01
5.504120634e-01,3.39471e-01,9.99999e-01,9.99999e-01,9.99999e-01,3.39471e-01,9.99999e-01
5.531641237e-01,3.46793e-01,9.99999e-01,9.99999e-01,9.99999e-01,3.46793e-01,9.99999e-01
5.559299443e-01,3.54124e-01,9.99999e-01,9.99999e-01,9.99999e-01,3.54124e-01,9.99999e-01
5.587095940e-01,3.61461e-01,9.99999e-01,9.99999e-01,9.99999e-01,3.61461e-01,9.99999e-01
5.615031420e-01,3.68799e-01,9.99999e-01,9.99999e-01,9.99999e-01,3.68799e-01,9.99999e-01
5.643106577e-01,3.76138e-01,9.99999e-01,9.99999e-01,9.99999e-01,3.76138e-01,9.99999e-01
5.671322110e-01,3.83473e-01,9.99999e-01,9.99999e-01,9.99999e-01,3.83473e-01,9.99999e-01
5.699678720e-01,3.90803e-01,9.99999e-01,9.99999e-01,9.99999e-01,3.90803e-01,9.99999e-01
5.728177114e-01,3.98123e-01,9.99999e-01,9.99999e-01,9.99999e-01,3.98123e-01,9.99999e-01
5.756818000e-01,4.05432e-01,9.99999e-01,9.99999e-01,9.99999e-01,4.05432e-01,9.99999e-01
5.785602090e-01,4.12727e-01,9.99999e-01,9.99999e-01,9.99999e-01,4.12727e-01,9.99999e-01
5.814530100e-01,4.20005e-01,9.99999e-01,9.99999e-01,9.99999e-01,4.20005e-01,9.99999e-01
5.843602750e-01,4.27263e-01,9.99999e-01,9.99999e-01,9.99999e-01,4.27263e-01,9.99999e-01
5.872820764e-01,4.34501e-01,9.99999e-01,9.99999e-01,9.99999e-01,4.34501e-01,9.99999e-01
5.902184868e-01,4.41714e-01,9.99999e-01,9.99999e-01,9.99999e-01,4.41714e-01,9.99999e-01
5.931695792e-01,4.48901e-01,9.99999e-01,9.99999e-01,9.99999e-01,4.48901e-01,9.99999e-01
5.961354271e-01,4.56059e-01,9.99999e-01,9.99999e-01,9.99999e-01,4.56059e-01,9.99999e-01
5.991161043e-01,4.63187e-01,9.99999e-01,9.99999e-01,9.99999e-01,4.63187e-01,9.99999e-01
6.021116848e-01,4.70282e-01,9.99999e-01,9.99999e-01,9.99999e-01,4.70282e-01,9.99999e-01
6.051222432e-01,4.77343e-01,9.99999e-01,9.99999e-01,9.99999e-01,4.77343e-01,9.99999e-01
6.081478544e-01,4.84367e-01,9.99999e-01,9.99999e-01,9.99999e-01,4.84367e-01,9.99999e-01
6.111885937e-01,4.91352e-01,9.99999e-01,9.99999e-01,9.99999e-01,4.91352e-01,9.99999e-01
6.142445367e-01,4.98297e-01,9.99999e-01,9.99999e-01,9.99999e-01,4.98297e-01,9.99999e-01
6.173157594e-01,5.05201e-01,9.99999e-01,9.99999e-01,9.99999e-01,5.05201e-01,9.99999e-01
6.204023382e-01,5.12060e-01,9.99999e-01,9.99999e-01,9.99999e-01,5.12060e-01,9.99999e-01
6.235043498e-01,5.18875e-01,9.99999e-01,9.99999e-01,9.99999e-01,5.18875e-01,9.99999e-01
6.266218716e-01,5.25643e-01,9.99999e-01,9.99999e-01,9.99999e-01,5.25643e-01,9.99999e-01
6.297549810e-01,5.32363e-01,9.99999e-01,9.99999e-01,9.99999e-01,5.32363e-01,9.99999e-01
6.329037559e-01,5.39034e-01,9.99999e-01,9.99999e-01,9.99999e-01,5.39034e-01,9.99999e-01
6.360682746e-01,5.45654e-01,9.99999e-01,9.99999e-01,9.99999e-01,5.45654e-01,9.99999e-01
6.392486160e-01,5.52222e-01,9.99999e-01,9.99999e-01,9.99999e-01,5.52222e-01,9.99999e-01
6.424448591e-01,5.58737e-01,9.99999e-01,9.99999e-01,9.99999e-01,5.58737e-01,9.99999e-01
6.456570834e-01,5.65198e-01,9.99999e-01,9.99999e-01,9.99999e-01,5.65198e-01,9.99999e-01
6.488853688e-01,5.71604e-01,9.99999e-01,9.99999e-01,9.99999e-01,5.71604e-01,9.99999e-01
6.521297956e-01,5.77954e-01,9.99999e-01,9.99999e-01,9.99999e-01,5.77954e-01,9.99999e-01
6.553904446e-01,5.84247e-01,9.99999e-01,9.99999e-01,9.99999e-01,5.84247e-01,9.99999e-01
6.586673968e-01,5.90483e-01,9.99999e-01,9.99999e-01,9.99999e-01,5.90483e-01,9.99999e-01
6.619607338e-01,5.96659e-01,9.99999e-01,9.99999e-01,9.99999e-01,5.96659e-01,9.99999e-01
6.652705375e-01,6.02776e-01,9.99999e-01,9.99999e-01,9.99999e-01,6.02776e-01,9.99999e-01
6.685968902e-01,6.08834e-01,9.99999e-01,9.99999e-01,9.99999e-01,6.08834e-01,9.99999e-01
6.719398746e-01,6.14830e-01,9.99999e-01,9.99999e-01,9.99999e-01,6.14830e-01,9.99999e-01
6.752995740e-01,6.20766e-01,9.99999e-01,9.99999e-01,9.99999e-01,6.20766e-01,9.99999e-01
6.786760719e-01,6.26640e-01,9.99999e-01,9.99999e-01,9.99999e-01,6.26640e-01,9.99999e-01
6.820694522e-01,6.32452e-01,9.99999e-01,9.99999e-01,9.99999e-01,6.32452e-01,9.99999e-01
6.854797995e-01,6.38201e-01,9.99999e-01,9.99999e-01,9.99999e-01,6.38201e-01,9.99999e-01
6.889071985e-01,6.43888e-01,9.99999e-01,9.99999e-01,9.99999e-01,6.43888e-01,9.99999e-01
6.923517345e-01,6.49511e-01,9.99999e-01,9.99999e-01,9.99999e-01,6.49511e-01,9.99999e-01
6.958134932e-01,6.55071e-01,9.99999e-01,9.99999e-01,9.99999e-01,6.55071e-01,9.99999e-01
6.992925606e-01,6.60568e-01,9.99999e-01,9.99999e-01,9.99999e-01,6.60568e-01,9.99999e-01
7.027890234e-01,6.66000e-01,9.99999e-01,9.99999e-01,9.99999e-01,6.66000e-01,9.99999e-01
7.063029686e-01,6.71369e-01,9.99999e-01,9.99999e-01,9.99999e-01,6.71369e-01,9.99999e-01
7.098344834e-01,6.76673e-01,9.99999e-01,9.99999e-01,9.99999e-01,6.76673e-01,9.99999e-01
7.133836558e-01,6.81914e-01,9.99999e-01,9.99999e-01,9.99999e-01,6.81914e-01,9.99999e-01
7.169505741e-01,6.87090e-01,9.99999e-01,9.99999e-01,9.99999e-01,6.87090e-01,9.99999e-01
7.205353270e-01,6.92203e-01,9.99999e-01,9.99999e-01,9.99999e-01,6.92203e-01,9.99999e-01
7.241380036e-01,6.97251e-01,9.99999e-01,9.99999e-01,9.99999e-01,6.97251e-01,9.99999e-01
7.277586936e-01,7.02235e-01,9.99999e-01,9.99999e-01,9.99999e-01,7.02235e-01,9.99999e-01
7.313974871e-01,7.07155e-01,9.99999e-01,9.99999e-01,9.99999e-01,7.07155e-01,9.99999e-01
7.350544745e-01,7.12012e-01,9.99999e-01,9.99999e-01,9.99999e-01,7.12012e-01,9.99999e-01
7.387297469e-01,7.16805e-01,9.99999e-01,9.99999e-01,9.99999e-01,7.16805e-01,9.99999e-01
7.424233956e-01,7.21535e-01,9.99999e-01,9.99999e-01,9.99999e-01,7.21535e-01,9.99999e-01
7.461355126e-01,7.26201e-01,9.99999e-01,9.99999e-01,9.99999e-01,7.26201e-01,9.99999e-01
7.498661902e-01,7.30805e-01,9.99999e-01,9.99999e-01,9.99999e-01,7.30805e-01,9.99999e-01
7.536155211e-01,7.35346e-01,9.99999e-01,9.99999e-01,9.99999e-01,7.35346e-01,9.99999e-01
7.573835987e-01,7.39825e-01,9.99999e-01,9.99999e-01,9.99999e-01,7.39825e-01,9.99999e-01
7.611705167e-01,7.44241e-01,9.99999e-01,9.99999e-01,9.99999e-01,7.44241e-01,9.99999e-01
7.649763693e-01,7.48596e-01,9.99999e-01,9.99999e-01,9.99999e-01,7.48596e-01,9.99999e-01
7.688012511e-01,7.52890e-01,9.99999e-01,9.99999e-01,9.99999e-01,7.52890e-01,9.99999e-01
7.726452574e-01,7.57123e-01,9.99999e-01,9.99999e-01,9.99999e-01,7.57123e-01,9.99999e-01
7.765084837e-01,7.61295e-01,9.99999e-01,9.99999e-01,9.99999e-01,7.61295e-01,9.99999e-01
7.803910261e-01,7.55379e-01,9.99999e-01,9.99999e-01,9.86897e-01,7.65408e-01,9.99999e-01
7.842929812e-01,7.26970e-01,9.99999e-01,9.99999e-01,9.44778e-01,7.69460e-01,9.99999e-01
7.882144461e-01,7.27715e-01,9.99999e-01,9.99999e-01,9.40864e-01,7.73454e-01,9.99999e-01
7.921555184e-01,7.50761e-01,9.99999e-01,9.99999e-01,9.65746e-01,7.77388e-01,9.99999e-01
7.961162960e-01,7.63268e-01,9.99999e-01,9.99999e-01,9.76964e-01,7.81265e-01,9.99999e-01
8.000968774e-01,7.75242e-01,9.99999e-01,9.99999e-01,9.87464e-01,7.85083e-01,9.99999e-01
8.040973618e-01,7.83704e-01,9.99999e-01,9.99999e-01,9.93482e-01,7.88844e-01,9.99999e-01
8.081178486e-01,7.90179e-01,9.99999e-01,9.99999e-01,9.97008e-01,7.92549e-01,9.99999e-01
8.121584379e-01,7.95459e-01,9.99999e-01,9.99999e-01,9.99072e-01,7.96197e-01,9.99999e-01
8.162192301e-01,7.99626e-01,9.99999e-01,9.99999e-01,9.99794e-01,7.99789e-01,9.99999e-01
8.203003262e-01,8.03324e-01,9.99999e-01,9.99999e-01,9.99996e-01,8.03326e-01,9.99999e-01
8.244018279e-01,8.06809e-01,9.99999e-01,9.99999e-01,9.99999e-01,8.06809e-01,9.99999e-01
8.285238370e-01,8.10237e-01,9.99999e-01,9.99999e-01,9.99999e-01,8.10237e-01,9.99999e-01
8.326664562e-01,8.13612e-01,9.99999e-01,9.99999e-01,9.99999e-01,8.13612e-01,9.99999e-01
8.368297885e-01,8.16934e-01,9.99999e-01,9.99999e-01,9.99999e-01,8.16934e-01,9.99999e-01
8.410139374e-01,8.20203e-01,9.99999e-01,9.99999e-01,9.99999e-01,8.20203e-01,9.99999e-01
8.452190071e-01,8.23420e-01,9.99999e-01,9.99999e-01,9.99999e-01,8.23420e-01,9.99999e-01
8.494451021e-01,8.26586e-01,9.99999e-01,9.99999e-01,9.99999e-01,8.26586e-01,9.99999e-01
8.536923276e-01,8.29702e-01,9.99999e-01,9.99999e-01,9.99999e-01,8.29702e-01,9.99999e-01
8.579607893e-01,8.32767e-01,9.99999e-01,9.99999e-01,9.99999e-01,8.32767e-01,9.99999e-01
8.622505932e-01,8.35783e-01,9.99999e-01,9.99999e-01,9.99999e-01,8.35783e-01,9.99999e-01
8.665618462e-01,8.08076e-01,9.99999e-01,9.99999e-01,9.63428e-01,8.38749e-01,9.99999e-01
8.708946554e-01,7.26650e-01,9.99999e-01,9.99999e-01,8.63344e-01,8.41668e-01,9.99999e-01
8.752491287e-01,7.51637e-01,9.99999e-01,9.99999e-01,8.89997e-01,8.44538e-01,9.99999e-01
8.796253743e-01,7.95490e-01,9.99999e-01,9.99999e-01,9.38784e-01,8.47361e-01,9.99999e-01
8.840235012e-01,8.22922e-01,9.99999e-01,9.99999e-01,9.67986e-01,8.50138e-01,9.99999e-01
8.884436187e-01,8.42015e-01,9.99999e-01,9.99999e-01,9.87272e-01,8.52869e-01,9.99999e-01
8.928858368e-01,8.51136e-01,9.99999e-01,9.99999e-01,9.94835e-01,8.55554e-01,9.99999e-01
8.973502660e-01,8.57115e-01,9.99999e-01,9.99999e-01,9.98741e-01,8.58195e-01,9.99999e-01
9.018370173e-01,8.60671e-01,9.99999e-01,9.99999e-01,9.99860e-01,8.60791e-01,9.99999e-01
9.063462024e-01,8.60285e-01,9.99999e-01,9.99999e-01,9.96457e-01,8.63343e-01,9.99999e-01
9.108779334e-01,8.58805e-01,9.99999e-01,9.99999e-01,9.91860e-01,8.65853e-01,9.99999e-01
9.154323231e-01,8.66652e-01,9.99999e-01,9.99999e-01,9.98078e-01,8.68320e-01,9.99999e-01
9.200094847e-01,8.45893e-01,9.99999e-01,9.99999e-01,9.71458e-01,8.70745e-01,9.99999e-01
9.246095321e-01,8.38830e-01,9.99999e-01,9.99999e-01,9.60717e-01,8.73129e-01,9.99999e-01
9.292325798e-01,8.48336e-01,9.99999e-01,9.99999e-01,9.69004e-01,8.75471e-01,9.99999e-01
9.338787427e-01,8.51475e-01,9.99999e-01,9.99999e-01,9.70038e-01,8.77774e-01,9.99999e-01
9.385481364e-01,8.60646e-01,9.99999e-01,9.99999e-01,9.77964e-01,8.80038e-01,9.99999e-01
9.432408771e-01,8.70320e-01,9.99999e-01,9.99999e-01,9.86464e-01,8.82262e-01,9.99999e-01
9.479570815e-01,8.78294e-01,9.99999e-01,9.99999e-01,9.93042e-01,8.84447e-01,9.99999e-01
9.526968669e-01,8.83614e-01,9.99999e-01,9.99999e-01,9.96636e-01,8.86595e-01,9.99999e-01
9.574603512e-01,8.87427e-01,9.99999e-01,9.99999e-01,9.98560e-01,8.88706e-01,9.99999e-01
9.622476530e-01,8.90379e-01,9.99999e-01,9.99999e-01,9.99550e-01,8.90779e-01,9.99999e-01
9.670588912e-01,8.92696e-01,9.99999e-01,9.99999e-01,9.99864e-01,8.92816e-01,9.99999e-01
9.718941857e-01,8.94810e-01,9.99999e-01,9.99999e-01,9.99989e-01,8.94818e-01,9.99999e-01
9.767536566e-01,8.96785e-01,9.99999e-01,9.99999e-01,9.99999e-01,8.96785e-01,9.99999e-01
9.816374249e-01,8.98716e-01,9.99999e-01,9.99999e-01,9.99999e-01,8.98716e-01,9.99999e-01
9.865456120e-01,9.00614e-01,9.99999e-01,9.99999e-01,9.99999e-01,9.00614e-01,9.99999e-01
9.914783401e-01,9.02478e-01,9.99999e-01,9.99999e-01,9.99999e-01,9.02478e-01,9.99999e-01
9.964357318e-01,9.04309e-01,9.99999e-01,9.99999e-01,9.99999e-01,9.04309e-01,9.99999e-01
1.001417910e+00,9.06107e-01,9.99999e-01,9.99999e-01,9.99999e-01,9.06107e-01,9.99999e-01
1.006425000e+00,9.07874e-01,9.99999e-01,9.99999e-01,9.99999e-01,9.07874e-01,9.99999e-01
1.011457125e+00,9.09609e-01,9.99999e-01,9.99999e-01,9.99999e-01,9.09609e-01,9.99999e-01
1.016514411e+00,9.11312e-01,9.99999e-01,9.99999e-01,9.99999e-01,9.11312e-01,9.99999e-01
1.021596983e+00,9.12969e-01,9.99999e-01,9.99999e-01,9.99981e-01,9.12986e-01,9.99999e-01
1.026704968e+00,9.13372e-01,9.99999e-01,9.99999e-01,9.98625e-01,9.14629e-01,9.99999e-01
1.031838492e+00,8.96732e-01,9.99999e-01,9.99999e-01,9.78705e-01,9.16242e-01,9.99999e-01
1.036997685e+00,3.24911e-01,9.99999e-01,9.99999e-01,3.54000e-01,9.17827e-01,9.99999e-01
1.042182673e+00,4.02029e-01,9.99999e-01,9.99999e-01,4.37281e-01,9.19383e-01,9.99999e-01
1.047393587e+00,3.59469e-01,9.99999e-01,9.99999e-01,3.90341e-01,9.20910e-01,9.99999e-01
1.052630555e+00,8.19664e-02,9.99999e-01,9.99999e-01,8.88610e-02,9.22410e-01,9.99999e-01
1.057893707e+00,1.40883e-01,9.99999e-01,9.99999e-01,1.52490e-01,9.23883e-01,9.99999e-01
1.063183176e+00,2.38814e-01,9.99999e-01,9.99999e-01,2.58085e-01,9.25329e-01,9.99999e-01
1.068499092e+00,3.79592e-01,9.99999e-01,9.99999e-01,4.09595e-01,9.26748e-01,9.99999e-01
1.073841587e+00,5.28405e-01,9.99999e-01,9.99999e-01,5.69314e-01,9.28142e-01,9.99999e-01
1.079210795e+00,6.52082e-01,9.99999e-01,9.99999e-01,7.01532e-01,9.29510e-01,9.99999e-01
1.084606849e+00,7.67353e-01,9.99999e-01,9.99999e-01,8.24353e-01,9.30853e-01,9.99999e-01
1.090029883e+00,8.43573e-01,9.99999e-01,9.99999e-01,9.04954e-01,9.32172e-01,9.99999e-01
1.095480033e+00,8.88678e-01,9.99999e-01,9.99999e-01,9.52019e-01,9.33466e-01,9.99999e-01
1.100957433e+00,9.12897e-01,9.99999e-01,9.99999e-01,9.76635e-01,9.34736e-01,9.99999e-01
1.106462220e+00,9.26879e-01,9.99999e-01,9.99999e-01,9.90272e-01,9.35983e-01,9.99999e-01
1.111994531e+00,9.33820e-01,9.99999e-01,9.99999e-01,9.96385e-01,9.37207e-01,9.99999e-01
1.117554504e+00,9.37578e-01,9.99999e-01,9.99999e-01,9.99115e-01,9.38408e-01,9.99999e-01
1.123142276e+00,9.39533e-01,9.99999e-01,9.99999e-01,9.99941e-01,9.39587e-01,9.99999e-01
1.128757988e+00,9.40744e-01,9.99999e-01,9.99999e-01,9.99999e-01,9.40744e-01,9.99999e-01
1.134401778e+00,9.41880e-01,9.99999e-01,9.99999e-01,9.99999e-01,9.41880e-01,9.99999e-01
1.140073787e+00,9.42995e-01,9.99999e-01,9.99999e-01,9.99999e-01,9.42995e-01,9.99999e-01
1.145774156e+00,9.44089e-01,9.99999e-01,9.99999e-01,9.99999e-01,9.44089e-01,9.99999e-01
1.151503026e+00,9.45162e-01,9.99999e-01,9.99999e-01,9.99999e-01,9.45162e-01,9.99999e-01
1.157260541e+00,9.46216e-01,9.99999e-01,9.99999e-01,9.99999e-01,9.46216e-01,9.99999e-01
1.163046844e+00,9.47249e-01,9.99999e-01,9.99999e-01,9.99999e-01,9.47249e-01,9.99999e-01
1.168862078e+00,9.48264e-01,9.99999e-01,9.99999e-01,9.99999e-01,9.48264e-01,9.99999e-01
1.174706389e+00,9.49259e-01,9.99999e-01,9.99999e-01,9.99999e-01,9.49259e-01,9.99999e-01
1.180579921e+00,9.50236e-01,9.99999e-01,9.99999e-01,9.99999e-01,9.50236e-01,9.99999e-01
1.186482820e+00,9.51193e-01,9.99999e-01,9.99999e-01,9.99997e-01,9.51195e-01,9.99999e-01
1.192415234e+00,9.47431e-01,9.99999e-01,9.99999e-01,9.95058e-01,9.52135e-01,9.99999e-01
1.198377311e+00,5.73676e-01,9.99999e-01,9.99999e-01,6.01931e-01,9.53058e-01,9.99999e-01
1.204369197e+00,1.52738e-05,9.99999e-01,9.99999e-01,1.60109e-05,9.53964e-01,9.99999e-01
1.210391043e+00,1.97293e-16,9.99999e-01,9.99999e-01,2.06621e-16,9.54852e-01,9.99999e-01
1.216442998e+00,1.83004e-14,9.99999e-01,9.99999e-01,1.91482e-14,9.55724e-01,9.99999e-01
1.222525213e+00,3.13501e-14,9.99999e-01,9.99999e-01,3.27731e-14,9.56579e-01,9.99999e-01
1.228637839e+00,6.77641e-11,9.99999e-01,9.99999e-01,7.07779e-11,9.57418e-01,9.99999e-01
