#,Wave/freq,Total,CO2,H2O,Rayleigh,CIA
4.000000000e-01,3.67249e-13,9.99999e-01,9.99943e-01,3.67270e-13,9.99999e-01
4.020000000e-01,6.46913e-13,9.99999e-01,9.99964e-01,6.46935e-13,9.99999e-01
4.040100000e-01,1.12621e-12,9.99999e-01,9.99984e-01,1.12623e-12,9.99999e-01
4.060300500e-01,1.93925e-12,9.99999e-01,9.99996e-01,1.93926e-12,9.99999e-01
4.080602003e-01,3.30357e-12,9.99999e-01,9.99998e-01,3.30358e-12,9.99999e-01
4.101005013e-01,5.56882e-12,9.99999e-01,9.99999e-01,5.56882e-12,9.99999e-01
4.121510038e-01,9.29097e-12,9.99999e-01,9.99997e-01,9.29099e-12,9.99999e-01
4.142117588e-01,1.53449e-11,9.99999e-01,9.99984e-01,1.53451e-11,9.99999e-01
4.162828176e-01,2.50925e-11,9.99999e-01,9.99930e-01,2.50942e-11,9.99999e-01
4.183642317e-01,4.06388e-11,9.99999e-01,9.99958e-01,4.06405e-11,9.99999e-01
4.204560528e-01,6.51923e-11,9.99999e-01,9.99974e-01,6.51940e-11,9.99999e-01
4.225583331e-01,1.03609e-10,9.99999e-01,9.99990e-01,1.03610e-10,9.99999e-01
4.246711247e-01,1.63162e-10,9.99999e-01,9.99992e-01,1.63163e-10,9.99999e-01
4.267944804e-01,2.54650e-10,9.99999e-01,9.99988e-01,2.54652e-10,9.99999e-01
4.289284528e-01,3.93958e-10,9.99999e-01,9.99990e-01,3.93962e-10,9.99999e-01
4.310730950e-01,6.04248e-10,9.99999e-01,9.99995e-01,6.04251e-10,9.99999e-01
4.332284605e-01,9.18989e-10,9.99999e-01,9.99998e-01,9.18990e-10,9.99999e-01
4.353946028e-01,1.38614e-09,9.99999e-01,9.99999e-01,1.38614e-09,9.99999e-01
4.375715758e-01,2.07384e-09,9.99999e-01,9.99992e-01,2.07386e-09,9.99999e-01
4.397594337e-01,3.07799e-09,9.99999e-01,9.99938e-01,3.07818e-09,9.99999e-01
4.419582309e-01,4.53197e-09,9.99999e-01,9.99690e-01,4.53337e-09,9.99999e-01
4.441680220e-01,6.62404e-09,9.99999e-01,9.99757e-01,6.62564e-09,9.99999e-01
4.463888621e-01,9.60881e-09,9.99999e-01,9.99748e-01,9.61123e-09,9.99999e-01
4.486208064e-01,1.38379e-08,9.99999e-01,9.99843e-01,1.38401e-08,9.99999e-01
4.508639105e-01,1.97851e-08,9.99999e-01,9.99926e-01,1.97866e-08,9.99999e-01
4.531182300e-01,2.80882e-08,9.99999e-01,9.99970e-01,2.80890e-08,9.99999e-01
4.553838212e-01,3.95994e-08,9.99999e-01,9.99979e-01,3.96001e-08,9.99999e-01
4.576607403e-01,5.54506e-08,9.99999e-01,9.99990e-01,5.54511e-08,9.99999e-01
4.599490440e-01,7.71318e-08,9.99999e-01,9.99993e-01,7.71323e-08,9.99999e-01
4.622487892e-01,1.06593e-07,9.99999e-01,9.99998e-01,1.06594e-07,9.99999e-01
4.645600332e-01,1.46369e-07,9.99999e-01,9.99995e-01,1.46369e-07,9.99999e-01
4.668828333e-01,1.99718e-07,9.99999e-01,9.99925e-01,1.99733e-07,9.99999e-01
4.692172475e-01,2.70841e-07,9.99999e-01,9.99841e-01,2.70883e-07,9.99999e-01
4.715633337e-01,3.65138e-07,9.99999e-01,9.99896e-01,3.65175e-07,9.99999e-01
4.739211504e-01,4.89345e-07,9.99999e-01,9.99900e-01,4.89393e-07,9.99999e-01
4.762907561e-01,6.52050e-07,9.99999e-01,9.99948e-01,6.52083e-07,9.99999e-01
4.786722099e-01,8.63926e-07,9.99999e-01,9.99978e-01,8.63944e-07,9.99999e-01
4.810655710e-01,1.13829e-06,9.99999e-01,9.99993e-01,1.13830e-06,9.99999e-01
4.834708988e-01,1.49153e-06,9.99999e-01,9.99939e-01,1.49162e-06,9.99999e-01
4.858882533e-01,1.94399e-06,9.99999e-01,9.99887e-01,1.94421e-06,9.99999e-01
4.883176946e-01,2.52066e-06,9.99999e-01,9.99906e-01,2.52090e-06,9.99999e-01
4.907592831e-01,3.25163e-06,9.99999e-01,9.99915e-01,3.25191e-06,9.99999e-01
4.932130795e-01,4.17360e-06,9.99999e-01,9.99939e-01,4.17385e-06,9.99999e-01
4.956791449e-01,5.33066e-06,9.99999e-01,9.99967e-01,5.33083e-06,9.99999e-01
4.981575406e-01,6.77462e-06,9.99999e-01,9.99841e-01,6.77569e-06,9.99999e-01
5.006483283e-01,8.56795e-06,9.99999e-01,9.99589e-01,8.57146e-06,9.99999e-01
5.031515699e-01,1.07705e-05,9.99999e-01,9.97918e-01,1.07929e-05,9.99999e-01
5.056673278e-01,1.35136e-05,9.99999e-01,9.98900e-01,1.35284e-05,9.99999e-01
5.081956644e-01,1.68583e-05,9.99999e-01,9.98612e-01,1.68817e-05,9.99999e-01
5.107366428e-01,2.09547e-05,9.99999e-01,9.99063e-01,2.09743e-05,9.99999e-01
5.132903260e-01,2.59336e-05,9.99999e-01,9.99464e-01,2.59475e-05,9.99999e-01
5.158567776e-01,3.19581e-05,9.99999e-01,9.99773e-01,3.19653e-05,9.99999e-01
5.184360615e-01,3.92133e-05,9.99999e-01,9.99909e-01,3.92168e-05,9.99999e-01
5.210282418e-01,4.79179e-05,9.99999e-01,9.99965e-01,4.79195e-05,9.99999e-01
5.236333830e-01,5.83142e-05,9.99999e-01,9.99863e-01,5.83221e-05,9.99999e-01
5.262515499e-01,7.07020e-05,9.99999e-01,9.99914e-01,7.07080e-05,9.99999e-01
5.288828077e-01,8.53921e-05,9.99999e-01,9.99921e-01,8.53988e-05,9.99999e-01
5.315272217e-01,1.02751e-04,9.99999e-01,9.99931e-01,1.02758e-04,9.99999e-01
5.341848578e-01,1.23189e-04,9.99999e-01,9.99954e-01,1.23195e-04,9.99999e-01
5.368557821e-01,1.47144e-04,9.99999e-01,9.99841e-01,1.47168e-04,9.99999e-01
5.395400610e-01,1.75090e-04,9.99999e-01,9.99429e-01,1.75189e-04,9.99999e-01
5.422377613e-01,2.07677e-04,9.99999e-01,9.99262e-01,2.07830e-04,9.99999e-01
5.449489501e-01,2.45553e-04,9.99999e-01,9.99314e-01,2.45721e-04,9.99999e-01
5.476736949e-01,2.89385e-04,9.99999e-01,9.99392e-01,2.89561e-04,9.99999e-01
5.504120634e-01,3.39968e-04,9.99999e-01,9.99558e-01,3.40118e-04,9.99999e-01
5.531641237e-01,3.98145e-04,9.99999e-01,9.99777e-01,3.98234e-04,9.99999e-01
5.559299443e-01,4.64780e-04,9.99999e-01,9.99892e-01,4.64830e-04,9.99999e-01
5.587095940e-01,5.40871e-04,9.99999e-01,9.99932e-01,5.40908e-04,9.99999e-01
5.615031420e-01,6.27508e-04,9.99999e-01,9.99924e-01,6.27555e-04,9.99999e-01
5.643106577e-01,7.25888e-04,9.99999e-01,9.99915e-01,7.25949e-04,9.99999e-01
5.671322110e-01,8.36497e-04,9.99999e-01,9.98971e-01,8.37358e-04,9.99999e-01
5.699678720e-01,9.62088e-04,9.99999e-01,9.98903e-01,9.63144e-04,9.99999e-01
5.728177114e-01,1.10351e-03,9.99999e-01,9.98859e-01,1.10477e-03,9.99999e-01
5.756818000e-01,1.26246e-03,9.99999e-01,9.98952e-01,1.26379e-03,9.99999e-01
5.785602090e-01,1.44054e-03,9.99999e-01,9.99086e-01,1.44186e-03,9.99999e-01
5.814530100e-01,1.63924e-03,9.99999e-01,9.99083e-01,1.64074e-03,9.99999e-01
5.843602750e-01,1.86027e-03,9.99999e-01,9.98908e-01,1.86230e-03,9.99999e-01
5.872820764e-01,2.08875e-03,9.99999e-01,9.90630e-01,2.10850e-03,9.99999e-01
5.902184868e-01,2.35434e-03,9.99999e-01,9.88637e-01,2.38140e-03,9.99999e-01
5.931695792e-01,2.66161e-03,9.99999e-01,9.91968e-01,2.68316e-03,9.99999e-01
5.961354271e-01,2.98948e-03,9.99999e-01,9.91192e-01,3.01604e-03,9.99999e-01
5.991161043e-01,3.36064e-03,9.99999e-01,9.93568e-01,3.38239e-03,9.99999e-01
6.021116848e-01,3.77084e-03,9.99999e-01,9.96345e-01,3.78467e-03,9.99999e-01
6.051222432e-01,4.21758e-03,9.99999e-01,9.98149e-01,4.22540e-03,9.99999e-01
6.081478544e-01,4.70345e-03,9.99999e-01,9.99201e-01,4.70720e-03,9.99999e-01
6.111885937e-01,5.23100e-03,9.99999e-01,9.99661e-01,5.23277e-03,9.99999e-01
6.142445367e-01,5.80399e-03,9.99999e-01,9.99848e-01,5.80487e-03,9.99999e-01
6.173157594e-01,6.42580e-03,9.99999e-01,9.99916e-01,6.42633e-03,9.99999e-01
6.204023382e-01,7.09955e-03,9.99999e-01,9.99929e-01,7.10005e-03,9.99999e-01
6.235043498e-01,7.82654e-03,9.99999e-01,9.99690e-01,7.82896e-03,9.99999e-01
6.266218716e-01,8.60192e-03,9.99999e-01,9.98359e-01,8.61606e-03,9.99999e-01
6.297549810e-01,9.45867e-03,9.99999e-01,9.99397e-01,9.46436e-03,9.99999e-01
6.329037559e-01,1.03646e-02,9.99999e-01,9.98809e-01,1.03769e-02,9.99999e-01
6.360682746e-01,1.13453e-02,9.99999e-01,9.98986e-01,1.13568e-02,9.99999e-01
6.392486160e-01,1.23908e-02,9.99999e-01,9.98686e-01,1.24071e-02,9.99999e-01
6.424448591e-01,1.35071e-02,9.99999e-01,9.98244e-01,1.35308e-02,9.99999e-01
6.456570834e-01,1.46114e-02,9.99999e-01,9.91874e-01,1.47311e-02,9.99999e-01
6.488853688e-01,1.59155e-02,9.99999e-01,9.94040e-01,1.60110e-02,9.99999e-01
6.521297956e-01,1.72679e-02,9.99999e-01,9.93925e-01,1.73734e-02,9.99999e-01
6.553904446e-01,1.87076e-02,9.99999e-01,9.93953e-01,1.88214e-02,9.99999e-01
6.586673968e-01,2.02523e-02,9.99999e-01,9.94817e-01,2.03578e-02,9.99999e-01
6.619607338e-01,2.19196e-02,9.99999e-01,9.97001e-01,2.19856e-02,9.99999e-01
6.652705375e-01,2.36663e-02,9.99999e-01,9.98263e-01,2.37074e-02,9.99999e-01
6.685968902e-01,2.55055e-02,9.99999e-01,9.99192e-01,2.55261e-02,9.99999e-01
6.719398746e-01,2.74339e-02,9.99999e-01,9.99625e-01,2.74442e-02,9.99999e-01
6.752995740e-01,2.94583e-02,9.99999e-01,9.99797e-01,2.94642e-02,9.99999e-01
6.786760719e-01,3.15794e-02,9.99999e-01,9.99707e-01,3.15886e-02,9.99999e-01
6.820694522e-01,3.38027e-02,9.99999e-01,9.99499e-01,3.38196e-02,9.99999e-01
6.854797995e-01,3.61360e-02,9.99999e-01,9.99354e-01,3.61594e-02,9.99999e-01
6.889071985e-01,3.85498e-02,9.99999e-01,9.98439e-01,3.86100e-02,9.99999e-01
6.923517345e-01,4.01356e-02,9.99999e-01,9.74797e-01,4.11733e-02,9.99999e-01
6.958134932e-01,4.32723e-02,9.99999e-01,9.86799e-01,4.38511e-02,9.99999e-01
6.992925606e-01,4.60602e-02,9.99999e-01,9.87464e-01,4.66450e-02,9.99999e-01
7.027890234e-01,4.87897e-02,9.99999e-01,9.84528e-01,4.95563e-02,9.99999e-01
7.063029686e-01,5.19015e-02,9.99999e-01,9.86974e-01,5.25865e-02,9.99999e-01
7.098344834e-01,5.50397e-02,9.99999e-01,9.87497e-01,5.57366e-02,9.99999e-01
7.133836558e-01,5.80284e-02,9.99999e-01,9.83408e-01,5.90075e-02,9.99998e-01
7.169505741e-01,5.45965e-02,9.99999e-01,8.74944e-01,6.24000e-02,9.99997e-01
7.205353270e-01,6.17258e-02,9.99999e-01,9.36450e-01,6.59148e-02,9.99997e-01
7.241380036e-01,6.39866e-02,9.99999e-01,9.19981e-01,6.95522e-02,9.99997e-01
7.277586936e-01,6.79981e-02,9.99999e-01,9.27512e-01,7.33125e-02,9.99998e-01
7.313974871e-01,7.12419e-02,9.99999e-01,9.22874e-01,7.71958e-02,9.99998e-01
7.350544745e-01,7.77157e-02,9.99999e-01,9.57067e-01,8.12019e-02,9.99998e-01
7.387297469e-01,8.26164e-02,9.99999e-01,9.68190e-01,8.53306e-02,9.99999e-01
7.424233956e-01,8.81751e-02,9.99999e-01,9.84300e-01,8.95815e-02,9.99999e-01
7.461355126e-01,9.30573e-02,9.99999e-01,9.90457e-01,9.39538e-02,9.99999e-01
7.498661902e-01,9.80084e-02,9.99999e-01,9.95545e-01,9.84469e-02,9.99999e-01
7.536155211e-01,1.02834e-01,9.99999e-01,9.97813e-01,1.03060e-01,9.99999e-01
7.573835987e-01,1.07670e-01,9.99999e-01,9.98873e-01,1.07791e-01,9.99999e-01
7.611705167e-01,1.12561e-01,9.99999e-01,9.99300e-01,1.12640e-01,9.99999e-01
7.649763693e-01,1.17553e-01,9.99999e-01,9.99561e-01,1.17604e-01,9.99999e-01
7.688012511e-01,1.22646e-01,9.99999e-01,9.99694e-01,1.22683e-01,9.99999e-01
7.726452574e-01,1.27842e-01,9.99999e-01,9.99748e-01,1.27874e-01,9.99999e-01
7.765084837e-01,1.33129e-01,9.99999e-01,9.99642e-01,1.33176e-01,9.99999e-01
7.803910261e-01,1.27504e-01,9.21348e-01,9.98459e-01,1.38587e-01,9.99999e-01
7.842929812e-01,9.63099e-02,6.71544e-01,9.94631e-01,1.44103e-01,9.99999e-01
7.882144461e-01,9.72816e-02,6.56321e-01,9.88958e-01,1.49724e-01,9.99999e-01
7.921555184e-01,1.19537e-01,7.73408e-01,9.93929e-01,1.55447e-01,9.99999e-01
7.961162960e-01,1.34130e-01,8.40485e-01,9.89307e-01,1.61269e-01,9.99999e-01
8.000968774e-01,1.50276e-01,9.10003e-01,9.87643e-01,1.67187e-01,9.99999e-01
8.040973618e-01,1.62899e-01,9.52232e-01,9.87643e-01,1.73200e-01,9.99999e-01
8.081178486e-01,1.70498e-01,9.77771e-01,9.72408e-01,1.79303e-01,9.99998e-01
8.121584379e-01,1.64035e-01,9.93078e-01,8.90312e-01,1.85495e-01,9.99998e-01
8.162192301e-01,1.66832e-01,9.98467e-01,8.71222e-01,1.91771e-01,9.99997e-01
8.203003262e-01,1.85161e-01,9.99976e-01,9.34561e-01,1.98130e-01,9.99997e-01
8.244018279e-01,1.86167e-01,9.99999e-01,9.10053e-01,2.04568e-01,9.99997e-01
8.285238370e-01,1.94371e-01,9.99999e-01,9.20834e-01,2.11081e-01,9.99998e-01
8.326664562e-01,2.00267e-01,9.99999e-01,9.20061e-01,2.17668e-01,9.99998e-01
8.368297885e-01,2.11319e-01,9.99999e-01,9.42027e-01,2.24323e-01,9.99998e-01
8.410139374e-01,2.22985e-01,9.99999e-01,9.65114e-01,2.31045e-01,9.99999e-01
8.452190071e-01,2.33722e-01,9.99999e-01,9.82730e-01,2.37829e-01,9.99999e-01
8.494451021e-01,2.42213e-01,9.99999e-01,9.89947e-01,2.44672e-01,9.99999e-01
8.536923276e-01,2.50073e-01,9.99999e-01,9.94042e-01,2.51572e-01,9.99999e-01
8.579607893e-01,2.57575e-01,9.99999e-01,9.96328e-01,2.58524e-01,9.99999e-01
8.622505932e-01,2.64905e-01,9.99999e-01,9.97665e-01,2.65525e-01,9.99999e-01
8.665618462e-01,2.38384e-01,8.75762e-01,9.98556e-01,2.72571e-01,9.99999e-01
8.708946554e-01,1.04583e-01,3.74537e-01,9.98347e-01,2.79660e-01,9.99999e-01
8.752491287e-01,1.26679e-01,4.42631e-01,9.97789e-01,2.86788e-01,9.99999e-01
8.796253743e-01,1.85443e-01,6.32658e-01,9.96940e-01,2.93951e-01,9.99999e-01
8.840235012e-01,2.35828e-01,7.85735e-01,9.96506e-01,3.01147e-01,9.99999e-01
8.884436187e-01,2.76804e-01,9.08823e-01,9.87362e-01,3.08371e-01,9.99998e-01
8.928858368e-01,2.65954e-01,9.61940e-01,8.75180e-01,3.15621e-01,9.99997e-01
8.973502660e-01,2.52929e-01,9.90615e-01,7.90343e-01,3.22893e-01,9.99996e-01
9.018370173e-01,2.92523e-01,9.98961e-01,8.86790e-01,3.30184e-01,9.99996e-01
9.063462024e-01,2.96375e-01,9.74129e-01,8.99543e-01,3.37491e-01,9.99995e-01
9.108779334e-01,2.75545e-01,9.40729e-01,8.47829e-01,3.44810e-01,9.99995e-01
9.154323231e-01,2.87843e-01,9.85742e-01,8.28575e-01,3.52139e-01,9.99994e-01
9.200094847e-01,2.62205e-01,8.30179e-01,8.63329e-01,3.59474e-01,9.99993e-01
9.246095321e-01,2.20413e-01,7.42680e-01,7.99807e-01,3.66812e-01,9.99989e-01
9.292325798e-01,7.49529e-02,7.94967e-01,2.40605e-01,3.74151e-01,9.99977e-01
9.338787427e-01,5.06690e-02,7.99156e-01,1.59137e-01,3.81488e-01,9.99970e-01
9.385481364e-01,1.59115e-01,8.47129e-01,4.73187e-01,3.88819e-01,9.99970e-01
9.432408771e-01,1.32439e-01,9.02976e-01,3.65900e-01,3.96142e-01,9.99966e-01
9.479570815e-01,9.63632e-02,9.48954e-01,2.50230e-01,4.03454e-01,9.99970e-01
9.526968669e-01,1.37964e-01,9.75071e-01,3.42968e-01,4.10753e-01,9.99977e-01
9.574603512e-01,1.49797e-01,9.89255e-01,3.61625e-01,4.18036e-01,9.99983e-01
9.622476530e-01,1.83058e-01,9.96635e-01,4.31665e-01,4.25300e-01,9.99988e-01
9.670588912e-01,2.65270e-01,9.98990e-01,6.13824e-01,4.32543e-01,9.99992e-01
9.718941857e-01,3.22079e-01,9.99928e-01,7.32438e-01,4.39763e-01,9.99995e-01
9.767536566e-01,3.45037e-01,9.99999e-01,7.71970e-01,4.46957e-01,9.99996e-01
9.816374249e-01,3.74572e-01,9.99999e-01,8.24825e-01,4.54124e-01,9.99997e-01
9.865456120e-01,4.08851e-01,9.99999e-01,8.86379e-01,4.61260e-01,9.99998e-01
9.914783401e-01,4.34665e-01,9.99999e-01,9.28048e-01,4.68364e-01,9.99999e-01
9.964357318e-01,4.56487e-01,9.99999e-01,9.60145e-01,4.75434e-01,9.99999e-01
1.001417910e+00,4.70847e-01,9.99999e-01,9.75912e-01,4.82468e-01,9.99999e-01
1.006425000e+00,4.82709e-01,9.99999e-01,9.86198e-01,4.89464e-01,9.99999e-01
1.011457125e+00,4.92157e-01,9.99999e-01,9.91410e-01,4.96421e-01,9.99999e-01
1.016514411e+00,5.00397e-01,9.99999e-01,9.94161e-01,5.03336e-01,9.99999e-01
1.021596983e+00,5.07763e-01,9.99860e-01,9.95345e-01,5.10207e-01,9.99999e-01
1.026704968e+00,5.09873e-01,9.89730e-01,9.96368e-01,5.17034e-01,9.99999e-01
1.031838492e+00,4.77013e-01,9.12938e-01,9.97359e-01,5.23815e-01,9.99999e-01
1.036997685e+00,3.09833e-02,5.84680e-02,9.98431e-01,5.30548e-01,9.99999e-01
1.042182673e+00,3.16752e-03,5.90461e-03,9.98130e-01,5.37233e-01,9.99999e-01
1.047393587e+00,7.57000e-03,1.39478e-02,9.97520e-01,5.43866e-01,9.99999e-01
1.052630555e+00,2.10865e-06,3.83913e-06,9.96599e-01,5.50449e-01,9.99999e-01
1.057893707e+00,7.85244e-06,1.41410e-05,9.94329e-01,5.56979e-01,9.99999e-01
1.063183176e+00,1.40253e-04,2.50294e-04,9.90685e-01,5.63454e-01,9.99999e-01
1.068499092e+00,1.17059e-03,2.07638e-03,9.84450e-01,5.69875e-01,9.99999e-01
1.073841587e+00,1.07587e-02,1.89240e-02,9.81842e-01,5.76241e-01,9.99999e-01
1.079210795e+00,4.71082e-02,8.24038e-02,9.76770e-01,5.82549e-01,9.99998e-01
1.084606849e+00,1.39097e-01,2.43834e-01,9.65071e-01,5.88800e-01,9.99998e-01
1.090029883e+00,2.71160e-01,4.77841e-01,9.50300e-01,5.94992e-01,9.99997e-01
1.095480033e+00,3.64591e-01,6.94077e-01,8.70367e-01,6.01126e-01,9.99996e-01
1.100957433e+00,3.60352e-01,8.38001e-01,7.04732e-01,6.07199e-01,9.99993e-01
1.106462220e+00,2.41937e-01,9.29416e-01,4.21839e-01,6.13213e-01,9.99986e-01
1.111994531e+00,1.02334e-01,9.73204e-01,1.69092e-01,6.19165e-01,9.99973e-01
1.117554504e+00,3.79157e-02,9.93390e-01,6.09139e-02,6.25056e-01,9.99962e-01
1.123142276e+00,9.08211e-02,9.99564e-01,1.43975e-01,6.30884e-01,9.99955e-01
1.128757988e+00,1.68703e-01,9.99999e-01,2.64998e-01,6.36651e-01,9.99951e-01
1.134401778e+00,7.62045e-02,9.99999e-01,1.18639e-01,6.42354e-01,9.99945e-01
1.140073787e+00,2.84564e-01,9.99999e-01,4.39164e-01,6.47995e-01,9.99956e-01
1.145774156e+00,1.28274e-01,9.99999e-01,1.96273e-01,6.53572e-01,9.99962e-01
1.151503026e+00,1.09326e-01,9.99999e-01,1.65881e-01,6.59086e-01,9.99967e-01
1.157260541e+00,1.35512e-01,9.99999e-01,2.03925e-01,6.64536e-01,9.99975e-01
1.163046844e+00,2.04661e-01,9.99999e-01,3.05504e-01,6.69922e-01,9.99984e-01
1.168862078e+00,2.90383e-01,9.99999e-01,4.30045e-01,6.75243e-01,9.99991e-01
1.174706389e+00,4.03773e-01,9.99999e-01,5.93348e-01,6.80501e-01,9.99995e-01
1.180579921e+00,4.98239e-01,9.99999e-01,7.26620e-01,6.85695e-01,9.99996e-01
1.186482820e+00,5.76187e-01,9.99981e-01,8.34071e-01,6.90825e-01,9.99997e-01
1.192415234e+00,6.04471e-01,9.64809e-01,8.99339e-01,6.95890e-01,9.99997e-01
1.198377311e+00,3.41172e-01,5.24378e-01,9.14512e-01,7.00892e-01,9.99997e-01
1.204369197e+00,4.26828e-27,6.35026e-27,9.19092e-01,7.05829e-01,9.99998e-01
1.210391043e+00,6.31275e-109,9.29083e-109,9.22376e-01,7.10703e-01,9.99998e-01
1.216442998e+00,2.71512e-94,3.95979e-94,9.33561e-01,7.15513e-01,9.99998e-01
1.222525213e+00,7.11426e-93,1.01537e-92,9.47827e-01,7.20260e-01,9.99999e-01
1.228637839e+00,1.09018e-71,1.54199e-71,9.63470e-01,7.24944e-01,9.99999e-01
1.234781029e+00,1.07790e-44,1.49520e-44,9.72745e-01,7.29564e-01,9.99999e-01
1.240954934e+00,1.06146e-29,1.46151e-29,9.82680e-01,7.34122e-01,9.99999e-01
1.247159708e+00,1.90413e-14,2.59872e-14,9.86485e-01,7.38618e-01,9.99999e-01
1.253395507e+00,8.35184e-10,1.13354e-09,9.87994e-01,7.43051e-01,9.99999e-01
1.259662485e+00,6.32982e-06,8.53916e-06,9.88595e-01,7.47423e-01,9.99999e-01
1.265960797e+00,1.14744e-03,1.54456e-03,9.81834e-01,7.51734e-01,9.99999e-01
1.272290601e+00,3.68183e-02,4.98554e-02,9.71629e-01,7.55983e-01,9.99998e-01
1.278652054e+00,3.27631e-02,4.47683e-02,9.44454e-01,7.60172e-01,9.99998e-01
1.285045314e+00,5.38386e-05,7.34509e-05,9.01730e-01,7.64300e-01,9.99997e-01
1.291470541e+00,4.90493e-13,7.06274e-13,8.35201e-01,7.68369e-01,9.99996e-01
1.297927893e+00,7.86289e-06,1.13250e-05,7.91455e-01,7.72378e-01,9.99993e-01
1.304417533e+00,2.46812e-03,4.02038e-03,7.40835e-01,7.76329e-01,9.99988e-01
1.310939621e+00,6.46818e-04,1.00727e-03,7.09463e-01,7.80221e-01,9.99980e-01
1.317494319e+00,2.95178e-37,4.61131e-37,6.89502e-01,7.84055e-01,9.99966e-01
1.324081790e+00,1.39942e-24,2.28520e-24,5.77365e-01,7.87832e-01,9.99945e-01
1.330702199e+00,7.02847e-15,1.86516e-14,1.79326e-01,7.91551e-01,9.99909e-01
1.337355710e+00,6.29150e-15,2.69699e-13,6.96823e-03,7.95215e-01,9.99827e-01
1.344042489e+00,5.64386e-16,1.34555e-13,1.59097e-04,7.98822e-01,9.99631e-01
1.350762701e+00,1.53137e-24,9.36553e-15,2.14724e-11,8.02374e-01,9.99411e-01
1.357516515e+00,9.00229e-24,4.28813e-09,1.28736e-16,8.05871e-01,9.99271e-01
1.364304097e+00,1.06842e-15,1.18350e-06,1.86153e-10,8.09314e-01,9.99219e-01
1.371125618e+00,1.83857e-09,9.51908e-04,7.98363e-07,8.12703e-01,9.99212e-01
1.377981246e+00,1.38976e-08,2.49140e-03,2.65490e-06,8.16039e-01,9.99154e-01
1.384871152e+00,2.31982e-10,3.03029e-02,5.11828e-09,8.19323e-01,9.99177e-01
1.391795508e+00,1.23831e-11,3.98003e-02,1.70073e-10,8.22554e-01,9.99302e-01
1.398754485e+00,3.03405e-09,1.31745e-01,2.13445e-08,8.25734e-01,9.99400e-01
1.405748258e+00,5.86960e-09,2.28104e-01,2.36821e-08,8.28863e-01,9.99462e-01
1.412776999e+00,1.13937e-08,3.90409e-01,2.63244e-08,8.31942e-01,9.99568e-01
1.419840884e+00,2.29369e-08,3.62183e-01,5.27773e-08,8.34971e-01,9.99677e-01
1.426940089e+00,1.76633e-06,1.44028e-02,6.34531e-06,8.37951e-01,9.99800e-01
1.434074789e+00,0.00000e+00,0.00000e+00,5.54512e-05,8.40882e-01,9.99875e-01
1.441245163e+00,0.00000e+00,0.00000e+00,3.32492e-04,8.43765e-01,9.99902e-01
1.448451389e+00,0.00000e+00,0.00000e+00,4.04957e-03,8.46602e-01,9.99919e-01
1.455693646e+00,0.00000e+00,0.00000e+00,2.30829e-02,8.49391e-01,9.99933e-01
1.462972114e+00,0.00000e+00,0.00000e+00,3.36179e-02,8.52134e-01,9.99942e-01
1.470286975e+00,1.99062e-181,2.60287e-180,1.98940e-02,8.54831e-01,9.99948e-01
