#,Wave/freq,Total,CO2,H2O,Rayleigh,CIA
4.000000000e-01,4.89459e-05,9.99999e-01,9.99980e-01,4.89468e-05,9.99999e-01
4.020000000e-01,5.95588e-05,9.99999e-01,9.99987e-01,5.95595e-05,9.99999e-01
4.040100000e-01,7.21779e-05,9.99999e-01,9.99994e-01,7.21783e-05,9.99999e-01
4.060300500e-01,8.71390e-05,9.99999e-01,9.99998e-01,8.71391e-05,9.99999e-01
4.080602003e-01,1.04810e-04,9.99999e-01,9.99999e-01,1.04810e-04,9.99999e-01
4.101005013e-01,1.25606e-04,9.99999e-01,9.99999e-01,1.25606e-04,9.99999e-01
4.121510038e-01,1.49991e-04,9.99999e-01,9.99998e-01,1.49991e-04,9.99999e-01
4.142117588e-01,1.78482e-04,9.99999e-01,9.99994e-01,1.78483e-04,9.99999e-01
4.162828176e-01,2.11654e-04,9.99999e-01,9.99975e-01,2.11659e-04,9.99999e-01
4.183642317e-01,2.50155e-04,9.99999e-01,9.99985e-01,2.50158e-04,9.99999e-01
4.204560528e-01,2.94683e-04,9.99999e-01,9.99990e-01,2.94686e-04,9.99999e-01
4.225583331e-01,3.46017e-04,9.99999e-01,9.99996e-01,3.46018e-04,9.99999e-01
4.246711247e-01,4.05003e-04,9.99999e-01,9.99996e-01,4.05004e-04,9.99999e-01
4.267944804e-01,4.72573e-04,9.99999e-01,9.99995e-01,4.72575e-04,9.99999e-01
4.289284528e-01,5.49739e-04,9.99999e-01,9.99996e-01,5.49741e-04,9.99999e-01
4.310730950e-01,6.37599e-04,9.99999e-01,9.99998e-01,6.37600e-04,9.99999e-01
4.332284605e-01,7.37337e-04,9.99999e-01,9.99999e-01,7.37337e-04,9.99999e-01
4.353946028e-01,8.50232e-04,9.99999e-01,9.99999e-01,8.50232e-04,9.99999e-01
4.375715758e-01,9.77655e-04,9.99999e-01,9.99997e-01,9.77658e-04,9.99999e-01
4.397594337e-01,1.12106e-03,9.99999e-01,9.99978e-01,1.12108e-03,9.99999e-01
4.419582309e-01,1.28194e-03,9.99999e-01,9.99892e-01,1.28208e-03,9.99999e-01
4.441680220e-01,1.46219e-03,9.99999e-01,9.99915e-01,1.46231e-03,9.99999e-01
4.463888621e-01,1.66341e-03,9.99999e-01,9.99912e-01,1.66356e-03,9.99999e-01
4.486208064e-01,1.88758e-03,9.99999e-01,9.99945e-01,1.88769e-03,9.99999e-01
4.508639105e-01,2.13661e-03,9.99999e-01,9.99974e-01,2.13667e-03,9.99999e-01
4.531182300e-01,2.41255e-03,9.99999e-01,9.99989e-01,2.41258e-03,9.99999e-01
4.553838212e-01,2.71757e-03,9.99999e-01,9.99992e-01,2.71759e-03,9.99999e-01
4.576607403e-01,3.05396e-03,9.99999e-01,9.99996e-01,3.05397e-03,9.99999e-01
4.599490440e-01,3.42408e-03,9.99999e-01,9.99997e-01,3.42409e-03,9.99999e-01
4.622487892e-01,3.83040e-03,9.99999e-01,9.99999e-01,3.83040e-03,9.99999e-01
4.645600332e-01,4.27543e-03,9.99999e-01,9.99997e-01,4.27544e-03,9.99999e-01
4.668828333e-01,4.76172e-03,9.99999e-01,9.99973e-01,4.76184e-03,9.99999e-01
4.692172475e-01,5.29201e-03,9.99999e-01,9.99944e-01,5.29230e-03,9.99999e-01
4.715633337e-01,5.86938e-03,9.99999e-01,9.99963e-01,5.86959e-03,9.99999e-01
4.739211504e-01,6.49634e-03,9.99999e-01,9.99965e-01,6.49656e-03,9.99999e-01
4.762907561e-01,7.17597e-03,9.99999e-01,9.99981e-01,7.17610e-03,9.99999e-01
4.786722099e-01,7.91110e-03,9.99999e-01,9.99992e-01,7.91116e-03,9.99999e-01
4.810655710e-01,8.70470e-03,9.99999e-01,9.99997e-01,8.70472e-03,9.99999e-01
4.834708988e-01,9.55962e-03,9.99999e-01,9.99978e-01,9.55982e-03,9.99999e-01
4.858882533e-01,1.04791e-02,9.99999e-01,9.99960e-01,1.04795e-02,9.99999e-01
4.883176946e-01,1.14665e-02,9.99999e-01,9.99967e-01,1.14669e-02,9.99999e-01
4.907592831e-01,1.25246e-02,9.99999e-01,9.99970e-01,1.25249e-02,9.99999e-01
4.932130795e-01,1.36565e-02,9.99999e-01,9.99978e-01,1.36568e-02,9.99999e-01
4.956791449e-01,1.48654e-02,9.99999e-01,9.99988e-01,1.48655e-02,9.99999e-01
4.981575406e-01,1.61533e-02,9.99999e-01,9.99944e-01,1.61541e-02,9.99999e-01
5.006483283e-01,1.75232e-02,9.99999e-01,9.99857e-01,1.75257e-02,9.99999e-01
5.031515699e-01,1.89694e-02,9.99999e-01,9.99277e-01,1.89831e-02,9.99999e-01
5.056673278e-01,2.05214e-02,9.99999e-01,9.99618e-01,2.05293e-02,9.99999e-01
5.081956644e-01,2.21564e-02,9.99999e-01,9.99518e-01,2.21671e-02,9.99999e-01
5.107366428e-01,2.38915e-02,9.99999e-01,9.99674e-01,2.38993e-02,9.99999e-01
5.132903260e-01,2.57238e-02,9.99999e-01,9.99813e-01,2.57285e-02,9.99999e-01
5.158567776e-01,2.76554e-02,9.99999e-01,9.99921e-01,2.76575e-02,9.99999e-01
5.184360615e-01,2.96878e-02,9.99999e-01,9.99968e-01,2.96887e-02,9.99999e-01
5.210282418e-01,3.18241e-02,9.99999e-01,9.99987e-01,3.18245e-02,9.99999e-01
5.236333830e-01,3.40655e-02,9.99999e-01,9.99952e-01,3.40671e-02,9.99999e-01
5.262515499e-01,3.64177e-02,9.99999e-01,9.99970e-01,3.64188e-02,9.99999e-01
5.288828077e-01,3.88805e-02,9.99999e-01,9.99972e-01,3.88815e-02,9.99999e-01
5.315272217e-01,4.14561e-02,9.99999e-01,9.99975e-01,4.14571e-02,9.99999e-01
5.341848578e-01,4.41467e-02,9.99999e-01,9.99983e-01,4.41474e-02,9.99999e-01
5.368557821e-01,4.69513e-02,9.99999e-01,9.99944e-01,4.69539e-02,9.99999e-01
5.395400610e-01,4.98682e-02,9.99999e-01,9.99802e-01,4.98780e-02,9.99999e-01
5.422377613e-01,5.29076e-02,9.99999e-01,9.99743e-01,5.29211e-02,9.99999e-01
5.449489501e-01,5.60708e-02,9.99999e-01,9.99761e-01,5.60842e-02,9.99999e-01
5.476736949e-01,5.93557e-02,9.99999e-01,9.99788e-01,5.93682e-02,9.99999e-01
5.504120634e-01,6.27643e-02,9.99999e-01,9.99846e-01,6.27739e-02,9.99999e-01
5.531641237e-01,6.62968e-02,9.99999e-01,9.99922e-01,6.63019e-02,9.99999e-01
5.559299443e-01,6.99500e-02,9.99999e-01,9.99962e-01,6.99526e-02,9.99999e-01
5.587095940e-01,7.37245e-02,9.99999e-01,9.99976e-01,7.37262e-02,9.99999e-01
5.615031420e-01,7.76207e-02,9.99999e-01,9.99973e-01,7.76227e-02,9.99999e-01
5.643106577e-01,8.16398e-02,9.99999e-01,9.99970e-01,8.16421e-02,9.99999e-01
5.671322110e-01,8.57535e-02,9.99999e-01,9.99643e-01,8.57841e-02,9.99999e-01
5.699678720e-01,9.00139e-02,9.99999e-01,9.99619e-01,9.00481e-02,9.99999e-01
5.728177114e-01,9.43962e-02,9.99999e-01,9.99604e-01,9.44336e-02,9.99999e-01
5.756818000e-01,9.89037e-02,9.99999e-01,9.99636e-01,9.89396e-02,9.99999e-01
5.785602090e-01,1.03532e-01,9.99999e-01,9.99683e-01,1.03565e-01,9.99999e-01
5.814530100e-01,1.08275e-01,9.99999e-01,9.99681e-01,1.08309e-01,9.99999e-01
5.843602750e-01,1.13128e-01,9.99999e-01,9.99621e-01,1.13171e-01,9.99999e-01
5.872820764e-01,1.17762e-01,9.99999e-01,9.96738e-01,1.18148e-01,9.99999e-01
5.902184868e-01,1.22751e-01,9.99999e-01,9.96044e-01,1.23239e-01,9.99999e-01
5.931695792e-01,1.28083e-01,9.99999e-01,9.97205e-01,1.28442e-01,9.99999e-01
5.961354271e-01,1.33346e-01,9.99999e-01,9.96936e-01,1.33756e-01,9.99999e-01
5.991161043e-01,1.38867e-01,9.99999e-01,9.97764e-01,1.39178e-01,9.99999e-01
6.021116848e-01,1.44522e-01,9.99999e-01,9.98730e-01,1.44706e-01,9.99999e-01
6.051222432e-01,1.50241e-01,9.99999e-01,9.99357e-01,1.50338e-01,9.99999e-01
6.081478544e-01,1.56028e-01,9.99999e-01,9.99722e-01,1.56071e-01,9.99999e-01
6.111885937e-01,1.61885e-01,9.99999e-01,9.99882e-01,1.61904e-01,9.99999e-01
6.142445367e-01,1.67824e-01,9.99999e-01,9.99947e-01,1.67833e-01,9.99999e-01
6.173157594e-01,1.73850e-01,9.99999e-01,9.99970e-01,1.73855e-01,9.99999e-01
6.204023382e-01,1.79964e-01,9.99999e-01,9.99975e-01,1.79968e-01,9.99999e-01
6.235043498e-01,1.86149e-01,9.99999e-01,9.99892e-01,1.86169e-01,9.99999e-01
6.266218716e-01,1.92345e-01,9.99999e-01,9.99430e-01,1.92455e-01,9.99999e-01
6.297549810e-01,1.98781e-01,9.99999e-01,9.99790e-01,1.98822e-01,9.99999e-01
6.329037559e-01,2.05183e-01,9.99999e-01,9.99586e-01,2.05268e-01,9.99999e-01
6.360682746e-01,2.11715e-01,9.99999e-01,9.99648e-01,2.11790e-01,9.99999e-01
6.392486160e-01,2.18284e-01,9.99999e-01,9.99544e-01,2.18384e-01,9.99999e-01
6.424448591e-01,2.24909e-01,9.99999e-01,9.99391e-01,2.25046e-01,9.99999e-01
6.456570834e-01,2.31120e-01,9.99999e-01,9.97175e-01,2.31775e-01,9.99999e-01
6.488853688e-01,2.38071e-01,9.99999e-01,9.97927e-01,2.38565e-01,9.99999e-01
6.521297956e-01,2.44897e-01,9.99999e-01,9.97887e-01,2.45415e-01,9.99999e-01
6.553904446e-01,2.51790e-01,9.99999e-01,9.97899e-01,2.52320e-01,9.99999e-01
6.586673968e-01,2.58811e-01,9.99999e-01,9.98199e-01,2.59278e-01,9.99999e-01
6.619607338e-01,2.66007e-01,9.99999e-01,9.98958e-01,2.66284e-01,9.99999e-01
6.652705375e-01,2.73171e-01,9.99999e-01,9.99397e-01,2.73335e-01,9.99999e-01
6.685968902e-01,2.80350e-01,9.99999e-01,9.99719e-01,2.80429e-01,9.99999e-01
6.719398746e-01,2.87523e-01,9.99999e-01,9.99869e-01,2.87560e-01,9.99999e-01
6.752995740e-01,2.94707e-01,9.99999e-01,9.99929e-01,2.94727e-01,9.99999e-01
6.786760719e-01,3.01896e-01,9.99999e-01,9.99898e-01,3.01926e-01,9.99999e-01
6.820694522e-01,3.09100e-01,9.99999e-01,9.99826e-01,3.09153e-01,9.99999e-01
6.854797995e-01,3.16335e-01,9.99999e-01,9.99775e-01,3.16406e-01,9.99999e-01
6.889071985e-01,3.23505e-01,9.99999e-01,9.99458e-01,3.23680e-01,9.99999e-01
6.923517345e-01,3.28053e-01,9.99999e-01,9.91176e-01,3.30973e-01,9.99999e-01
6.958134932e-01,3.36721e-01,9.99999e-01,9.95388e-01,3.38281e-01,9.99999e-01
6.992925606e-01,3.44092e-01,9.99999e-01,9.95633e-01,3.45601e-01,9.99999e-01
7.027890234e-01,3.51026e-01,9.99999e-01,9.94603e-01,3.52931e-01,9.99999e-01
7.063029686e-01,3.58632e-01,9.99999e-01,9.95462e-01,3.60267e-01,9.99999e-01
7.098344834e-01,3.66005e-01,9.99999e-01,9.95646e-01,3.67605e-01,9.99999e-01
7.133836558e-01,3.72773e-01,9.99999e-01,9.94210e-01,3.74944e-01,9.99999e-01
7.169505741e-01,3.64777e-01,9.99999e-01,9.54214e-01,3.82280e-01,9.99998e-01
7.205353270e-01,3.80760e-01,9.99999e-01,9.77282e-01,3.89611e-01,9.99998e-01
7.241380036e-01,3.85542e-01,9.99999e-01,9.71303e-01,3.96933e-01,9.99998e-01
7.277586936e-01,3.93759e-01,9.99999e-01,9.74064e-01,4.04244e-01,9.99998e-01
7.313974871e-01,4.00192e-01,9.99999e-01,9.72424e-01,4.11541e-01,9.99999e-01
7.350544745e-01,4.12479e-01,9.99999e-01,9.84856e-01,4.18822e-01,9.99999e-01
7.387297469e-01,4.21328e-01,9.99999e-01,9.88837e-01,4.26084e-01,9.99999e-01
7.424233956e-01,4.30952e-01,9.99999e-01,9.94523e-01,4.33325e-01,9.99999e-01
7.461355126e-01,4.39079e-01,9.99999e-01,9.96679e-01,4.40542e-01,9.99999e-01
7.498661902e-01,4.47040e-01,9.99999e-01,9.98452e-01,4.47733e-01,9.99999e-01
7.536155211e-01,4.54551e-01,9.99999e-01,9.99240e-01,4.54896e-01,9.99999e-01
7.573835987e-01,4.61849e-01,9.99999e-01,9.99609e-01,4.62029e-01,9.99999e-01
7.611705167e-01,4.69016e-01,9.99999e-01,9.99756e-01,4.69130e-01,9.99999e-01
7.649763693e-01,4.76124e-01,9.99999e-01,9.99847e-01,4.76196e-01,9.99999e-01
7.688012511e-01,4.83175e-01,9.99999e-01,9.99893e-01,4.83226e-01,9.99999e-01
7.726452574e-01,4.90175e-01,9.99999e-01,9.99912e-01,4.90218e-01,9.99999e-01
7.765084837e-01,4.97109e-01,9.99999e-01,9.99875e-01,4.97170e-01,9.99999e-01
7.803910261e-01,4.87582e-01,9.67770e-01,9.99465e-01,5.04080e-01,9.99999e-01
7.842929812e-01,4.41167e-01,8.64967e-01,9.98135e-01,5.10947e-01,9.99999e-01
7.882144461e-01,4.41674e-01,8.56197e-01,9.96156e-01,5.17769e-01,9.99999e-01
7.921555184e-01,4.78211e-01,9.13553e-01,9.97889e-01,5.24545e-01,9.99999e-01
7.961162960e-01,4.98202e-01,9.41223e-01,9.96278e-01,5.31273e-01,9.99999e-01
8.000968774e-01,5.18351e-01,9.67713e-01,9.95698e-01,5.37952e-01,9.99999e-01
8.040973618e-01,5.33098e-01,9.83136e-01,9.95697e-01,5.44580e-01,9.99999e-01
8.081178486e-01,5.41593e-01,9.92229e-01,9.90329e-01,5.51157e-01,9.99999e-01
8.121584379e-01,5.34227e-01,9.97591e-01,9.60233e-01,5.57681e-01,9.99999e-01
8.162192301e-01,5.37285e-01,9.99467e-01,9.52876e-01,5.64151e-01,9.99998e-01
8.203003262e-01,5.57027e-01,9.99991e-01,9.76278e-01,5.70566e-01,9.99998e-01
8.244018279e-01,5.57793e-01,9.99999e-01,9.66837e-01,5.76925e-01,9.99998e-01
8.285238370e-01,5.66698e-01,9.99999e-01,9.71659e-01,5.83227e-01,9.99998e-01
8.326664562e-01,5.72572e-01,9.99999e-01,9.71330e-01,5.89472e-01,9.99999e-01
8.368297885e-01,5.83416e-01,9.99999e-01,9.79448e-01,5.95658e-01,9.99999e-01
8.410139374e-01,5.94409e-01,9.99999e-01,9.87743e-01,6.01785e-01,9.99999e-01
8.452190071e-01,6.04189e-01,9.99999e-01,9.93972e-01,6.07852e-01,9.99999e-01
8.494451021e-01,6.11712e-01,9.99999e-01,9.96502e-01,6.13859e-01,9.99999e-01
8.536923276e-01,6.18521e-01,9.99999e-01,9.97929e-01,6.19804e-01,9.99999e-01
8.579607893e-01,6.24891e-01,9.99999e-01,9.98725e-01,6.25688e-01,9.99999e-01
8.622505932e-01,6.30999e-01,9.99999e-01,9.99189e-01,6.31510e-01,9.99999e-01
8.665618462e-01,5.90934e-01,9.27735e-01,9.99498e-01,6.37270e-01,9.99999e-01
8.708946554e-01,4.44461e-01,6.91647e-01,9.99426e-01,6.42967e-01,9.99999e-01
8.752491287e-01,4.81627e-01,7.43117e-01,9.99232e-01,6.48601e-01,9.99999e-01
8.796253743e-01,5.55215e-01,8.49607e-01,9.98938e-01,6.54171e-01,9.99999e-01
8.840235012e-01,6.05522e-01,9.19004e-01,9.98787e-01,6.59678e-01,9.99999e-01
8.884436187e-01,6.40530e-01,9.67254e-01,9.95590e-01,6.65121e-01,9.99999e-01
8.928858368e-01,6.31376e-01,9.86613e-01,9.54321e-01,6.70500e-01,9.99998e-01
8.973502660e-01,6.20061e-01,9.96730e-01,9.20452e-01,6.75815e-01,9.99998e-01
9.018370173e-01,6.52589e-01,9.99638e-01,9.58524e-01,6.81066e-01,9.99998e-01
9.063462024e-01,6.55317e-01,9.90809e-01,9.63514e-01,6.86252e-01,9.99998e-01
9.108779334e-01,6.38837e-01,9.78965e-01,9.43628e-01,6.91375e-01,9.99998e-01
9.154323231e-01,6.48821e-01,9.95017e-01,9.36204e-01,6.96434e-01,9.99997e-01
9.200094847e-01,6.21085e-01,9.29985e-01,9.49652e-01,7.01428e-01,9.99997e-01
9.246095321e-01,5.88264e-01,9.01165e-01,9.22494e-01,7.06359e-01,9.99995e-01
9.292325798e-01,3.85244e-01,9.21761e-01,5.82782e-01,7.11226e-01,9.99991e-01
9.338787427e-01,3.32182e-01,9.24184e-01,4.97931e-01,7.16029e-01,9.99989e-01
9.385481364e-01,5.15042e-01,9.43727e-01,7.54743e-01,7.20769e-01,9.99989e-01
9.432408771e-01,4.74692e-01,9.65158e-01,6.76692e-01,7.25446e-01,9.99988e-01
9.479570815e-01,4.19075e-01,9.81979e-01,5.84009e-01,7.30060e-01,9.99989e-01
9.526968669e-01,4.86386e-01,9.91269e-01,6.67433e-01,7.34611e-01,9.99992e-01
9.574603512e-01,5.07598e-01,9.96257e-01,6.89197e-01,7.39100e-01,9.99993e-01
9.622476530e-01,5.48479e-01,9.98831e-01,7.38488e-01,7.43527e-01,9.99995e-01
9.670588912e-01,6.27808e-01,9.99649e-01,8.39718e-01,7.47892e-01,9.99997e-01
9.718941857e-01,6.74377e-01,9.99974e-01,8.96565e-01,7.52196e-01,9.99998e-01
9.767536566e-01,6.90903e-01,9.99999e-01,9.13363e-01,7.56438e-01,9.99998e-01
9.816374249e-01,7.11207e-01,9.99999e-01,9.35035e-01,7.60621e-01,9.99998e-01
9.865456120e-01,7.33318e-01,9.99999e-01,9.58908e-01,7.64743e-01,9.99999e-01
9.914783401e-01,7.49129e-01,9.99999e-01,9.74406e-01,7.68805e-01,9.99999e-01
9.964357318e-01,7.61975e-01,9.99999e-01,9.85982e-01,7.72808e-01,9.99999e-01
1.001417910e+00,7.70210e-01,9.99999e-01,9.91576e-01,7.76752e-01,9.99999e-01
1.006425000e+00,7.76885e-01,9.99999e-01,9.95192e-01,7.80638e-01,9.99999e-01
1.011457125e+00,7.82123e-01,9.99999e-01,9.97012e-01,7.84466e-01,9.99999e-01
1.016514411e+00,7.86638e-01,9.99999e-01,9.97971e-01,7.88236e-01,9.99999e-01
1.021596983e+00,7.90632e-01,9.99951e-01,9.98383e-01,7.91950e-01,9.99999e-01
1.026704968e+00,7.91756e-01,9.96412e-01,9.98739e-01,7.95607e-01,9.99999e-01
1.031838492e+00,7.64496e-01,9.57417e-01,9.99083e-01,7.99208e-01,9.99999e-01
1.036997685e+00,1.27644e-01,1.59076e-01,9.99455e-01,8.02755e-01,9.99999e-01
1.042182673e+00,1.04744e-01,1.29990e-01,9.99351e-01,8.06246e-01,9.99999e-01
1.047393587e+00,1.22065e-01,1.50871e-01,9.99139e-01,8.09683e-01,9.99999e-01
1.052630555e+00,3.86402e-03,4.75653e-03,9.98819e-01,8.13066e-01,9.99999e-01
1.057893707e+00,9.62745e-03,1.18084e-02,9.98030e-01,8.16397e-01,9.99999e-01
1.063183176e+00,3.10652e-02,3.79882e-02,9.96759e-01,8.19674e-01,9.99999e-01
1.068499092e+00,8.48564e-02,1.03593e-01,9.94577e-01,8.22900e-01,9.99999e-01
1.073841587e+00,1.95948e-01,2.38498e-01,9.93657e-01,8.26075e-01,9.99999e-01
1.079210795e+00,3.32124e-01,4.03536e-01,9.91874e-01,8.29198e-01,9.99999e-01
1.084606849e+00,4.99185e-01,6.06906e-01,9.87725e-01,8.32271e-01,9.99999e-01
1.090029883e+00,6.33554e-01,7.71690e-01,9.82424e-01,8.35295e-01,9.99998e-01
1.095480033e+00,7.03300e-01,8.80104e-01,9.52809e-01,8.38270e-01,9.99998e-01
1.100957433e+00,6.99982e-01,9.40338e-01,8.84383e-01,8.41196e-01,9.99997e-01
1.106462220e+00,6.03014e-01,9.74880e-01,7.32179e-01,8.44074e-01,9.99994e-01
1.111994531e+00,4.36176e-01,9.90615e-01,5.19569e-01,8.46905e-01,9.99990e-01
1.117554504e+00,2.94671e-01,9.97699e-01,3.47459e-01,8.49689e-01,9.99986e-01
1.123142276e+00,3.93448e-01,9.99848e-01,4.61602e-01,8.52428e-01,9.99984e-01
1.128757988e+00,5.19910e-01,9.99999e-01,6.08006e-01,8.55120e-01,9.99982e-01
1.134401778e+00,2.97801e-01,9.99999e-01,3.47188e-01,8.57768e-01,9.99980e-01
1.140073787e+00,6.38737e-01,9.99999e-01,7.42408e-01,8.60371e-01,9.99984e-01
1.145774156e+00,4.64656e-01,9.99999e-01,5.38469e-01,8.62931e-01,9.99986e-01
1.151503026e+00,4.34755e-01,9.99999e-01,5.02352e-01,8.65447e-01,9.99988e-01
1.157260541e+00,4.87168e-01,9.99999e-01,5.61309e-01,8.67921e-01,9.99991e-01
1.163046844e+00,5.67681e-01,9.99999e-01,6.52244e-01,8.70353e-01,9.99994e-01
1.168862078e+00,6.48279e-01,9.99999e-01,7.42807e-01,8.72743e-01,9.99996e-01
1.174706389e+00,7.28397e-01,9.99999e-01,8.32366e-01,8.75093e-01,9.99998e-01
1.180579921e+00,7.84629e-01,9.99999e-01,8.94263e-01,8.77402e-01,9.99998e-01
1.186482820e+00,8.25844e-01,9.99993e-01,9.38815e-01,8.79672e-01,9.99998e-01
1.192415234e+00,8.39288e-01,9.87248e-01,9.63837e-01,8.81902e-01,9.99998e-01
1.198377311e+00,4.84757e-01,5.62721e-01,9.69443e-01,8.84094e-01,9.99998e-01
1.204369197e+00,7.30486e-11,8.38337e-11,9.71057e-01,8.86248e-01,9.99999e-01
1.210391043e+00,3.14430e-39,3.59501e-39,9.72305e-01,8.88365e-01,9.99999e-01
1.216442998e+00,3.71572e-34,4.23496e-34,9.76384e-01,8.90444e-01,9.99999e-01
1.222525213e+00,1.15406e-33,1.30551e-33,9.81572e-01,8.92487e-01,9.99999e-01
1.228637839e+00,4.50983e-26,5.08710e-26,9.87171e-01,8.94495e-01,9.99999e-01
1.234781029e+00,5.80431e-17,6.50149e-17,9.90457e-01,8.96467e-01,9.99999e-01
1.240954934e+00,1.81008e-11,2.02270e-11,9.93957e-01,8.98404e-01,9.99999e-01
1.247159708e+00,1.96491e-06,2.18873e-06,9.95291e-01,9.00308e-01,9.99999e-01
1.253395507e+00,3.83078e-04,4.25955e-04,9.95820e-01,9.02177e-01,9.99999e-01
1.259662485e+00,1.05260e-02,1.16810e-02,9.96030e-01,9.04013e-01,9.99999e-01
1.265960797e+00,6.84589e-02,7.59645e-02,9.93660e-01,9.05817e-01,9.99999e-01
1.272290601e+00,3.03032e-01,3.36957e-01,9.90062e-01,9.07589e-01,9.99999e-01
1.278652054e+00,2.58164e-01,2.88452e-01,9.80326e-01,9.09329e-01,9.99999e-01
1.285045314e+00,7.48963e-03,8.35314e-03,9.69218e-01,9.11037e-01,9.99998e-01
1.291470541e+00,2.62337e-05,2.99341e-05,9.39150e-01,9.12716e-01,9.99998e-01
1.297927893e+00,4.95226e-03,5.64304e-03,9.21317e-01,9.14364e-01,9.99997e-01
1.304417533e+00,1.15087e-01,1.38134e-01,8.99883e-01,9.15982e-01,9.99995e-01
1.310939621e+00,2.88797e-02,3.38392e-02,8.86240e-01,9.17571e-01,9.99992e-01
1.317494319e+00,5.50364e-14,6.46425e-14,8.77173e-01,9.19132e-01,9.99988e-01
1.324081790e+00,9.58743e-10,1.14359e-09,8.22013e-01,9.20664e-01,9.99980e-01
1.330702199e+00,6.61474e-06,1.05809e-05,4.64859e-01,9.22168e-01,9.99968e-01
1.337355710e+00,3.34291e-06,1.30405e-05,1.38786e-01,9.23645e-01,9.99939e-01
1.344042489e+00,5.31578e-07,3.92896e-06,8.80954e-03,9.25095e-01,9.99871e-01
1.350762701e+00,1.18701e-09,6.61914e-06,4.95800e-05,9.26519e-01,9.99795e-01
1.357516515e+00,1.72494e-09,4.73880e-04,9.09296e-07,9.27917e-01,9.99746e-01
1.364304097e+00,1.65426e-06,6.91664e-03,1.27040e-04,9.29289e-01,9.99728e-01
1.371125618e+00,2.66828e-04,7.45843e-02,2.38075e-03,9.30636e-01,9.99726e-01
1.377981246e+00,8.25403e-04,1.19294e-01,5.80336e-03,9.31959e-01,9.99706e-01
1.384871152e+00,5.76535e-05,2.90159e-01,1.70174e-04,9.33257e-01,9.99714e-01
1.391795508e+00,6.37223e-05,3.18722e-01,1.71887e-04,9.34531e-01,9.99757e-01
1.398754485e+00,3.66220e-04,4.93812e-01,7.40512e-04,9.35782e-01,9.99791e-01
1.405748258e+00,4.12759e-04,5.94739e-01,6.76024e-04,9.37009e-01,9.99813e-01
1.412776999e+00,4.97964e-04,7.20167e-01,6.88253e-04,9.38214e-01,9.99849e-01
1.419840884e+00,8.60702e-04,6.49025e-01,1.15689e-03,9.39397e-01,9.99887e-01
1.426940089e+00,1.48218e-03,6.16100e-02,4.91505e-03,9.40558e-01,9.99930e-01
1.434074789e+00,0.00000e+00,0.00000e+00,1.73467e-02,9.41697e-01,9.99956e-01
1.441245163e+00,0.00000e+00,0.00000e+00,4.31470e-02,9.42815e-01,9.99966e-01
1.448451389e+00,0.00000e+00,0.00000e+00,1.07903e-01,9.43912e-01,9.99971e-01
1.455693646e+00,1.30721e-314,3.00367e-314,2.26877e-01,9.44989e-01,9.99976e-01
1.462972114e+00,1.16882e-152,2.68267e-152,2.78239e-01,9.46046e-01,9.99979e-01
1.470286975e+00,2.30197e-64,5.61217e-64,2.25090e-01,9.47083e-01,9.99981e-01
