#,Wave/freq,Total,CO2,H2O,Rayleigh,CIA
4.000000000e-01,4.59970e-08,9.99999e-01,9.99966e-01,4.59985e-08,9.99999e-01
4.020000000e-01,6.42404e-08,9.99999e-01,9.99979e-01,6.42417e-08,9.99999e-01
4.040100000e-01,8.90998e-08,9.99999e-01,9.99990e-01,8.91005e-08,9.99999e-01
4.060300500e-01,1.22783e-07,9.99999e-01,9.99997e-01,1.22783e-07,9.99999e-01
4.080602003e-01,1.68130e-07,9.99999e-01,9.99998e-01,1.68130e-07,9.99999e-01
4.101005013e-01,2.28799e-07,9.99999e-01,9.99999e-01,2.28799e-07,9.99999e-01
4.121510038e-01,3.09472e-07,9.99999e-01,9.99998e-01,3.09472e-07,9.99999e-01
4.142117588e-01,4.16097e-07,9.99999e-01,9.99990e-01,4.16100e-07,9.99999e-01
4.162828176e-01,5.56182e-07,9.99999e-01,9.99958e-01,5.56205e-07,9.99999e-01
4.183642317e-01,7.39216e-07,9.99999e-01,9.99975e-01,7.39234e-07,9.99999e-01
4.204560528e-01,9.76972e-07,9.99999e-01,9.99984e-01,9.76987e-07,9.99999e-01
4.225583331e-01,1.28411e-06,9.99999e-01,9.99994e-01,1.28411e-06,9.99999e-01
4.246711247e-01,1.67869e-06,9.99999e-01,9.99994e-01,1.67870e-06,9.99999e-01
4.267944804e-01,2.18294e-06,9.99999e-01,9.99993e-01,2.18295e-06,9.99999e-01
4.289284528e-01,2.82397e-06,9.99999e-01,9.99994e-01,2.82398e-06,9.99999e-01
4.310730950e-01,3.63471e-06,9.99999e-01,9.99997e-01,3.63472e-06,9.99999e-01
4.332284605e-01,4.65495e-06,9.99999e-01,9.99998e-01,4.65495e-06,9.99999e-01
4.353946028e-01,5.93249e-06,9.99999e-01,9.99999e-01,5.93249e-06,9.99999e-01
4.375715758e-01,7.52449e-06,9.99999e-01,9.99995e-01,7.52452e-06,9.99999e-01
4.397594337e-01,9.49872e-06,9.99999e-01,9.99962e-01,9.49907e-06,9.99999e-01
4.419582309e-01,1.19345e-05,9.99999e-01,9.99813e-01,1.19367e-05,9.99999e-01
4.441680220e-01,1.49302e-05,9.99999e-01,9.99858e-01,1.49323e-05,9.99999e-01
4.463888621e-01,1.85946e-05,9.99999e-01,9.99851e-01,1.85973e-05,9.99999e-01
4.486208064e-01,2.30596e-05,9.99999e-01,9.99908e-01,2.30617e-05,9.99999e-01
4.508639105e-01,2.84752e-05,9.99999e-01,9.99956e-01,2.84764e-05,9.99999e-01
4.531182300e-01,3.50157e-05,9.99999e-01,9.99982e-01,3.50163e-05,9.99999e-01
4.553838212e-01,4.28822e-05,9.99999e-01,9.99987e-01,4.28827e-05,9.99999e-01
4.576607403e-01,5.23062e-05,9.99999e-01,9.99994e-01,5.23065e-05,9.99999e-01
4.599490440e-01,6.35511e-05,9.99999e-01,9.99995e-01,6.35513e-05,9.99999e-01
4.622487892e-01,7.69171e-05,9.99999e-01,9.99998e-01,7.69171e-05,9.99999e-01
4.645600332e-01,9.27435e-05,9.99999e-01,9.99996e-01,9.27437e-05,9.99999e-01
4.668828333e-01,1.11409e-04,9.99999e-01,9.99955e-01,1.11414e-04,9.99999e-01
4.692172475e-01,1.33347e-04,9.99999e-01,9.99906e-01,1.33359e-04,9.99999e-01
4.715633337e-01,1.59051e-04,9.99999e-01,9.99938e-01,1.59061e-04,9.99999e-01
4.739211504e-01,1.89046e-04,9.99999e-01,9.99941e-01,1.89057e-04,9.99999e-01
4.762907561e-01,2.23937e-04,9.99999e-01,9.99969e-01,2.23944e-04,9.99999e-01
4.786722099e-01,2.64379e-04,9.99999e-01,9.99987e-01,2.64382e-04,9.99999e-01
4.810655710e-01,3.11100e-04,9.99999e-01,9.99995e-01,3.11102e-04,9.99999e-01
4.834708988e-01,3.64888e-04,9.99999e-01,9.99962e-01,3.64902e-04,9.99999e-01
4.858882533e-01,4.26632e-04,9.99999e-01,9.99933e-01,4.26660e-04,9.99999e-01
4.883176946e-01,4.97304e-04,9.99999e-01,9.99944e-01,4.97331e-04,9.99999e-01
4.907592831e-01,5.77928e-04,9.99999e-01,9.99949e-01,5.77957e-04,9.99999e-01
4.932130795e-01,6.69639e-04,9.99999e-01,9.99964e-01,6.69662e-04,9.99999e-01
4.956791449e-01,7.73651e-04,9.99999e-01,9.99980e-01,7.73665e-04,9.99999e-01
4.981575406e-01,8.91191e-04,9.99999e-01,9.99905e-01,8.91275e-04,9.99999e-01
5.006483283e-01,1.02365e-03,9.99999e-01,9.99753e-01,1.02390e-03,9.99999e-01
5.031515699e-01,1.17159e-03,9.99999e-01,9.98766e-01,1.17304e-03,9.99999e-01
5.056673278e-01,1.33943e-03,9.99999e-01,9.99352e-01,1.34029e-03,9.99999e-01
5.081956644e-01,1.52613e-03,9.99999e-01,9.99183e-01,1.52737e-03,9.99999e-01
5.107366428e-01,1.73512e-03,9.99999e-01,9.99448e-01,1.73608e-03,9.99999e-01
5.132903260e-01,1.96770e-03,9.99999e-01,9.99685e-01,1.96831e-03,9.99999e-01
5.158567776e-01,2.22579e-03,9.99999e-01,9.99867e-01,2.22609e-03,9.99999e-01
5.184360615e-01,2.51138e-03,9.99999e-01,9.99946e-01,2.51151e-03,9.99999e-01
5.210282418e-01,2.82673e-03,9.99999e-01,9.99979e-01,2.82679e-03,9.99999e-01
5.236333830e-01,3.17396e-03,9.99999e-01,9.99919e-01,3.17421e-03,9.99999e-01
5.262515499e-01,3.55601e-03,9.99999e-01,9.99949e-01,3.55619e-03,9.99999e-01
5.288828077e-01,3.97502e-03,9.99999e-01,9.99953e-01,3.97520e-03,9.99999e-01
5.315272217e-01,4.43364e-03,9.99999e-01,9.99959e-01,4.43382e-03,9.99999e-01
5.341848578e-01,4.93456e-03,9.99999e-01,9.99972e-01,4.93469e-03,9.99999e-01
5.368557821e-01,5.48003e-03,9.99999e-01,9.99905e-01,5.48054e-03,9.99999e-01
5.395400610e-01,6.07209e-03,9.99999e-01,9.99656e-01,6.07418e-03,9.99999e-01
5.422377613e-01,6.71554e-03,9.99999e-01,9.99566e-01,6.71845e-03,9.99999e-01
5.449489501e-01,7.41325e-03,9.99999e-01,9.99592e-01,7.41627e-03,9.99999e-01
5.476736949e-01,8.16771e-03,9.99999e-01,9.99643e-01,8.17062e-03,9.99999e-01
5.504120634e-01,8.98216e-03,9.99999e-01,9.99740e-01,8.98448e-03,9.99999e-01
5.531641237e-01,9.85962e-03,9.99999e-01,9.99869e-01,9.86090e-03,9.99999e-01
5.559299443e-01,1.08023e-02,9.99999e-01,9.99936e-01,1.08029e-02,9.99999e-01
5.587095940e-01,1.18132e-02,9.99999e-01,9.99959e-01,1.18136e-02,9.99999e-01
5.615031420e-01,1.28956e-02,9.99999e-01,9.99955e-01,1.28961e-02,9.99999e-01
5.643106577e-01,1.40527e-02,9.99999e-01,9.99948e-01,1.40534e-02,9.99999e-01
5.671322110e-01,1.52791e-02,9.99999e-01,9.99375e-01,1.52886e-02,9.99999e-01
5.699678720e-01,1.65941e-02,9.99999e-01,9.99361e-01,1.66047e-02,9.99999e-01
5.728177114e-01,1.79926e-02,9.99999e-01,9.99324e-01,1.80047e-02,9.99999e-01
5.756818000e-01,1.94795e-02,9.99999e-01,9.99381e-01,1.94916e-02,9.99999e-01
5.785602090e-01,2.10568e-02,9.99999e-01,9.99462e-01,2.10682e-02,9.99999e-01
5.814530100e-01,2.27250e-02,9.99999e-01,9.99458e-01,2.27373e-02,9.99999e-01
5.843602750e-01,2.44858e-02,9.99999e-01,9.99347e-01,2.45018e-02,9.99999e-01
5.872820764e-01,2.62165e-02,9.99999e-01,9.94396e-01,2.63642e-02,9.99999e-01
5.902184868e-01,2.81373e-02,9.99999e-01,9.93297e-01,2.83272e-02,9.99999e-01
5.931695792e-01,3.02486e-02,9.99999e-01,9.95242e-01,3.03932e-02,9.99999e-01
5.961354271e-01,3.23953e-02,9.99999e-01,9.94800e-01,3.25646e-02,9.99999e-01
5.991161043e-01,3.47116e-02,9.99999e-01,9.96211e-01,3.48435e-02,9.99999e-01
6.021116848e-01,3.71523e-02,9.99999e-01,9.97852e-01,3.72322e-02,9.99999e-01
6.051222432e-01,3.96895e-02,9.99999e-01,9.98913e-01,3.97326e-02,9.99999e-01
6.081478544e-01,4.23266e-02,9.99999e-01,9.99530e-01,4.23465e-02,9.99999e-01
6.111885937e-01,4.50666e-02,9.99999e-01,9.99801e-01,4.50755e-02,9.99999e-01
6.142445367e-01,4.79171e-02,9.99999e-01,9.99911e-01,4.79213e-02,9.99999e-01
6.173157594e-01,5.08827e-02,9.99999e-01,9.99950e-01,5.08852e-02,9.99999e-01
6.204023382e-01,5.39662e-02,9.99999e-01,9.99957e-01,5.39684e-02,9.99999e-01
6.235043498e-01,5.71613e-02,9.99999e-01,9.99812e-01,5.71720e-02,9.99999e-01
6.266218716e-01,6.04381e-02,9.99999e-01,9.99029e-01,6.04967e-02,9.99999e-01
6.297549810e-01,6.39207e-02,9.99999e-01,9.99643e-01,6.39434e-02,9.99999e-01
6.329037559e-01,6.74652e-02,9.99999e-01,9.99299e-01,6.75125e-02,9.99999e-01
6.360682746e-01,7.11617e-02,9.99999e-01,9.99399e-01,7.12044e-02,9.99999e-01
6.392486160e-01,7.49611e-02,9.99999e-01,9.99224e-01,7.50192e-02,9.99999e-01
6.424448591e-01,7.88742e-02,9.99999e-01,9.98950e-01,7.89570e-02,9.99999e-01
6.456570834e-01,8.26138e-02,9.99999e-01,9.95135e-01,8.30176e-02,9.99999e-01
6.488853688e-01,8.68946e-02,9.99999e-01,9.96491e-01,8.72005e-02,9.99999e-01
6.521297956e-01,9.11782e-02,9.99999e-01,9.96424e-01,9.15053e-02,9.99999e-01
6.553904446e-01,9.55876e-02,9.99999e-01,9.96417e-01,9.59313e-02,9.99999e-01
6.586673968e-01,1.00171e-01,9.99999e-01,9.96949e-01,1.00478e-01,9.99999e-01
6.619607338e-01,1.04964e-01,9.99999e-01,9.98299e-01,1.05143e-01,9.99999e-01
6.652705375e-01,1.09815e-01,9.99999e-01,9.98979e-01,1.09927e-01,9.99999e-01
6.685968902e-01,1.14777e-01,9.99999e-01,9.99566e-01,1.14827e-01,9.99999e-01
6.719398746e-01,1.19816e-01,9.99999e-01,9.99780e-01,1.19842e-01,9.99999e-01
6.752995740e-01,1.24957e-01,9.99999e-01,9.99883e-01,1.24971e-01,9.99999e-01
6.786760719e-01,1.30189e-01,9.99999e-01,9.99825e-01,1.30212e-01,9.99999e-01
6.820694522e-01,1.35521e-01,9.99999e-01,9.99700e-01,1.35562e-01,9.99999e-01
6.854797995e-01,1.40966e-01,9.99999e-01,9.99617e-01,1.41020e-01,9.99999e-01
6.889071985e-01,1.46401e-01,9.99999e-01,9.98759e-01,1.46583e-01,9.99999e-01
6.923517345e-01,1.49939e-01,9.99999e-01,9.84825e-01,1.52250e-01,9.99999e-01
6.958134932e-01,1.56806e-01,9.99999e-01,9.92336e-01,1.58017e-01,9.99999e-01
6.992925606e-01,1.62654e-01,9.99999e-01,9.92507e-01,1.63882e-01,9.99999e-01
7.027890234e-01,1.68289e-01,9.99999e-01,9.90857e-01,1.69842e-01,9.99999e-01
7.063029686e-01,1.74541e-01,9.99999e-01,9.92298e-01,1.75895e-01,9.99999e-01
7.098344834e-01,1.80693e-01,9.99999e-01,9.92609e-01,1.82038e-01,9.99999e-01
7.133836558e-01,1.86384e-01,9.99999e-01,9.89993e-01,1.88267e-01,9.99999e-01
7.169505741e-01,1.79604e-01,9.99999e-01,9.23031e-01,1.94581e-01,9.99998e-01
7.205353270e-01,1.93439e-01,9.99999e-01,9.62504e-01,2.00975e-01,9.99998e-01
7.241380036e-01,1.97397e-01,9.99999e-01,9.51554e-01,2.07447e-01,9.99998e-01
7.277586936e-01,2.04630e-01,9.99999e-01,9.56245e-01,2.13993e-01,9.99998e-01
7.313974871e-01,2.10443e-01,9.99999e-01,9.53914e-01,2.20610e-01,9.99998e-01
7.350544745e-01,2.21498e-01,9.99999e-01,9.74495e-01,2.27296e-01,9.99999e-01
7.387297469e-01,2.29642e-01,9.99999e-01,9.81185e-01,2.34045e-01,9.99999e-01
7.424233956e-01,2.38636e-01,9.99999e-01,9.90780e-01,2.40856e-01,9.99999e-01
7.461355126e-01,2.46336e-01,9.99999e-01,9.94391e-01,2.47725e-01,9.99999e-01
7.498661902e-01,2.53985e-01,9.99999e-01,9.97395e-01,2.54648e-01,9.99999e-01
7.536155211e-01,2.61286e-01,9.99999e-01,9.98716e-01,2.61622e-01,9.99999e-01
7.573835987e-01,2.68466e-01,9.99999e-01,9.99339e-01,2.68644e-01,9.99999e-01
7.611705167e-01,2.75596e-01,9.99999e-01,9.99589e-01,2.75710e-01,9.99999e-01
7.649763693e-01,2.82743e-01,9.99999e-01,9.99741e-01,2.82816e-01,9.99999e-01
7.688012511e-01,2.89908e-01,9.99999e-01,9.99819e-01,2.89960e-01,9.99999e-01
7.726452574e-01,2.97094e-01,9.99999e-01,9.99851e-01,2.97138e-01,9.99999e-01
7.765084837e-01,3.04282e-01,9.99999e-01,9.99787e-01,3.04347e-01,9.99999e-01
7.803910261e-01,2.94359e-01,9.45548e-01,9.99078e-01,3.11583e-01,9.99999e-01
7.842929812e-01,2.50039e-01,7.86550e-01,9.96787e-01,3.18843e-01,9.99999e-01
7.882144461e-01,2.50314e-01,7.72282e-01,9.93467e-01,3.26124e-01,9.99999e-01
7.921555184e-01,2.85010e-01,8.57743e-01,9.96439e-01,3.33422e-01,9.99999e-01
7.961162960e-01,3.05757e-01,9.03034e-01,9.93613e-01,3.40735e-01,9.99999e-01
8.000968774e-01,3.26881e-01,9.46044e-01,9.92684e-01,3.48059e-01,9.99999e-01
8.040973618e-01,3.42849e-01,9.71814e-01,9.92667e-01,3.55391e-01,9.99999e-01
8.081178486e-01,3.52046e-01,9.86890e-01,9.83408e-01,3.62728e-01,9.99999e-01
8.121584379e-01,3.43848e-01,9.95992e-01,9.32831e-01,3.70067e-01,9.99998e-01
8.162192301e-01,3.47614e-01,9.99112e-01,9.21856e-01,3.77405e-01,9.99998e-01
8.203003262e-01,3.69150e-01,9.99987e-01,9.59490e-01,3.84739e-01,9.99998e-01
8.244018279e-01,3.70818e-01,9.99999e-01,9.45803e-01,3.92067e-01,9.99998e-01
8.285238370e-01,3.80279e-01,9.99999e-01,9.52159e-01,3.99386e-01,9.99998e-01
8.326664562e-01,3.87145e-01,9.99999e-01,9.51934e-01,4.06692e-01,9.99998e-01
8.368297885e-01,3.99697e-01,9.99999e-01,9.65488e-01,4.13984e-01,9.99999e-01
8.410139374e-01,4.12566e-01,9.99999e-01,9.79362e-01,4.21259e-01,9.99999e-01
8.452190071e-01,4.24164e-01,9.99999e-01,9.89846e-01,4.28515e-01,9.99999e-01
8.494451021e-01,4.33163e-01,9.99999e-01,9.94067e-01,4.35748e-01,9.99999e-01
8.536923276e-01,4.41408e-01,9.99999e-01,9.96503e-01,4.42957e-01,9.99999e-01
8.579607893e-01,4.49165e-01,9.99999e-01,9.97837e-01,4.50139e-01,9.99999e-01
8.622505932e-01,4.56666e-01,9.99999e-01,9.98629e-01,4.57292e-01,9.99999e-01
8.665618462e-01,4.16570e-01,8.97702e-01,9.99148e-01,4.64414e-01,9.99999e-01
8.708946554e-01,2.56719e-01,5.44973e-01,9.99021e-01,4.71504e-01,9.99999e-01
8.752491287e-01,2.92243e-01,6.11438e-01,9.98693e-01,4.78558e-01,9.99999e-01
8.796253743e-01,3.69145e-01,7.61543e-01,9.98182e-01,4.85575e-01,9.99999e-01
8.840235012e-01,4.26453e-01,8.67555e-01,9.97926e-01,4.92554e-01,9.99999e-01
8.884436187e-01,4.68773e-01,9.45702e-01,9.92262e-01,4.99492e-01,9.99999e-01
8.928858368e-01,4.57012e-01,9.77588e-01,9.22885e-01,5.06388e-01,9.99998e-01
8.973502660e-01,4.43836e-01,9.94549e-01,8.69358e-01,5.13240e-01,9.99997e-01
9.018370173e-01,4.84290e-01,9.99400e-01,9.31775e-01,5.20047e-01,9.99997e-01
9.063462024e-01,4.86817e-01,9.84050e-01,9.38320e-01,5.26807e-01,9.99997e-01
9.108779334e-01,4.66724e-01,9.64753e-01,9.06135e-01,5.33518e-01,9.99996e-01
9.154323231e-01,4.79209e-01,9.91744e-01,8.94263e-01,5.40180e-01,9.99996e-01
9.200094847e-01,4.47373e-01,8.86506e-01,9.16536e-01,5.46792e-01,9.99995e-01
9.246095321e-01,4.06037e-01,8.38957e-01,8.70428e-01,5.53351e-01,9.99993e-01
9.292325798e-01,2.03037e-01,8.70404e-01,4.07956e-01,5.59857e-01,9.99986e-01
9.338787427e-01,1.62051e-01,8.75602e-01,3.20579e-01,5.66308e-01,9.99982e-01
9.385481364e-01,3.30546e-01,9.06707e-01,6.31291e-01,5.72705e-01,9.99982e-01
9.432408771e-01,2.89363e-01,9.41904e-01,5.27985e-01,5.79045e-01,9.99980e-01
9.479570815e-01,2.37569e-01,9.69676e-01,4.17538e-01,5.85328e-01,9.99982e-01
9.526968669e-01,3.01746e-01,9.85310e-01,5.16756e-01,5.91553e-01,9.99986e-01
9.574603512e-01,3.19949e-01,9.93699e-01,5.38334e-01,5.97719e-01,9.99989e-01
9.622476530e-01,3.63716e-01,9.98034e-01,6.03431e-01,6.03826e-01,9.99993e-01
9.670588912e-01,4.54831e-01,9.99412e-01,7.46185e-01,6.09873e-01,9.99995e-01
9.718941857e-01,5.11895e-01,9.99959e-01,8.31220e-01,6.15860e-01,9.99997e-01
9.767536566e-01,5.33253e-01,9.99999e-01,8.57617e-01,6.21785e-01,9.99997e-01
9.816374249e-01,5.60264e-01,9.99999e-01,8.92641e-01,6.27648e-01,9.99998e-01
9.865456120e-01,5.90042e-01,9.99999e-01,9.31474e-01,6.33449e-01,9.99998e-01
9.914783401e-01,6.11717e-01,9.99999e-01,9.57021e-01,6.39188e-01,9.99999e-01
9.964357318e-01,6.29624e-01,9.99999e-01,9.76367e-01,6.44863e-01,9.99999e-01
1.001417910e+00,6.41227e-01,9.99999e-01,9.85781e-01,6.50476e-01,9.99999e-01
1.006425000e+00,6.50675e-01,9.99999e-01,9.91844e-01,6.56025e-01,9.99999e-01
1.011457125e+00,6.58169e-01,9.99999e-01,9.94948e-01,6.61510e-01,9.99999e-01
1.016514411e+00,6.64639e-01,9.99999e-01,9.96561e-01,6.66932e-01,9.99999e-01
1.021596983e+00,6.70379e-01,9.99899e-01,9.97256e-01,6.72289e-01,9.99999e-01
1.026704968e+00,6.71871e-01,9.93692e-01,9.97858e-01,6.77583e-01,9.99999e-01
1.031838492e+00,6.36165e-01,9.33068e-01,9.98447e-01,6.82812e-01,9.99999e-01
1.036997685e+00,6.52177e-02,9.48639e-02,9.99074e-01,6.87977e-01,9.99999e-01
1.042182673e+00,2.61199e-02,3.77219e-02,9.98891e-01,6.93079e-01,9.99999e-01
1.047393587e+00,4.04053e-02,5.79508e-02,9.98534e-01,6.98116e-01,9.99999e-01
1.052630555e+00,1.88861e-04,2.68987e-04,9.97985e-01,7.03089e-01,9.99999e-01
1.057893707e+00,6.27289e-04,8.87819e-04,9.96631e-01,7.07998e-01,9.99999e-01
1.063183176e+00,3.79141e-03,5.33802e-03,9.94469e-01,7.12844e-01,9.99999e-01
1.068499092e+00,1.64334e-02,2.30649e-02,9.90774e-01,7.17626e-01,9.99999e-01
1.073841587e+00,6.57858e-02,9.18728e-02,9.89183e-01,7.22345e-01,9.99999e-01
1.079210795e+00,1.58538e-01,2.20711e-01,9.86220e-01,7.27000e-01,9.99999e-01
1.084606849e+00,3.10213e-01,4.32413e-01,9.79164e-01,7.31593e-01,9.99998e-01
1.090029883e+00,4.61714e-01,6.45792e-01,9.69947e-01,7.36123e-01,9.99998e-01
1.095480033e+00,5.50465e-01,8.06330e-01,9.20488e-01,7.40591e-01,9.99997e-01
1.100957433e+00,5.45309e-01,9.01262e-01,8.10730e-01,7.44998e-01,9.99995e-01
1.106462220e+00,4.24465e-01,9.57996e-01,5.89861e-01,7.49342e-01,9.99991e-01
1.111994531e+00,2.49699e-01,9.84213e-01,3.36068e-01,7.53625e-01,9.99983e-01
1.117554504e+00,1.32626e-01,9.96151e-01,1.75503e-01,7.57848e-01,9.99977e-01
1.123142276e+00,2.22138e-01,9.99749e-01,2.91546e-01,7.62010e-01,9.99973e-01
1.128757988e+00,3.37515e-01,9.99999e-01,4.40568e-01,7.66112e-01,9.99971e-01
1.134401778e+00,1.70348e-01,9.99999e-01,2.21194e-01,7.70154e-01,9.99967e-01
1.140073787e+00,4.69612e-01,9.99999e-01,6.06642e-01,7.74137e-01,9.99973e-01
1.145774156e+00,2.82387e-01,9.99999e-01,3.62944e-01,7.78062e-01,9.99977e-01
1.151503026e+00,2.54468e-01,9.99999e-01,3.25442e-01,7.81928e-01,9.99980e-01
1.157260541e+00,2.99621e-01,9.99999e-01,3.81330e-01,7.85737e-01,9.99985e-01
1.163046844e+00,3.86675e-01,9.99999e-01,4.89783e-01,7.89488e-01,9.99990e-01
1.168862078e+00,4.80578e-01,9.99999e-01,6.05887e-01,7.93183e-01,9.99995e-01
1.174706389e+00,5.84642e-01,9.99999e-01,7.33718e-01,7.96821e-01,9.99997e-01
1.180579921e+00,6.62708e-01,9.99999e-01,8.27967e-01,8.00404e-01,9.99997e-01
1.186482820e+00,7.22336e-01,9.99983e-01,8.98518e-01,8.03931e-01,9.99998e-01
1.192415234e+00,7.41845e-01,9.77735e-01,9.39344e-01,8.07405e-01,9.99998e-01
1.198377311e+00,4.22989e-01,5.45174e-01,9.48517e-01,8.10824e-01,9.99998e-01
1.204369197e+00,6.47331e-17,8.18345e-17,9.51313e-01,8.14189e-01,9.99998e-01
1.210391043e+00,3.25011e-65,4.08257e-65,9.53382e-01,8.17502e-01,9.99998e-01
1.216442998e+00,1.40936e-56,1.76087e-56,9.60318e-01,8.20762e-01,9.99999e-01
1.222525213e+00,9.69018e-56,1.19535e-55,9.68921e-01,8.23970e-01,9.99999e-01
1.228637839e+00,3.82499e-43,4.69407e-43,9.78296e-01,8.27128e-01,9.99999e-01
1.234781029e+00,2.65720e-27,3.22316e-27,9.83866e-01,8.30234e-01,9.99999e-01
1.240954934e+00,2.78238e-18,3.36090e-18,9.89755e-01,8.33291e-01,9.99999e-01
1.247159708e+00,1.90263e-09,2.28587e-09,9.92023e-01,8.36298e-01,9.99999e-01
1.253395507e+00,2.80458e-06,3.35899e-06,9.92901e-01,8.39256e-01,9.99999e-01
1.259662485e+00,6.09681e-04,7.27685e-04,9.93235e-01,8.42167e-01,9.99999e-01
1.265960797e+00,1.38853e-02,1.65602e-02,9.89243e-01,8.45029e-01,9.99999e-01
1.272290601e+00,1.36938e-01,1.63940e-01,9.83075e-01,8.47844e-01,9.99999e-01
1.278652054e+00,1.13452e-01,1.36724e-01,9.66662e-01,8.50613e-01,9.99998e-01
1.285045314e+00,8.51841e-04,1.02390e-03,9.40304e-01,8.53336e-01,9.99998e-01
1.291470541e+00,3.04217e-08,3.78968e-08,8.98327e-01,8.56013e-01,9.99997e-01
1.297927893e+00,1.16132e-03,1.44842e-03,8.58717e-01,8.58646e-01,9.99995e-01
1.304417533e+00,2.68308e-02,3.62489e-02,8.36318e-01,8.61235e-01,9.99992e-01
1.310939621e+00,4.45620e-03,5.79758e-03,7.97725e-01,8.63780e-01,9.99988e-01
1.317494319e+00,5.48463e-23,7.17674e-23,8.01400e-01,8.66282e-01,9.99980e-01
1.324081790e+00,2.64792e-11,3.53366e-11,7.21505e-01,8.68741e-01,9.99965e-01
1.330702199e+00,2.65719e-09,5.35428e-09,3.03529e-01,8.71159e-01,9.99942e-01
1.337355710e+00,2.15053e-09,2.42781e-08,3.30768e-02,8.73536e-01,9.99898e-01
1.344042489e+00,1.16033e-12,3.22498e-10,3.02426e-04,8.75872e-01,9.99782e-01
1.350762701e+00,2.95785e-15,3.07326e-09,1.83781e-07,8.78168e-01,9.99652e-01
1.357516515e+00,6.88886e-15,5.35270e-06,1.54334e-10,8.80424e-01,9.99569e-01
1.364304097e+00,5.52285e-10,2.57941e-04,7.68830e-07,8.82642e-01,9.99538e-01
1.371125618e+00,2.63807e-06,1.42880e-02,9.91120e-05,8.84821e-01,9.99534e-01
1.377981246e+00,1.19801e-05,2.78343e-02,2.92658e-04,8.86962e-01,9.99500e-01
1.384871152e+00,5.01713e-07,1.24417e-01,3.12036e-06,8.89066e-01,9.99514e-01
1.391795508e+00,1.79880e-07,1.46222e-01,8.97269e-07,8.91133e-01,9.99588e-01
1.398754485e+00,4.24215e-06,3.02480e-01,1.37993e-05,8.93165e-01,9.99646e-01
1.405748258e+00,5.36690e-06,4.16784e-01,1.22857e-05,8.95160e-01,9.99682e-01
1.412776999e+00,7.41411e-06,5.74640e-01,1.24079e-05,8.97121e-01,9.99744e-01
1.419840884e+00,1.52609e-05,5.07950e-01,2.50861e-05,8.99046e-01,9.99809e-01
1.426940089e+00,1.05014e-04,3.12441e-02,3.19556e-04,9.00938e-01,9.99881e-01
1.434074789e+00,0.00000e+00,0.00000e+00,1.88379e-03,9.02797e-01,9.99926e-01
1.441245163e+00,0.00000e+00,0.00000e+00,6.43245e-03,9.04622e-01,9.99942e-01
1.448451389e+00,0.00000e+00,0.00000e+00,2.97024e-02,9.06415e-01,9.99952e-01
1.455693646e+00,0.00000e+00,0.00000e+00,9.23592e-02,9.08176e-01,9.99960e-01
1.462972114e+00,2.39480e-258,9.85417e-258,1.22078e-01,9.09905e-01,9.99966e-01
1.470286975e+00,5.19666e-108,2.36977e-107,8.75617e-02,9.11604e-01,9.99969e-01
