#,Wave/freq,Total,CO2,H2O,Rayleigh,CIA
4.000000000e-01,4.73828e-26,9.99999e-01,9.99885e-01,4.73882e-26,9.99999e-01
4.020000000e-01,1.50095e-25,9.99999e-01,9.99928e-01,1.50106e-25,9.99999e-01
4.040100000e-01,4.64208e-25,9.99999e-01,9.99969e-01,4.64222e-25,9.99999e-01
4.060300500e-01,1.40399e-24,9.99999e-01,9.99992e-01,1.40400e-24,9.99999e-01
4.080602003e-01,4.15447e-24,9.99999e-01,9.99997e-01,4.15448e-24,9.99999e-01
4.101005013e-01,1.20326e-23,9.99999e-01,9.99999e-01,1.20326e-23,9.99999e-01
4.121510038e-01,3.41253e-23,9.99999e-01,9.99995e-01,3.41255e-23,9.99999e-01
4.142117588e-01,9.48074e-23,9.99999e-01,9.99967e-01,9.48104e-23,9.99999e-01
4.162828176e-01,2.58111e-22,9.99999e-01,9.99858e-01,2.58147e-22,9.99999e-01
4.183642317e-01,6.89049e-22,9.99999e-01,9.99915e-01,6.89107e-22,9.99999e-01
4.204560528e-01,1.80410e-21,9.99999e-01,9.99948e-01,1.80419e-21,9.99999e-01
4.225583331e-01,4.63462e-21,9.99999e-01,9.99980e-01,4.63471e-21,9.99999e-01
4.246711247e-01,1.16859e-20,9.99999e-01,9.99984e-01,1.16861e-20,9.99999e-01
4.267944804e-01,2.89316e-20,9.99999e-01,9.99977e-01,2.89322e-20,9.99999e-01
4.289284528e-01,7.03575e-20,9.99999e-01,9.99982e-01,7.03588e-20,9.99999e-01
4.310730950e-01,1.68123e-19,9.99999e-01,9.99992e-01,1.68125e-19,9.99999e-01
4.332284605e-01,3.94885e-19,9.99999e-01,9.99997e-01,3.94886e-19,9.99999e-01
4.353946028e-01,9.11982e-19,9.99999e-01,9.99998e-01,9.11983e-19,9.99999e-01
4.375715758e-01,2.07165e-18,9.99999e-01,9.99985e-01,2.07168e-18,9.99999e-01
4.397594337e-01,4.62982e-18,9.99999e-01,9.99874e-01,4.63040e-18,9.99999e-01
4.419582309e-01,1.01798e-17,9.99999e-01,9.99364e-01,1.01863e-17,9.99999e-01
4.441680220e-01,2.20514e-17,9.99999e-01,9.99509e-01,2.20622e-17,9.99999e-01
4.463888621e-01,4.70361e-17,9.99999e-01,9.99487e-01,4.70601e-17,9.99999e-01
4.486208064e-01,9.88601e-17,9.99999e-01,9.99682e-01,9.88915e-17,9.99999e-01
4.508639105e-01,2.04753e-16,9.99999e-01,9.99851e-01,2.04783e-16,9.99999e-01
4.531182300e-01,4.17984e-16,9.99999e-01,9.99940e-01,4.18008e-16,9.99999e-01
4.553838212e-01,8.41274e-16,9.99999e-01,9.99959e-01,8.41307e-16,9.99999e-01
4.576607403e-01,1.67000e-15,9.99999e-01,9.99981e-01,1.67003e-15,9.99999e-01
4.599490440e-01,3.27044e-15,9.99999e-01,9.99986e-01,3.27048e-15,9.99999e-01
4.622487892e-01,6.32023e-15,9.99999e-01,9.99997e-01,6.32025e-15,9.99999e-01
4.645600332e-01,1.20559e-14,9.99999e-01,9.99990e-01,1.20560e-14,9.99999e-01
4.668828333e-01,2.27023e-14,9.99999e-01,9.99848e-01,2.27057e-14,9.99999e-01
4.692172475e-01,4.22179e-14,9.99999e-01,9.99678e-01,4.22314e-14,9.99999e-01
4.715633337e-01,7.75749e-14,9.99999e-01,9.99789e-01,7.75912e-14,9.99999e-01
4.739211504e-01,1.40826e-13,9.99999e-01,9.99799e-01,1.40855e-13,9.99999e-01
4.762907561e-01,2.52679e-13,9.99999e-01,9.99895e-01,2.52706e-13,9.99999e-01
4.786722099e-01,4.48153e-13,9.99999e-01,9.99957e-01,4.48172e-13,9.99999e-01
4.810655710e-01,7.85875e-13,9.99999e-01,9.99986e-01,7.85885e-13,9.99999e-01
4.834708988e-01,1.36270e-12,9.99999e-01,9.99875e-01,1.36287e-12,9.99999e-01
4.858882533e-01,2.33739e-12,9.99999e-01,9.99772e-01,2.33792e-12,9.99999e-01
4.883176946e-01,3.96727e-12,9.99999e-01,9.99809e-01,3.96802e-12,9.99999e-01
4.907592831e-01,6.66355e-12,9.99999e-01,9.99827e-01,6.66470e-12,9.99999e-01
4.932130795e-01,1.10786e-11,9.99999e-01,9.99877e-01,1.10800e-11,9.99999e-01
4.956791449e-01,1.82351e-11,9.99999e-01,9.99935e-01,1.82363e-11,9.99999e-01
4.981575406e-01,2.97111e-11,9.99999e-01,9.99676e-01,2.97207e-11,9.99999e-01
5.006483283e-01,4.79322e-11,9.99999e-01,9.99158e-01,4.79725e-11,9.99999e-01
5.031515699e-01,7.63790e-11,9.99999e-01,9.95762e-01,7.67040e-11,9.99999e-01
5.056673278e-01,1.21240e-10,9.99999e-01,9.97764e-01,1.21512e-10,9.99999e-01
5.081956644e-01,1.90215e-10,9.99999e-01,9.97181e-01,1.90753e-10,9.99999e-01
5.107366428e-01,2.96230e-10,9.99999e-01,9.98096e-01,2.96795e-10,9.99999e-01
5.132903260e-01,4.57274e-10,9.99999e-01,9.98912e-01,4.57772e-10,9.99999e-01
5.158567776e-01,6.99721e-10,9.99999e-01,9.99540e-01,7.00042e-10,9.99999e-01
5.184360615e-01,1.06139e-09,9.99999e-01,9.99815e-01,1.06159e-09,9.99999e-01
5.210282418e-01,1.59656e-09,9.99999e-01,9.99930e-01,1.59667e-09,9.99999e-01
5.236333830e-01,2.38152e-09,9.99999e-01,9.99723e-01,2.38217e-09,9.99999e-01
5.262515499e-01,3.52553e-09,9.99999e-01,9.99826e-01,3.52614e-09,9.99999e-01
5.288828077e-01,5.17836e-09,9.99999e-01,9.99840e-01,5.17918e-09,9.99999e-01
5.315272217e-01,7.54857e-09,9.99999e-01,9.99860e-01,7.54962e-09,9.99999e-01
5.341848578e-01,1.09224e-08,9.99999e-01,9.99908e-01,1.09234e-08,9.99999e-01
5.368557821e-01,1.56848e-08,9.99999e-01,9.99676e-01,1.56898e-08,9.99999e-01
5.395400610e-01,2.23495e-08,9.99999e-01,9.98831e-01,2.23756e-08,9.99999e-01
5.422377613e-01,3.16398e-08,9.99999e-01,9.98501e-01,3.16873e-08,9.99999e-01
5.449489501e-01,4.45045e-08,9.99999e-01,9.98600e-01,4.45668e-08,9.99999e-01
5.476736949e-01,6.21835e-08,9.99999e-01,9.98765e-01,6.22604e-08,9.99999e-01
5.504120634e-01,8.63286e-08,9.99999e-01,9.99103e-01,8.64060e-08,9.99999e-01
5.531641237e-01,1.19088e-07,9.99999e-01,9.99548e-01,1.19142e-07,9.99999e-01
5.559299443e-01,1.63206e-07,9.99999e-01,9.99782e-01,1.63241e-07,9.99999e-01
5.587095940e-01,2.22246e-07,9.99999e-01,9.99862e-01,2.22276e-07,9.99999e-01
5.615031420e-01,3.00775e-07,9.99999e-01,9.99847e-01,3.00821e-07,9.99999e-01
5.643106577e-01,4.04625e-07,9.99999e-01,9.99825e-01,4.04695e-07,9.99999e-01
5.671322110e-01,5.40112e-07,9.99999e-01,9.97885e-01,5.41256e-07,9.99999e-01
5.699678720e-01,7.18156e-07,9.99999e-01,9.97780e-01,7.19753e-07,9.99999e-01
5.728177114e-01,9.49531e-07,9.99999e-01,9.97675e-01,9.51743e-07,9.99999e-01
5.756818000e-01,1.24891e-06,9.99999e-01,9.97869e-01,1.25158e-06,9.99999e-01
5.785602090e-01,1.63396e-06,9.99999e-01,9.98144e-01,1.63700e-06,9.99999e-01
5.814530100e-01,2.12581e-06,9.99999e-01,9.98133e-01,2.12978e-06,9.99999e-01
5.843602750e-01,2.75039e-06,9.99999e-01,9.97768e-01,2.75654e-06,9.99999e-01
5.872820764e-01,3.48210e-06,9.99999e-01,9.80978e-01,3.54962e-06,9.99999e-01
5.902184868e-01,4.44365e-06,9.99999e-01,9.77037e-01,4.54809e-06,9.99999e-01
5.931695792e-01,5.70461e-06,9.99999e-01,9.83730e-01,5.79896e-06,9.99999e-01
5.961354271e-01,7.22730e-06,9.99999e-01,9.82175e-01,7.35846e-06,9.99999e-01
5.991161043e-01,9.17241e-06,9.99999e-01,9.86968e-01,9.29352e-06,9.99999e-01
6.021116848e-01,1.15969e-05,9.99999e-01,9.92588e-01,1.16835e-05,9.99999e-01
6.051222432e-01,1.45668e-05,9.99999e-01,9.96244e-01,1.46217e-05,9.99999e-01
6.081478544e-01,1.81885e-05,9.99999e-01,9.98377e-01,1.82181e-05,9.99999e-01
6.111885937e-01,2.25851e-05,9.99999e-01,9.99314e-01,2.26005e-05,9.99999e-01
6.142445367e-01,2.79096e-05,9.99999e-01,9.99693e-01,2.79181e-05,9.99999e-01
6.173157594e-01,3.43375e-05,9.99999e-01,9.99830e-01,3.43433e-05,9.99999e-01
6.204023382e-01,4.20685e-05,9.99999e-01,9.99856e-01,4.20746e-05,9.99999e-01
6.235043498e-01,5.13074e-05,9.99999e-01,9.99363e-01,5.13400e-05,9.99999e-01
6.266218716e-01,6.21918e-05,9.99999e-01,9.96660e-01,6.24001e-05,9.99999e-01
6.297549810e-01,7.54585e-05,9.99999e-01,9.98774e-01,7.55511e-05,9.99999e-01
6.329037559e-01,9.09085e-05,9.99999e-01,9.97581e-01,9.11288e-05,9.99999e-01
6.360682746e-01,1.09286e-04,9.99999e-01,9.97935e-01,1.09512e-04,9.99999e-01
6.392486160e-01,1.30777e-04,9.99999e-01,9.97327e-01,1.31127e-04,9.99999e-01
6.424448591e-01,1.55890e-04,9.99999e-01,9.96411e-01,1.56451e-04,9.99999e-01
6.456570834e-01,1.82939e-04,9.99999e-01,9.83461e-01,1.86015e-04,9.99999e-01
6.488853688e-01,2.17753e-04,9.99999e-01,9.87937e-01,2.20412e-04,9.99999e-01
6.521297956e-01,2.57096e-04,9.99999e-01,9.87713e-01,2.60294e-04,9.99999e-01
6.553904446e-01,3.02622e-04,9.99999e-01,9.87717e-01,3.06385e-04,9.99999e-01
6.586673968e-01,3.55704e-04,9.99999e-01,9.89500e-01,3.59478e-04,9.99999e-01
6.619607338e-01,4.17976e-04,9.99999e-01,9.94132e-01,4.20443e-04,9.99999e-01
6.652705375e-01,4.88499e-04,9.99999e-01,9.96474e-01,4.90227e-04,9.99999e-01
6.685968902e-01,5.69008e-04,9.99999e-01,9.98500e-01,5.69862e-04,9.99999e-01
6.719398746e-01,6.59966e-04,9.99999e-01,9.99240e-01,6.60467e-04,9.99999e-01
6.752995740e-01,7.62936e-04,9.99999e-01,9.99587e-01,7.63251e-04,9.99999e-01
6.786760719e-01,8.78988e-04,9.99999e-01,9.99402e-01,8.79513e-04,9.99999e-01
6.820694522e-01,1.00962e-03,9.99999e-01,9.98979e-01,1.01065e-03,9.99999e-01
6.854797995e-01,1.15663e-03,9.99999e-01,9.98683e-01,1.15816e-03,9.99999e-01
6.889071985e-01,1.31939e-03,9.99999e-01,9.96796e-01,1.32363e-03,9.99999e-01
6.923517345e-01,1.43228e-03,9.99999e-01,9.49311e-01,1.50875e-03,9.99998e-01
6.958134932e-01,1.67007e-03,9.99999e-01,9.73614e-01,1.71533e-03,9.99998e-01
6.992925606e-01,1.89582e-03,9.99999e-01,9.74589e-01,1.94525e-03,9.99998e-01
7.027890234e-01,2.13192e-03,9.99999e-01,9.68825e-01,2.20052e-03,9.99998e-01
7.063029686e-01,2.41788e-03,9.99999e-01,9.73684e-01,2.48323e-03,9.99998e-01
7.098344834e-01,2.72492e-03,9.99999e-01,9.74726e-01,2.79558e-03,9.99998e-01
7.133836558e-01,3.03431e-03,9.99999e-01,9.66385e-01,3.13986e-03,9.99998e-01
7.169505741e-01,2.69213e-03,9.99999e-01,7.65148e-01,3.51846e-03,9.99996e-01
7.205353270e-01,3.45076e-03,9.99999e-01,8.77198e-01,3.93385e-03,9.99995e-01
7.241380036e-01,3.70909e-03,9.99999e-01,8.45167e-01,4.38860e-03,9.99995e-01
7.277586936e-01,4.19802e-03,9.99999e-01,8.59309e-01,4.88535e-03,9.99996e-01
7.313974871e-01,4.61607e-03,9.99999e-01,8.50603e-01,5.42683e-03,9.99997e-01
7.350544745e-01,5.50461e-03,9.99999e-01,9.15023e-01,6.01581e-03,9.99998e-01
7.387297469e-01,6.23295e-03,9.99999e-01,9.36558e-01,6.65517e-03,9.99998e-01
7.424233956e-01,7.11577e-03,9.99999e-01,9.68422e-01,7.34779e-03,9.99999e-01
7.461355126e-01,7.94056e-03,9.99999e-01,9.80721e-01,8.09665e-03,9.99999e-01
7.498661902e-01,8.82451e-03,9.99999e-01,9.90988e-01,8.90475e-03,9.99999e-01
7.536155211e-01,9.73175e-03,9.99999e-01,9.95563e-01,9.77511e-03,9.99999e-01
7.573835987e-01,1.06863e-02,9.99999e-01,9.97714e-01,1.07108e-02,9.99999e-01
7.611705167e-01,1.16982e-02,9.99999e-01,9.98579e-01,1.17149e-02,9.99999e-01
7.649763693e-01,1.27790e-02,9.99999e-01,9.99108e-01,1.27904e-02,9.99999e-01
7.688012511e-01,1.39319e-02,9.99999e-01,9.99378e-01,1.39405e-02,9.99999e-01
7.726452574e-01,1.51604e-02,9.99999e-01,9.99488e-01,1.51682e-02,9.99999e-01
7.765084837e-01,1.64645e-02,9.99999e-01,9.99270e-01,1.64765e-02,9.99999e-01
7.803910261e-01,1.54444e-02,8.66750e-01,9.96850e-01,1.78684e-02,9.99999e-01
7.842929812e-01,8.93834e-03,4.66200e-01,9.89052e-01,1.93469e-02,9.99999e-01
7.882144461e-01,9.24921e-03,4.50814e-01,9.77659e-01,2.09149e-02,9.99999e-01
7.921555184e-01,1.33728e-02,5.98940e-01,9.87725e-01,2.25751e-02,9.99999e-01
7.961162960e-01,1.67865e-02,7.04536e-01,9.78297e-01,2.43305e-02,9.99999e-01
8.000968774e-01,2.11071e-02,8.26478e-01,9.74999e-01,2.61835e-02,9.99999e-01
8.040973618e-01,2.48559e-02,9.05809e-01,9.74988e-01,2.81369e-02,9.99998e-01
8.081178486e-01,2.72597e-02,9.55410e-01,9.44571e-01,3.01930e-02,9.99998e-01
8.121584379e-01,2.52527e-02,9.86076e-01,7.90948e-01,3.23543e-02,9.99996e-01
8.162192301e-01,2.62024e-02,9.96907e-01,7.58915e-01,3.46230e-02,9.99995e-01
8.203003262e-01,3.23518e-02,9.99955e-01,8.74369e-01,3.70012e-02,9.99995e-01
8.244018279e-01,3.29028e-02,9.99999e-01,8.33177e-01,3.94909e-02,9.99995e-01
8.285238370e-01,3.56299e-02,9.99999e-01,8.46441e-01,4.20939e-02,9.99996e-01
8.326664562e-01,3.78939e-02,9.99999e-01,8.45620e-01,4.48120e-02,9.99997e-01
8.368297885e-01,4.22237e-02,9.99999e-01,8.86183e-01,4.76467e-02,9.99998e-01
8.410139374e-01,4.70863e-02,9.99999e-01,9.30570e-01,5.05994e-02,9.99999e-01
8.452190071e-01,5.18080e-02,9.99999e-01,9.65285e-01,5.36712e-02,9.99999e-01
8.494451021e-01,5.57067e-02,9.99999e-01,9.79659e-01,5.68633e-02,9.99999e-01
8.536923276e-01,5.94510e-02,9.99999e-01,9.87942e-01,6.01766e-02,9.99999e-01
8.579607893e-01,6.31376e-02,9.99999e-01,9.92547e-01,6.36116e-02,9.99999e-01
8.622505932e-01,6.68511e-02,9.99999e-01,9.95264e-01,6.71691e-02,9.99999e-01
8.665618462e-01,5.87963e-02,8.32127e-01,9.97063e-01,7.08494e-02,9.99999e-01
8.708946554e-01,1.19488e-02,1.60528e-01,9.96634e-01,7.46526e-02,9.99999e-01
8.752491287e-01,1.61149e-02,2.05913e-01,9.95501e-01,7.85787e-02,9.99999e-01
8.796253743e-01,3.35042e-02,4.07709e-01,9.93767e-01,8.26276e-02,9.99999e-01
8.840235012e-01,5.32519e-02,6.17563e-01,9.92888e-01,8.67990e-02,9.99999e-01
8.884436187e-01,7.33090e-02,8.24911e-01,9.74284e-01,9.10923e-02,9.99998e-01
8.928858368e-01,6.78167e-02,9.24502e-01,7.65195e-01,9.55069e-02,9.99995e-01
8.973502660e-01,6.16374e-02,9.81148e-01,6.26728e-01,1.00042e-01,9.99993e-01
9.018370173e-01,8.24082e-02,9.97906e-01,7.88522e-01,1.04696e-01,9.99992e-01
9.063462024e-01,8.47131e-02,9.48841e-01,8.08801e-01,1.09468e-01,9.99991e-01
9.108779334e-01,7.32307e-02,8.83876e-01,7.19264e-01,1.14358e-01,9.99990e-01
9.154323231e-01,7.98157e-02,9.71529e-01,6.86199e-01,1.19362e-01,9.99989e-01
9.200094847e-01,7.09292e-02,7.23360e-01,7.46191e-01,1.24480e-01,9.99987e-01
9.246095321e-01,4.78117e-02,5.50438e-01,6.46316e-01,1.29711e-01,9.99978e-01
9.292325798e-01,7.75504e-03,6.35061e-01,7.98899e-02,1.35050e-01,9.99954e-01
9.338787427e-01,3.44988e-03,6.39414e-01,3.43108e-02,1.40498e-01,9.99941e-01
9.385481364e-01,2.80388e-02,7.16169e-01,2.52143e-01,1.46052e-01,9.99939e-01
9.432408771e-01,2.06975e-02,8.13405e-01,1.61663e-01,1.51708e-01,9.99932e-01
9.479570815e-01,1.08844e-02,8.99130e-01,7.54274e-02,1.57466e-01,9.99941e-01
9.526968669e-01,2.08769e-02,9.50166e-01,1.32848e-01,1.63322e-01,9.99955e-01
9.574603512e-01,2.40557e-02,9.78339e-01,1.44459e-01,1.69273e-01,9.99966e-01
9.622476530e-01,3.47088e-02,9.93192e-01,1.98999e-01,1.75318e-01,9.99977e-01
9.670588912e-01,7.02187e-02,9.97957e-01,3.87595e-01,1.81452e-01,9.99985e-01
9.718941857e-01,1.00626e-01,9.99857e-01,5.36230e-01,1.87674e-01,9.99991e-01
9.767536566e-01,1.15453e-01,9.99999e-01,5.95182e-01,1.93979e-01,9.99993e-01
9.816374249e-01,1.35931e-01,9.99999e-01,6.78416e-01,2.00366e-01,9.99995e-01
9.865456120e-01,1.62067e-01,9.99999e-01,7.83573e-01,2.06831e-01,9.99997e-01
9.914783401e-01,1.83376e-01,9.99999e-01,8.59427e-01,2.13370e-01,9.99998e-01
9.964357318e-01,2.02553e-01,9.99999e-01,9.20777e-01,2.19981e-01,9.99999e-01
1.001417910e+00,2.15709e-01,9.99999e-01,9.51687e-01,2.26659e-01,9.99999e-01
1.006425000e+00,2.26897e-01,9.99999e-01,9.72122e-01,2.33403e-01,9.99999e-01
1.011457125e+00,2.36036e-01,9.99999e-01,9.82628e-01,2.40208e-01,9.99999e-01
1.016514411e+00,2.44148e-01,9.99999e-01,9.88164e-01,2.47072e-01,9.99999e-01
1.021596983e+00,2.51514e-01,9.99690e-01,9.90556e-01,2.53990e-01,9.99999e-01
1.026704968e+00,2.53636e-01,9.79107e-01,9.92625e-01,2.60959e-01,9.99999e-01
1.031838492e+00,2.29481e-01,8.60620e-01,9.94640e-01,2.67977e-01,9.99999e-01
1.036997685e+00,6.43883e-03,2.34666e-02,9.96810e-01,2.75038e-01,9.99999e-01
1.042182673e+00,5.21569e-05,1.85362e-04,9.96190e-01,2.82141e-01,9.99999e-01
1.047393587e+00,1.45859e-04,5.06245e-04,9.94955e-01,2.89282e-01,9.99999e-01
1.052630555e+00,6.20061e-11,2.10046e-10,9.93080e-01,2.96457e-01,9.99999e-01
1.057893707e+00,2.33559e-10,7.73241e-10,9.88468e-01,3.03663e-01,9.99999e-01
1.063183176e+00,9.41369e-08,3.05804e-07,9.81112e-01,3.10896e-01,9.99999e-01
1.068499092e+00,2.55729e-06,8.17097e-06,9.68611e-01,3.18154e-01,9.99999e-01
1.073841587e+00,1.37354e-04,4.32009e-04,9.63409e-01,3.25433e-01,9.99998e-01
1.079210795e+00,2.64139e-03,8.21077e-03,9.53364e-01,3.32730e-01,9.99998e-01
1.084606849e+00,1.96259e-02,6.12043e-02,9.30328e-01,3.40041e-01,9.99997e-01
1.090029883e+00,7.26452e-02,2.28842e-01,9.01573e-01,3.47364e-01,9.99995e-01
1.095480033e+00,1.30669e-01,4.80634e-01,7.54665e-01,3.54696e-01,9.99992e-01
1.100957433e+00,1.28225e-01,6.99776e-01,4.96485e-01,3.62032e-01,9.99987e-01
1.106462220e+00,6.15299e-02,8.62349e-01,1.89032e-01,3.69371e-01,9.99972e-01
1.111994531e+00,1.23535e-02,9.46436e-01,3.41670e-02,3.76710e-01,9.99945e-01
1.117554504e+00,2.19289e-03,9.86681e-01,5.74497e-03,3.84045e-01,9.99923e-01
1.123142276e+00,1.24646e-02,9.99123e-01,3.18527e-02,3.91373e-01,9.99909e-01
1.128757988e+00,3.21954e-02,9.99999e-01,8.07602e-02,3.98693e-01,9.99901e-01
1.134401778e+00,1.55851e-02,9.99999e-01,3.83910e-02,4.06001e-01,9.99889e-01
1.140073787e+00,8.31586e-02,9.99999e-01,2.01227e-01,4.13294e-01,9.99911e-01
1.145774156e+00,2.13465e-02,9.99999e-01,5.07598e-02,4.20571e-01,9.99924e-01
1.151503026e+00,1.52991e-02,9.99999e-01,3.57621e-02,4.27828e-01,9.99935e-01
1.157260541e+00,1.99641e-02,9.99999e-01,4.58899e-02,4.35064e-01,9.99950e-01
1.163046844e+00,4.42987e-02,9.99999e-01,1.00164e-01,4.42275e-01,9.99968e-01
1.168862078e+00,8.44813e-02,9.99999e-01,1.87965e-01,4.49460e-01,9.99983e-01
1.174706389e+00,1.61385e-01,9.99999e-01,3.53440e-01,4.56616e-01,9.99991e-01
1.180579921e+00,2.44496e-01,9.99999e-01,5.27226e-01,4.63741e-01,9.99994e-01
1.186482820e+00,3.26192e-01,9.99955e-01,6.92819e-01,4.70834e-01,9.99995e-01
1.192415234e+00,3.60589e-01,9.32100e-01,8.06177e-01,4.77891e-01,9.99995e-01
1.198377311e+00,1.96841e-01,4.71788e-01,8.33980e-01,4.84912e-01,9.99996e-01
1.204369197e+00,7.54245e-53,1.69392e-52,8.43076e-01,4.91895e-01,9.99996e-01
1.210391043e+00,1.67563e-219,3.68113e-219,8.48885e-01,4.98837e-01,9.99997e-01
1.216442998e+00,1.06590e-189,2.29863e-189,8.70028e-01,5.05737e-01,9.99998e-01
1.222525213e+00,8.22810e-187,1.69800e-186,8.96903e-01,5.12593e-01,9.99998e-01
1.228637839e+00,1.02000e-143,2.06629e-143,9.27145e-01,5.19404e-01,9.99999e-01
1.234781029e+00,1.09058e-88,2.12368e-88,9.45417e-01,5.26168e-01,9.99999e-01
1.240954934e+00,2.52698e-58,4.84445e-58,9.65104e-01,5.32885e-01,9.99999e-01
1.247159708e+00,4.33945e-27,8.17511e-27,9.72718e-01,5.39552e-01,9.99999e-01
1.253395507e+00,1.86816e-18,3.47816e-18,9.75724e-01,5.46168e-01,9.99999e-01
1.259662485e+00,1.59779e-10,2.93743e-10,9.76901e-01,5.52732e-01,9.99999e-01
1.265960797e+00,4.76518e-06,8.70938e-06,9.63405e-01,5.59243e-01,9.99998e-01
1.272290601e+00,1.60187e-03,2.95303e-03,9.43086e-01,5.65700e-01,9.99998e-01
1.278652054e+00,1.74832e-03,3.26839e-03,8.90509e-01,5.72101e-01,9.99997e-01
1.285045314e+00,6.79781e-08,1.27841e-07,8.11267e-01,5.78447e-01,9.99995e-01
1.291470541e+00,8.75122e-25,1.81898e-24,6.95253e-01,5.84735e-01,9.99992e-01
1.297927893e+00,7.55630e-08,1.58379e-07,5.98803e-01,5.90966e-01,9.99986e-01
1.304417533e+00,8.01382e-06,2.04287e-05,5.49837e-01,5.97138e-01,9.99976e-01
1.310939621e+00,2.61408e-06,6.36964e-06,5.03819e-01,6.03250e-01,9.99959e-01
1.317494319e+00,1.29546e-73,3.20762e-73,4.78223e-01,6.09303e-01,9.99932e-01
1.324081790e+00,8.92705e-48,2.41656e-47,3.41013e-01,6.15295e-01,9.99890e-01
1.330702199e+00,8.95869e-29,4.62425e-28,6.27246e-02,6.21226e-01,9.99816e-01
1.337355710e+00,1.95117e-28,3.44979e-25,1.12482e-04,6.27095e-01,9.99649e-01
1.344042489e+00,3.34529e-30,2.32076e-25,6.83833e-07,6.32902e-01,9.99249e-01
1.350762701e+00,8.13371e-48,1.91809e-28,3.80264e-21,6.38647e-01,9.98802e-01
1.357516515e+00,4.22666e-46,1.75170e-16,1.20390e-31,6.44328e-01,9.98516e-01
1.364304097e+00,7.64769e-30,2.99727e-12,2.69126e-19,6.49947e-01,9.98410e-01
1.371125618e+00,4.43024e-17,1.41799e-06,1.00056e-11,6.55502e-01,9.98397e-01
1.377981246e+00,9.83521e-16,7.83562e-06,3.02504e-11,6.60993e-01,9.98278e-01
1.384871152e+00,9.04904e-19,9.64984e-04,4.93081e-16,6.66421e-01,9.98326e-01
1.391795508e+00,8.08872e-22,1.84299e-03,1.37980e-19,6.71785e-01,9.98581e-01
1.398754485e+00,9.35222e-17,1.65572e-02,4.60440e-15,6.77084e-01,9.98781e-01
1.405748258e+00,2.91648e-16,5.24330e-02,4.91615e-15,6.82320e-01,9.98906e-01
1.412776999e+00,2.04728e-15,1.50884e-01,1.10669e-14,6.87491e-01,9.99121e-01
1.419840884e+00,3.12511e-15,1.58540e-01,1.67907e-14,6.92598e-01,9.99343e-01
1.426940089e+00,7.17425e-11,3.84185e-03,8.28339e-10,6.97641e-01,9.99593e-01
1.434074789e+00,0.00000e+00,0.00000e+00,1.31465e-08,7.02621e-01,9.99746e-01
1.441245163e+00,0.00000e+00,0.00000e+00,3.57027e-07,7.07536e-01,9.99802e-01
1.448451389e+00,0.00000e+00,0.00000e+00,4.99067e-05,7.12388e-01,9.99836e-01
1.455693646e+00,0.00000e+00,0.00000e+00,1.19340e-03,7.17176e-01,9.99864e-01
1.462972114e+00,0.00000e+00,0.00000e+00,1.71916e-03,7.21900e-01,9.99884e-01
1.470286975e+00,0.00000e+00,0.00000e+00,7.06875e-04,7.26562e-01,9.99896e-01
