#,Wave/freq,Total,CO2,H2O,Rayleigh,CIA
4.000000000e-01,2.61680e-12,9.99999e-01,9.99947e-01,2.61693e-12,9.99999e-01
4.020000000e-01,4.43389e-12,9.99999e-01,9.99967e-01,4.43403e-12,9.99999e-01
4.040100000e-01,7.43099e-12,9.99999e-01,9.99985e-01,7.43109e-12,9.99999e-01
4.060300500e-01,1.23275e-11,9.99999e-01,9.99996e-01,1.23276e-11,9.99999e-01
4.080602003e-01,2.02469e-11,9.99999e-01,9.99998e-01,2.02469e-11,9.99999e-01
4.101005013e-01,3.29295e-11,9.99999e-01,9.99999e-01,3.29295e-11,9.99999e-01
4.121510038e-01,5.30442e-11,9.99999e-01,9.99997e-01,5.30443e-11,9.99999e-01
4.142117588e-01,8.46440e-11,9.99999e-01,9.99984e-01,8.46452e-11,9.99999e-01
4.162828176e-01,1.33823e-10,9.99999e-01,9.99935e-01,1.33831e-10,9.99999e-01
4.183642317e-01,2.09684e-10,9.99999e-01,9.99961e-01,2.09692e-10,9.99999e-01
4.204560528e-01,3.25645e-10,9.99999e-01,9.99976e-01,3.25653e-10,9.99999e-01
4.225583331e-01,5.01358e-10,9.99999e-01,9.99990e-01,5.01362e-10,9.99999e-01
4.246711247e-01,7.65321e-10,9.99999e-01,9.99992e-01,7.65326e-10,9.99999e-01
4.267944804e-01,1.15853e-09,9.99999e-01,9.99989e-01,1.15855e-09,9.99999e-01
4.289284528e-01,1.73948e-09,9.99999e-01,9.99991e-01,1.73949e-09,9.99999e-01
4.310730950e-01,2.59087e-09,9.99999e-01,9.99996e-01,2.59088e-09,9.99999e-01
4.332284605e-01,3.82870e-09,9.99999e-01,9.99998e-01,3.82871e-09,9.99999e-01
4.353946028e-01,5.61445e-09,9.99999e-01,9.99999e-01,5.61446e-09,9.99999e-01
4.375715758e-01,8.17102e-09,9.99999e-01,9.99992e-01,8.17108e-09,9.99999e-01
4.397594337e-01,1.18034e-08,9.99999e-01,9.99941e-01,1.18041e-08,9.99999e-01
4.419582309e-01,1.69239e-08,9.99999e-01,9.99705e-01,1.69289e-08,9.99999e-01
4.441680220e-01,2.41010e-08,9.99999e-01,9.99776e-01,2.41064e-08,9.99999e-01
4.463888621e-01,3.40803e-08,9.99999e-01,9.99765e-01,3.40882e-08,9.99999e-01
4.486208064e-01,4.78676e-08,9.99999e-01,9.99855e-01,4.78745e-08,9.99999e-01
4.508639105e-01,6.67822e-08,9.99999e-01,9.99931e-01,6.67867e-08,9.99999e-01
4.531182300e-01,9.25569e-08,9.99999e-01,9.99972e-01,9.25593e-08,9.99999e-01
4.553838212e-01,1.27451e-07,9.99999e-01,9.99981e-01,1.27453e-07,9.99999e-01
4.576607403e-01,1.74395e-07,9.99999e-01,9.99991e-01,1.74396e-07,9.99999e-01
4.599490440e-01,2.37154e-07,9.99999e-01,9.99993e-01,2.37156e-07,9.99999e-01
4.622487892e-01,3.20548e-07,9.99999e-01,9.99998e-01,3.20548e-07,9.99999e-01
4.645600332e-01,4.30691e-07,9.99999e-01,9.99995e-01,4.30693e-07,9.99999e-01
4.668828333e-01,5.75279e-07,9.99999e-01,9.99930e-01,5.75319e-07,9.99999e-01
4.692172475e-01,7.64016e-07,9.99999e-01,9.99852e-01,7.64128e-07,9.99999e-01
4.715633337e-01,1.00913e-06,9.99999e-01,9.99903e-01,1.00923e-06,9.99999e-01
4.739211504e-01,1.32552e-06,9.99999e-01,9.99908e-01,1.32564e-06,9.99999e-01
4.762907561e-01,1.73181e-06,9.99999e-01,9.99952e-01,1.73189e-06,9.99999e-01
4.786722099e-01,2.25069e-06,9.99999e-01,9.99980e-01,2.25074e-06,9.99999e-01
4.810655710e-01,2.90990e-06,9.99999e-01,9.99993e-01,2.90992e-06,9.99999e-01
4.834708988e-01,3.74289e-06,9.99999e-01,9.99941e-01,3.74311e-06,9.99999e-01
4.858882533e-01,4.79049e-06,9.99999e-01,9.99896e-01,4.79098e-06,9.99999e-01
4.883176946e-01,6.10185e-06,9.99999e-01,9.99912e-01,6.10238e-06,9.99999e-01
4.907592831e-01,7.73508e-06,9.99999e-01,9.99921e-01,7.73568e-06,9.99999e-01
4.932130795e-01,9.75977e-06,9.99999e-01,9.99943e-01,9.76031e-06,9.99999e-01
4.956791449e-01,1.22580e-05,9.99999e-01,9.99970e-01,1.22584e-05,9.99999e-01
4.981575406e-01,1.53245e-05,9.99999e-01,9.99850e-01,1.53267e-05,9.99999e-01
5.006483283e-01,1.90713e-05,9.99999e-01,9.99611e-01,1.90787e-05,9.99999e-01
5.031515699e-01,2.36007e-05,9.99999e-01,9.98054e-01,2.36467e-05,9.99999e-01
5.056673278e-01,2.91545e-05,9.99999e-01,9.98977e-01,2.91843e-05,9.99999e-01
5.081956644e-01,3.58232e-05,9.99999e-01,9.98711e-01,3.58694e-05,9.99999e-01
5.107366428e-01,4.38684e-05,9.99999e-01,9.99130e-01,4.39065e-05,9.99999e-01
5.132903260e-01,5.35038e-05,9.99999e-01,9.99503e-01,5.35303e-05,9.99999e-01
5.158567776e-01,6.49950e-05,9.99999e-01,9.99790e-01,6.50086e-05,9.99999e-01
5.184360615e-01,7.86391e-05,9.99999e-01,9.99915e-01,7.86457e-05,9.99999e-01
5.210282418e-01,9.47833e-05,9.99999e-01,9.99967e-01,9.47863e-05,9.99999e-01
5.236333830e-01,1.13805e-04,9.99999e-01,9.99873e-01,1.13819e-04,9.99999e-01
5.262515499e-01,1.36169e-04,9.99999e-01,9.99920e-01,1.36180e-04,9.99999e-01
5.288828077e-01,1.62347e-04,9.99999e-01,9.99926e-01,1.62358e-04,9.99999e-01
5.315272217e-01,1.92886e-04,9.99999e-01,9.99936e-01,1.92898e-04,9.99999e-01
5.341848578e-01,2.28393e-04,9.99999e-01,9.99957e-01,2.28403e-04,9.99999e-01
5.368557821e-01,2.69502e-04,9.99999e-01,9.99851e-01,2.69542e-04,9.99999e-01
5.395400610e-01,3.16881e-04,9.99999e-01,9.99459e-01,3.17052e-04,9.99999e-01
5.422377613e-01,3.71488e-04,9.99999e-01,9.99315e-01,3.71742e-04,9.99999e-01
5.449489501e-01,4.34219e-04,9.99999e-01,9.99357e-01,4.34498e-04,9.99999e-01
5.476736949e-01,5.06001e-04,9.99999e-01,9.99436e-01,5.06286e-04,9.99999e-01
5.504120634e-01,5.87915e-04,9.99999e-01,9.99590e-01,5.88155e-04,9.99999e-01
5.531641237e-01,6.81104e-04,9.99999e-01,9.99794e-01,6.81244e-04,9.99999e-01
5.559299443e-01,7.86701e-04,9.99999e-01,9.99900e-01,7.86779e-04,9.99999e-01
5.587095940e-01,9.06025e-04,9.99999e-01,9.99937e-01,9.06082e-04,9.99999e-01
5.615031420e-01,1.04050e-03,9.99999e-01,9.99929e-01,1.04057e-03,9.99999e-01
5.643106577e-01,1.19166e-03,9.99999e-01,9.99919e-01,1.19176e-03,9.99999e-01
5.671322110e-01,1.35992e-03,9.99999e-01,9.99017e-01,1.36126e-03,9.99999e-01
5.699678720e-01,1.54922e-03,9.99999e-01,9.98990e-01,1.55078e-03,9.99999e-01
5.728177114e-01,1.76028e-03,9.99999e-01,9.98934e-01,1.76216e-03,9.99999e-01
5.756818000e-01,1.99535e-03,9.99999e-01,9.99024e-01,1.99730e-03,9.99999e-01
5.785602090e-01,2.25630e-03,9.99999e-01,9.99151e-01,2.25822e-03,9.99999e-01
5.814530100e-01,2.54486e-03,9.99999e-01,9.99145e-01,2.54704e-03,9.99999e-01
5.843602750e-01,2.86303e-03,9.99999e-01,9.98971e-01,2.86597e-03,9.99999e-01
5.872820764e-01,3.18898e-03,9.99999e-01,9.91184e-01,3.21734e-03,9.99999e-01
5.902184868e-01,3.56550e-03,9.99999e-01,9.89440e-01,3.60355e-03,9.99999e-01
5.931695792e-01,3.99691e-03,9.99999e-01,9.92505e-01,4.02709e-03,9.99999e-01
5.961354271e-01,4.45375e-03,9.99999e-01,9.91806e-01,4.49054e-03,9.99999e-01
5.991161043e-01,4.96672e-03,9.99999e-01,9.94026e-01,4.99656e-03,9.99999e-01
6.021116848e-01,5.52910e-03,9.99999e-01,9.96611e-01,5.54790e-03,9.99999e-01
6.051222432e-01,6.13680e-03,9.99999e-01,9.98285e-01,6.14734e-03,9.99999e-01
6.081478544e-01,6.79273e-03,9.99999e-01,9.99258e-01,6.79777e-03,9.99999e-01
6.111885937e-01,7.49975e-03,9.99999e-01,9.99687e-01,7.50209e-03,9.99999e-01
6.142445367e-01,8.26213e-03,9.99999e-01,9.99859e-01,8.26329e-03,9.99999e-01
6.173157594e-01,9.08366e-03,9.99999e-01,9.99922e-01,9.08436e-03,9.99999e-01
6.204023382e-01,9.96769e-03,9.99999e-01,9.99933e-01,9.96834e-03,9.99999e-01
6.235043498e-01,1.09151e-02,9.99999e-01,9.99704e-01,1.09183e-02,9.99999e-01
6.266218716e-01,1.19190e-02,9.99999e-01,9.98469e-01,1.19373e-02,9.99999e-01
6.297549810e-01,1.30211e-02,9.99999e-01,9.99438e-01,1.30284e-02,9.99999e-01
6.329037559e-01,1.41791e-02,9.99999e-01,9.98894e-01,1.41948e-02,9.99999e-01
6.360682746e-01,1.54247e-02,9.99999e-01,9.99053e-01,1.54393e-02,9.99999e-01
6.392486160e-01,1.67446e-02,9.99999e-01,9.98776e-01,1.67651e-02,9.99999e-01
6.424448591e-01,1.81452e-02,9.99999e-01,9.98346e-01,1.81752e-02,9.99999e-01
6.456570834e-01,1.95219e-02,9.99999e-01,9.92343e-01,1.96725e-02,9.99999e-01
6.488853688e-01,2.11422e-02,9.99999e-01,9.94468e-01,2.12598e-02,9.99999e-01
6.521297956e-01,2.28107e-02,9.99999e-01,9.94363e-01,2.29400e-02,9.99999e-01
6.553904446e-01,2.45763e-02,9.99999e-01,9.94352e-01,2.47159e-02,9.99999e-01
6.586673968e-01,2.64621e-02,9.99999e-01,9.95188e-01,2.65901e-02,9.99999e-01
6.619607338e-01,2.84884e-02,9.99999e-01,9.97317e-01,2.85650e-02,9.99999e-01
6.652705375e-01,3.05940e-02,9.99999e-01,9.98389e-01,3.06433e-02,9.99999e-01
6.685968902e-01,3.28048e-02,9.99999e-01,9.99315e-01,3.28273e-02,9.99999e-01
6.719398746e-01,3.51069e-02,9.99999e-01,9.99653e-01,3.51190e-02,9.99999e-01
6.752995740e-01,3.75139e-02,9.99999e-01,9.99816e-01,3.75208e-02,9.99999e-01
6.786760719e-01,4.00234e-02,9.99999e-01,9.99724e-01,4.00344e-02,9.99999e-01
6.820694522e-01,4.26416e-02,9.99999e-01,9.99527e-01,4.26618e-02,9.99999e-01
6.854797995e-01,4.53771e-02,9.99999e-01,9.99396e-01,4.54045e-02,9.99999e-01
6.889071985e-01,4.81924e-02,9.99999e-01,9.98513e-01,4.82641e-02,9.99999e-01
6.923517345e-01,5.00267e-02,9.99999e-01,9.76282e-01,5.12420e-02,9.99999e-01
6.958134932e-01,5.36831e-02,9.99999e-01,9.87924e-01,5.43393e-02,9.99999e-01
6.992925606e-01,5.68788e-02,9.99999e-01,9.88215e-01,5.75571e-02,9.99999e-01
7.027890234e-01,6.00200e-02,9.99999e-01,9.85612e-01,6.08962e-02,9.99999e-01
7.063029686e-01,6.35768e-02,9.99999e-01,9.87872e-01,6.43572e-02,9.99999e-01
7.098344834e-01,6.71500e-02,9.99999e-01,9.88360e-01,6.79408e-02,9.99999e-01
7.133836558e-01,7.05216e-02,9.99999e-01,9.84290e-01,7.16471e-02,9.99998e-01
7.169505741e-01,6.65719e-02,9.99999e-01,8.82022e-01,7.54764e-02,9.99998e-01
7.205353270e-01,7.47906e-02,9.99999e-01,9.41607e-01,7.94287e-02,9.99997e-01
7.241380036e-01,7.72334e-02,9.99999e-01,9.24911e-01,8.35037e-02,9.99997e-01
7.277586936e-01,8.17450e-02,9.99999e-01,9.32088e-01,8.77010e-02,9.99998e-01
7.313974871e-01,8.54278e-02,9.99999e-01,9.28360e-01,9.20201e-02,9.99998e-01
7.350544745e-01,9.26101e-02,9.99999e-01,9.60084e-01,9.64603e-02,9.99998e-01
7.387297469e-01,9.80378e-02,9.99999e-01,9.70471e-01,1.01021e-01,9.99999e-01
7.424233956e-01,1.04165e-01,9.99999e-01,9.85478e-01,1.05700e-01,9.99999e-01
7.461355126e-01,1.09521e-01,9.99999e-01,9.91158e-01,1.10498e-01,9.99999e-01
7.498661902e-01,1.14937e-01,9.99999e-01,9.95889e-01,1.15411e-01,9.99999e-01
7.536155211e-01,1.20196e-01,9.99999e-01,9.97974e-01,1.20440e-01,9.99999e-01
7.573835987e-01,1.25452e-01,9.99999e-01,9.98957e-01,1.25582e-01,9.99999e-01
7.611705167e-01,1.30751e-01,9.99999e-01,9.99351e-01,1.30836e-01,9.99999e-01
7.649763693e-01,1.36144e-01,9.99999e-01,9.99592e-01,1.36199e-01,9.99999e-01
7.688012511e-01,1.41629e-01,9.99999e-01,9.99715e-01,1.41669e-01,9.99999e-01
7.726452574e-01,1.47211e-01,9.99999e-01,9.99765e-01,1.47245e-01,9.99999e-01
7.765084837e-01,1.52872e-01,9.99999e-01,9.99664e-01,1.52923e-01,9.99999e-01
7.803910261e-01,1.46073e-01,9.21663e-01,9.98548e-01,1.58702e-01,9.99999e-01
7.842929812e-01,1.13156e-01,6.90680e-01,9.94940e-01,1.64578e-01,9.99999e-01
7.882144461e-01,1.13784e-01,6.73487e-01,9.89710e-01,1.70550e-01,9.99999e-01
7.921555184e-01,1.38157e-01,7.86426e-01,9.94383e-01,1.76614e-01,9.99999e-01
7.961162960e-01,1.54098e-01,8.51517e-01,9.89949e-01,1.82767e-01,9.99999e-01
8.000968774e-01,1.71202e-01,9.16279e-01,9.88478e-01,1.89007e-01,9.99999e-01
8.040973618e-01,1.84565e-01,9.55872e-01,9.88456e-01,1.95330e-01,9.99999e-01
8.081178486e-01,1.92454e-01,9.79383e-01,9.73994e-01,2.01733e-01,9.99998e-01
8.121584379e-01,1.85519e-01,9.93671e-01,8.96536e-01,2.08214e-01,9.99998e-01
8.162192301e-01,1.88742e-01,9.98597e-01,8.79993e-01,2.14769e-01,9.99997e-01
8.203003262e-01,2.07600e-01,9.99980e-01,9.37709e-01,2.21394e-01,9.99997e-01
8.244018279e-01,2.09143e-01,9.99999e-01,9.16946e-01,2.28087e-01,9.99997e-01
8.285238370e-01,2.17412e-01,9.99999e-01,9.25772e-01,2.34844e-01,9.99998e-01
8.326664562e-01,2.23643e-01,9.99999e-01,9.25439e-01,2.41662e-01,9.99998e-01
8.368297885e-01,2.35147e-01,9.99999e-01,9.46122e-01,2.48537e-01,9.99998e-01
8.410139374e-01,2.47197e-01,9.99999e-01,9.67629e-01,2.55466e-01,9.99999e-01
8.452190071e-01,2.58251e-01,9.99999e-01,9.84014e-01,2.62446e-01,9.99999e-01
8.494451021e-01,2.66954e-01,9.99999e-01,9.90650e-01,2.69473e-01,9.99999e-01
8.536923276e-01,2.75019e-01,9.99999e-01,9.94484e-01,2.76544e-01,9.99999e-01
8.579607893e-01,2.82688e-01,9.99999e-01,9.96587e-01,2.83655e-01,9.99999e-01
8.622505932e-01,2.90175e-01,9.99999e-01,9.97837e-01,2.90804e-01,9.99999e-01
8.665618462e-01,2.60086e-01,8.73914e-01,9.98655e-01,2.97985e-01,9.99999e-01
8.708946554e-01,1.21192e-01,3.97661e-01,9.98456e-01,3.05198e-01,9.99999e-01
8.752491287e-01,1.46001e-01,4.68206e-01,9.97938e-01,3.12437e-01,9.99999e-01
8.796253743e-01,2.08538e-01,6.54041e-01,9.97134e-01,3.19699e-01,9.99999e-01
8.840235012e-01,2.60734e-01,7.99913e-01,9.96731e-01,3.26982e-01,9.99999e-01
8.884436187e-01,3.02495e-01,9.15740e-01,9.87875e-01,3.34282e-01,9.99998e-01
8.928858368e-01,2.90877e-01,9.64844e-01,8.81843e-01,3.41596e-01,9.99997e-01
8.973502660e-01,2.77960e-01,9.91401e-01,8.03188e-01,3.48921e-01,9.99996e-01
9.018370173e-01,3.18638e-01,9.99052e-01,8.95196e-01,3.56254e-01,9.99996e-01
9.063462024e-01,3.21552e-01,9.75221e-01,9.05102e-01,3.63592e-01,9.99995e-01
9.108779334e-01,3.00878e-01,9.44996e-01,8.56918e-01,3.70931e-01,9.99995e-01
9.154323231e-01,3.13501e-01,9.86984e-01,8.39141e-01,3.78269e-01,9.99995e-01
9.200094847e-01,2.85730e-01,8.36367e-01,8.72288e-01,3.85602e-01,9.99993e-01
9.246095321e-01,2.43350e-01,7.58755e-01,8.07699e-01,3.92929e-01,9.99989e-01
9.292325798e-01,8.72604e-02,8.05657e-01,2.59258e-01,4.00247e-01,9.99978e-01
9.338787427e-01,6.17823e-02,8.11950e-01,1.79620e-01,4.07552e-01,9.99972e-01
9.385481364e-01,1.80241e-01,8.57189e-01,4.97755e-01,4.14842e-01,9.99972e-01
9.432408771e-01,1.49707e-01,9.09889e-01,3.85700e-01,4.22115e-01,9.99968e-01
9.479570815e-01,1.11313e-01,9.52561e-01,2.70722e-01,4.29367e-01,9.99972e-01
9.526968669e-01,1.57158e-01,9.76917e-01,3.67056e-01,4.36598e-01,9.99979e-01
9.574603512e-01,1.69978e-01,9.90068e-01,3.86281e-01,4.43804e-01,9.99984e-01
9.622476530e-01,2.05862e-01,9.96897e-01,4.57704e-01,4.50982e-01,9.99989e-01
9.670588912e-01,2.90499e-01,9.99071e-01,6.34616e-01,4.58132e-01,9.99993e-01
9.718941857e-01,3.48069e-01,9.99935e-01,7.48173e-01,4.65251e-01,9.99995e-01
9.767536566e-01,3.71103e-01,9.99999e-01,7.85677e-01,4.72336e-01,9.99996e-01
9.816374249e-01,4.00898e-01,9.99999e-01,8.36275e-01,4.79386e-01,9.99997e-01
9.865456120e-01,4.34904e-01,9.99999e-01,8.94130e-01,4.86399e-01,9.99998e-01
9.914783401e-01,4.60333e-01,9.99999e-01,9.33031e-01,4.93373e-01,9.99999e-01
9.964357318e-01,4.81775e-01,9.99999e-01,9.62960e-01,5.00306e-01,9.99999e-01
1.001417910e+00,4.95858e-01,9.99999e-01,9.77643e-01,5.07197e-01,9.99999e-01
1.006425000e+00,5.07442e-01,9.99999e-01,9.87156e-01,5.14044e-01,9.99999e-01
1.011457125e+00,5.16697e-01,9.99999e-01,9.92035e-01,5.20845e-01,9.99999e-01
1.016514411e+00,5.24739e-01,9.99999e-01,9.94577e-01,5.27599e-01,9.99999e-01
1.021596983e+00,5.31911e-01,9.99844e-01,9.95673e-01,5.34305e-01,9.99999e-01
1.026704968e+00,5.33814e-01,9.90120e-01,9.96621e-01,5.40962e-01,9.99999e-01
1.031838492e+00,4.97777e-01,9.11183e-01,9.97550e-01,5.47567e-01,9.99999e-01
1.036997685e+00,3.38118e-02,6.10865e-02,9.98540e-01,5.54120e-01,9.99999e-01
1.042182673e+00,4.45670e-03,7.96059e-03,9.98251e-01,5.60619e-01,9.99999e-01
1.047393587e+00,9.77128e-03,1.72649e-02,9.97687e-01,5.67064e-01,9.99999e-01
1.052630555e+00,4.30109e-06,7.51567e-06,9.96822e-01,5.73454e-01,9.99999e-01
1.057893707e+00,1.63688e-05,2.83143e-05,9.94690e-01,5.79788e-01,9.99999e-01
1.063183176e+00,2.41156e-04,4.13647e-04,9.91289e-01,5.86064e-01,9.99999e-01
1.068499092e+00,1.80251e-03,3.07469e-03,9.85484e-01,5.92282e-01,9.99999e-01
1.073841587e+00,1.46127e-02,2.47330e-02,9.83002e-01,5.98442e-01,9.99999e-01
1.079210795e+00,5.78007e-02,9.73272e-02,9.78349e-01,6.04541e-01,9.99998e-01
1.084606849e+00,1.59773e-01,2.69590e-01,9.67352e-01,6.10581e-01,9.99998e-01
1.090029883e+00,2.96829e-01,5.03485e-01,9.53123e-01,6.16560e-01,9.99997e-01
1.095480033e+00,3.90837e-01,7.12812e-01,8.77780e-01,6.22478e-01,9.99996e-01
1.100957433e+00,3.85592e-01,8.48864e-01,7.19843e-01,6.28334e-01,9.99993e-01
1.106462220e+00,2.63948e-01,9.34533e-01,4.42927e-01,6.34128e-01,9.99987e-01
1.111994531e+00,1.18060e-01,9.75190e-01,1.88477e-01,6.39859e-01,9.99974e-01
1.117554504e+00,4.63156e-02,9.93926e-01,7.20320e-02,6.45527e-01,9.99964e-01
1.123142276e+00,1.05635e-01,9.99603e-01,1.62251e-01,6.51132e-01,9.99958e-01
1.128757988e+00,1.88834e-01,9.99999e-01,2.87575e-01,6.56674e-01,9.99954e-01
1.134401778e+00,8.81876e-02,9.99999e-01,1.33190e-01,6.62152e-01,9.99949e-01
1.140073787e+00,3.08544e-01,9.99999e-01,4.62211e-01,6.67566e-01,9.99959e-01
1.145774156e+00,1.45970e-01,9.99999e-01,2.16929e-01,6.72916e-01,9.99965e-01
1.151503026e+00,1.25271e-01,9.99999e-01,1.84716e-01,6.78202e-01,9.99970e-01
1.157260541e+00,1.54450e-01,9.99999e-01,2.25999e-01,6.83424e-01,9.99977e-01
1.163046844e+00,2.27988e-01,9.99999e-01,3.31103e-01,6.88581e-01,9.99985e-01
1.168862078e+00,3.16556e-01,9.99999e-01,4.56349e-01,6.93675e-01,9.99992e-01
1.174706389e+00,4.30011e-01,9.99999e-01,6.15442e-01,6.98705e-01,9.99996e-01
1.180579921e+00,5.23042e-01,9.99999e-01,7.43307e-01,7.03670e-01,9.99997e-01
1.186482820e+00,5.98603e-01,9.99975e-01,8.44820e-01,7.08572e-01,9.99997e-01
1.192415234e+00,6.24874e-01,9.65830e-01,9.06003e-01,7.13410e-01,9.99997e-01
1.198377311e+00,3.52107e-01,5.25474e-01,9.20035e-01,7.18185e-01,9.99998e-01
1.204369197e+00,2.12481e-25,3.07631e-25,9.24395e-01,7.22896e-01,9.99998e-01
1.210391043e+00,1.22395e-101,1.75425e-101,9.27508e-01,7.27544e-01,9.99998e-01
1.216442998e+00,5.26527e-88,7.48290e-88,9.38148e-01,7.32130e-01,9.99998e-01
1.222525213e+00,1.10411e-86,1.53786e-86,9.51406e-01,7.36653e-01,9.99999e-01
1.228637839e+00,6.15625e-67,8.50321e-67,9.65966e-01,7.41113e-01,9.99999e-01
1.234781029e+00,8.55081e-42,1.15979e-41,9.74656e-01,7.45512e-01,9.99999e-01
1.240954934e+00,8.62057e-28,1.16128e-27,9.83880e-01,7.49849e-01,9.99999e-01
1.247159708e+00,1.29671e-13,1.73238e-13,9.87437e-01,7.54126e-01,9.99999e-01
1.253395507e+00,3.29423e-09,4.37855e-09,9.88819e-01,7.58341e-01,9.99999e-01
1.259662485e+00,1.35789e-05,1.79474e-05,9.89347e-01,7.62496e-01,9.99999e-01
1.265960797e+00,1.78158e-03,2.35023e-03,9.83078e-01,7.66591e-01,9.99999e-01
1.272290601e+00,4.61137e-02,6.11816e-02,9.73441e-01,7.70626e-01,9.99998e-01
1.278652054e+00,3.95276e-02,5.28930e-02,9.47983e-01,7.74602e-01,9.99998e-01
1.285045314e+00,8.32754e-05,1.11219e-04,9.07707e-01,7.78520e-01,9.99997e-01
1.291470541e+00,3.02412e-12,4.25118e-12,8.44861e-01,7.82379e-01,9.99996e-01
1.297927893e+00,9.57802e-05,1.34668e-04,7.87347e-01,7.86181e-01,9.99993e-01
1.304417533e+00,3.67536e-03,5.80867e-03,7.55760e-01,7.89926e-01,9.99988e-01
1.310939621e+00,6.70804e-04,1.01239e-03,7.01983e-01,7.93614e-01,9.99981e-01
1.317494319e+00,2.42003e-35,3.67696e-35,7.07169e-01,7.97246e-01,9.99968e-01
1.324081790e+00,1.53191e-16,2.41574e-16,6.01051e-01,8.00822e-01,9.99949e-01
1.330702199e+00,5.70598e-14,1.50288e-13,1.88569e-01,8.04343e-01,9.99915e-01
1.337355710e+00,6.09823e-14,2.38565e-12,6.84416e-03,8.07810e-01,9.99839e-01
1.344042489e+00,1.01490e-18,6.20648e-15,9.02393e-06,8.11223e-01,9.99656e-01
1.350762701e+00,5.31407e-23,7.90469e-14,9.48165e-11,8.14582e-01,9.99451e-01
1.357516515e+00,2.69065e-22,1.41828e-08,1.28437e-15,8.17888e-01,9.99320e-01
1.364304097e+00,9.55865e-15,2.92712e-06,7.49016e-10,8.21142e-01,9.99272e-01
1.371125618e+00,6.11286e-09,1.51211e-03,1.76390e-06,8.24345e-01,9.99266e-01
1.377981246e+00,4.20234e-08,3.74640e-03,5.65586e-06,8.27496e-01,9.99211e-01
1.384871152e+00,8.31640e-10,3.84291e-02,1.48535e-08,8.30597e-01,9.99233e-01
1.391795508e+00,6.08742e-11,4.98310e-02,7.05590e-10,8.33648e-01,9.99350e-01
1.398754485e+00,1.03618e-08,1.51905e-01,6.44610e-08,8.36649e-01,9.99441e-01
1.405748258e+00,1.74887e-08,2.53478e-01,6.41385e-08,8.39602e-01,9.99499e-01
1.412776999e+00,3.29166e-08,4.18083e-01,7.20095e-08,8.42506e-01,9.99597e-01
1.419840884e+00,6.70048e-08,3.78337e-01,1.45834e-07,8.45363e-01,9.99699e-01
1.426940089e+00,3.45917e-06,1.57579e-02,1.19916e-05,8.48172e-01,9.99813e-01
1.434074789e+00,0.00000e+00,0.00000e+00,1.00248e-04,8.50936e-01,9.99883e-01
1.441245163e+00,0.00000e+00,0.00000e+00,5.39198e-04,8.53653e-01,9.99909e-01
1.448451389e+00,0.00000e+00,0.00000e+00,5.63128e-03,8.56325e-01,9.99924e-01
1.455693646e+00,0.00000e+00,0.00000e+00,2.92253e-02,8.58953e-01,9.99937e-01
1.462972114e+00,0.00000e+00,0.00000e+00,4.13313e-02,8.61536e-01,9.99946e-01
1.470286975e+00,3.43920e-169,3.77263e-168,2.54036e-02,8.64076e-01,9.99952e-01
