#,Wave/freq,Total,CO2,H2O,Rayleigh,CIA
4.000000000e-01,9.51824e-20,9.99999e-01,9.99914e-01,9.51905e-20,9.99999e-01
4.020000000e-01,2.26292e-19,9.99999e-01,9.99946e-01,2.26304e-19,9.99999e-01
4.040100000e-01,5.28413e-19,9.99999e-01,9.99977e-01,5.28425e-19,9.99999e-01
4.060300500e-01,1.21338e-18,9.99999e-01,9.99994e-01,1.21339e-18,9.99999e-01
4.080602003e-01,2.74085e-18,9.99999e-01,9.99997e-01,2.74085e-18,9.99999e-01
4.101005013e-01,6.09229e-18,9.99999e-01,9.99999e-01,6.09229e-18,9.99999e-01
4.121510038e-01,1.33298e-17,9.99999e-01,9.99996e-01,1.33298e-17,9.99999e-01
4.142117588e-01,2.87171e-17,9.99999e-01,9.99975e-01,2.87178e-17,9.99999e-01
4.162828176e-01,6.09322e-17,9.99999e-01,9.99893e-01,6.09387e-17,9.99999e-01
4.183642317e-01,1.27396e-16,9.99999e-01,9.99936e-01,1.27404e-16,9.99999e-01
4.204560528e-01,2.62498e-16,9.99999e-01,9.99960e-01,2.62509e-16,9.99999e-01
4.225583331e-01,5.33209e-16,9.99999e-01,9.99985e-01,5.33217e-16,9.99999e-01
4.246711247e-01,1.06802e-15,9.99999e-01,9.99987e-01,1.06804e-15,9.99999e-01
4.267944804e-01,2.11009e-15,9.99999e-01,9.99982e-01,2.11012e-15,9.99999e-01
4.289284528e-01,4.11324e-15,9.99999e-01,9.99986e-01,4.11329e-15,9.99999e-01
4.310730950e-01,7.91302e-15,9.99999e-01,9.99993e-01,7.91307e-15,9.99999e-01
4.332284605e-01,1.50275e-14,9.99999e-01,9.99998e-01,1.50275e-14,9.99999e-01
4.353946028e-01,2.81791e-14,9.99999e-01,9.99998e-01,2.81792e-14,9.99999e-01
4.375715758e-01,5.21880e-14,9.99999e-01,9.99988e-01,5.21886e-14,9.99999e-01
4.397594337e-01,9.54763e-14,9.99999e-01,9.99905e-01,9.54853e-14,9.99999e-01
4.419582309e-01,1.72547e-13,9.99999e-01,9.99519e-01,1.72629e-13,9.99999e-01
4.441680220e-01,3.08357e-13,9.99999e-01,9.99632e-01,3.08470e-13,9.99999e-01
4.463888621e-01,5.44710e-13,9.99999e-01,9.99615e-01,5.44920e-13,9.99999e-01
4.486208064e-01,9.51628e-13,9.99999e-01,9.99761e-01,9.51854e-13,9.99999e-01
4.508639105e-01,1.64428e-12,9.99999e-01,9.99888e-01,1.64446e-12,9.99999e-01
4.531182300e-01,2.81039e-12,9.99999e-01,9.99955e-01,2.81052e-12,9.99999e-01
4.553838212e-01,4.75268e-12,9.99999e-01,9.99969e-01,4.75282e-12,9.99999e-01
4.576607403e-01,7.95433e-12,9.99999e-01,9.99985e-01,7.95444e-12,9.99999e-01
4.599490440e-01,1.31779e-11,9.99999e-01,9.99989e-01,1.31780e-11,9.99999e-01
4.622487892e-01,2.16152e-11,9.99999e-01,9.99997e-01,2.16152e-11,9.99999e-01
4.645600332e-01,3.51093e-11,9.99999e-01,9.99992e-01,3.51095e-11,9.99999e-01
4.668828333e-01,5.64780e-11,9.99999e-01,9.99885e-01,5.64844e-11,9.99999e-01
4.692172475e-01,9.00013e-11,9.99999e-01,9.99758e-01,9.00230e-11,9.99999e-01
4.715633337e-01,1.42138e-10,9.99999e-01,9.99841e-01,1.42161e-10,9.99999e-01
4.739211504e-01,2.22444e-10,9.99999e-01,9.99849e-01,2.22478e-10,9.99999e-01
4.762907561e-01,3.45079e-10,9.99999e-01,9.99921e-01,3.45105e-10,9.99999e-01
4.786722099e-01,5.30685e-10,9.99999e-01,9.99967e-01,5.30702e-10,9.99999e-01
4.810655710e-01,8.09196e-10,9.99999e-01,9.99989e-01,8.09204e-10,9.99999e-01
4.834708988e-01,1.22350e-09,9.99999e-01,9.99905e-01,1.22362e-09,9.99999e-01
4.858882533e-01,1.83490e-09,9.99999e-01,9.99829e-01,1.83522e-09,9.99999e-01
4.883176946e-01,2.73017e-09,9.99999e-01,9.99856e-01,2.73056e-09,9.99999e-01
4.907592831e-01,4.03042e-09,9.99999e-01,9.99870e-01,4.03094e-09,9.99999e-01
4.932130795e-01,5.90447e-09,9.99999e-01,9.99908e-01,5.90501e-09,9.99999e-01
4.956791449e-01,8.58496e-09,9.99999e-01,9.99951e-01,8.58537e-09,9.99999e-01
4.981575406e-01,1.23874e-08,9.99999e-01,9.99756e-01,1.23905e-08,9.99999e-01
5.006483283e-01,1.77416e-08,9.99999e-01,9.99365e-01,1.77529e-08,9.99999e-01
5.031515699e-01,2.51755e-08,9.99999e-01,9.96811e-01,2.52560e-08,9.99999e-01
5.056673278e-01,3.56211e-08,9.99999e-01,9.98321e-01,3.56810e-08,9.99999e-01
5.081956644e-01,4.99602e-08,9.99999e-01,9.97883e-01,5.00662e-08,9.99999e-01
5.107366428e-01,6.96828e-08,9.99999e-01,9.98570e-01,6.97825e-08,9.99999e-01
5.132903260e-01,9.65486e-08,9.99999e-01,9.99184e-01,9.66274e-08,9.99999e-01
5.158567776e-01,1.32896e-07,9.99999e-01,9.99655e-01,1.32942e-07,9.99999e-01
5.184360615e-01,1.81730e-07,9.99999e-01,9.99861e-01,1.81755e-07,9.99999e-01
5.210282418e-01,2.46948e-07,9.99999e-01,9.99947e-01,2.46961e-07,9.99999e-01
5.236333830e-01,3.33465e-07,9.99999e-01,9.99791e-01,3.33534e-07,9.99999e-01
5.262515499e-01,4.47732e-07,9.99999e-01,9.99869e-01,4.47790e-07,9.99999e-01
5.288828077e-01,5.97626e-07,9.99999e-01,9.99879e-01,5.97698e-07,9.99999e-01
5.315272217e-01,7.93170e-07,9.99999e-01,9.99895e-01,7.93253e-07,9.99999e-01
5.341848578e-01,1.04685e-06,9.99999e-01,9.99930e-01,1.04692e-06,9.99999e-01
5.368557821e-01,1.37382e-06,9.99999e-01,9.99756e-01,1.37415e-06,9.99999e-01
5.395400610e-01,1.79242e-06,9.99999e-01,9.99117e-01,1.79400e-06,9.99999e-01
5.422377613e-01,2.32721e-06,9.99999e-01,9.98875e-01,2.32983e-06,9.99999e-01
5.449489501e-01,3.00695e-06,9.99999e-01,9.98946e-01,3.01012e-06,9.99999e-01
5.476736949e-01,3.86583e-06,9.99999e-01,9.99074e-01,3.86941e-06,9.99999e-01
5.504120634e-01,4.94608e-06,9.99999e-01,9.99327e-01,4.94940e-06,9.99999e-01
5.531641237e-01,6.29798e-06,9.99999e-01,9.99661e-01,6.30011e-06,9.99999e-01
5.559299443e-01,7.98001e-06,9.99999e-01,9.99836e-01,7.98131e-06,9.99999e-01
5.587095940e-01,1.00630e-05,9.99999e-01,9.99896e-01,1.00640e-05,9.99999e-01
5.615031420e-01,1.26307e-05,9.99999e-01,9.99885e-01,1.26322e-05,9.99999e-01
5.643106577e-01,1.57826e-05,9.99999e-01,9.99868e-01,1.57847e-05,9.99999e-01
5.671322110e-01,1.96059e-05,9.99999e-01,9.98399e-01,1.96374e-05,9.99999e-01
5.699678720e-01,2.42848e-05,9.99999e-01,9.98337e-01,2.43252e-05,9.99999e-01
5.728177114e-01,2.99525e-05,9.99999e-01,9.98251e-01,3.00050e-05,9.99999e-01
5.756818000e-01,3.67988e-05,9.99999e-01,9.98398e-01,3.68578e-05,9.99999e-01
5.785602090e-01,4.50294e-05,9.99999e-01,9.98606e-01,4.50922e-05,9.99999e-01
5.814530100e-01,5.48700e-05,9.99999e-01,9.98597e-01,5.49470e-05,9.99999e-01
5.843602750e-01,6.65825e-05,9.99999e-01,9.98317e-01,6.66946e-05,9.99999e-01
5.872820764e-01,7.94852e-05,9.99999e-01,9.85622e-01,8.06446e-05,9.99999e-01
5.902184868e-01,9.54676e-05,9.99999e-01,9.82710e-01,9.71473e-05,9.99999e-01
5.931695792e-01,1.15168e-04,9.99999e-01,9.87739e-01,1.16597e-04,9.99999e-01
5.961354271e-01,1.37567e-04,9.99999e-01,9.86581e-01,1.39438e-04,9.99999e-01
5.991161043e-01,1.64537e-04,9.99999e-01,9.90202e-01,1.66165e-04,9.99999e-01
6.021116848e-01,1.96232e-04,9.99999e-01,9.94435e-01,1.97330e-04,9.99999e-01
6.051222432e-01,2.32888e-04,9.99999e-01,9.97181e-01,2.33546e-04,9.99999e-01
6.081478544e-01,2.75155e-04,9.99999e-01,9.98782e-01,2.75490e-04,9.99999e-01
6.111885937e-01,3.23742e-04,9.99999e-01,9.99485e-01,3.23909e-04,9.99999e-01
6.142445367e-01,3.79534e-04,9.99999e-01,9.99769e-01,3.79621e-04,9.99999e-01
6.173157594e-01,4.43467e-04,9.99999e-01,9.99872e-01,4.43524e-04,9.99999e-01
6.204023382e-01,5.16537e-04,9.99999e-01,9.99891e-01,5.16593e-04,9.99999e-01
6.235043498e-01,5.99602e-04,9.99999e-01,9.99518e-01,5.99890e-04,9.99999e-01
6.266218716e-01,6.92822e-04,9.99999e-01,9.97489e-01,6.94565e-04,9.99999e-01
6.297549810e-01,8.01118e-04,9.99999e-01,9.99078e-01,8.01857e-04,9.99999e-01
6.329037559e-01,9.21424e-04,9.99999e-01,9.98184e-01,9.23100e-04,9.99999e-01
6.360682746e-01,1.05808e-03,9.99999e-01,9.98447e-01,1.05972e-03,9.99999e-01
6.392486160e-01,1.21082e-03,9.99999e-01,9.97991e-01,1.21326e-03,9.99999e-01
6.424448591e-01,1.38158e-03,9.99999e-01,9.97294e-01,1.38532e-03,9.99999e-01
6.456570834e-01,1.55795e-03,9.99999e-01,9.87505e-01,1.57766e-03,9.99999e-01
6.488853688e-01,1.77583e-03,9.99999e-01,9.90929e-01,1.79209e-03,9.99999e-01
6.521297956e-01,2.01178e-03,9.99999e-01,9.90759e-01,2.03054e-03,9.99999e-01
6.553904446e-01,2.27383e-03,9.99999e-01,9.90751e-01,2.29506e-03,9.99999e-01
6.586673968e-01,2.56734e-03,9.99999e-01,9.92107e-01,2.58776e-03,9.99999e-01
6.619607338e-01,2.89806e-03,9.99999e-01,9.95593e-01,2.91089e-03,9.99999e-01
6.652705375e-01,3.25811e-03,9.99999e-01,9.97353e-01,3.26676e-03,9.99999e-01
6.685968902e-01,3.65368e-03,9.99999e-01,9.98875e-01,3.65780e-03,9.99999e-01
6.719398746e-01,4.08418e-03,9.99999e-01,9.99430e-01,4.08650e-03,9.99999e-01
6.752995740e-01,4.55410e-03,9.99999e-01,9.99698e-01,4.55547e-03,9.99999e-01
6.786760719e-01,5.06510e-03,9.99999e-01,9.99549e-01,5.06738e-03,9.99999e-01
6.820694522e-01,5.62065e-03,9.99999e-01,9.99232e-01,5.62496e-03,9.99999e-01
6.854797995e-01,6.22487e-03,9.99999e-01,9.99010e-01,6.23104e-03,9.99999e-01
6.889071985e-01,6.87178e-03,9.99999e-01,9.97576e-01,6.88848e-03,9.99999e-01
6.923517345e-01,7.30776e-03,9.99999e-01,9.61520e-01,7.60021e-03,9.99999e-01
6.958134932e-01,8.20336e-03,9.99999e-01,9.80183e-01,8.36921e-03,9.99999e-01
6.992925606e-01,9.02177e-03,9.99999e-01,9.80788e-01,9.19849e-03,9.99998e-01
7.027890234e-01,9.85384e-03,9.99999e-01,9.76488e-01,1.00911e-02,9.99999e-01
7.063029686e-01,1.08309e-02,9.99999e-01,9.80165e-01,1.10501e-02,9.99999e-01
7.098344834e-01,1.18485e-02,9.99999e-01,9.80956e-01,1.20785e-02,9.99998e-01
7.133836558e-01,1.28434e-02,9.99999e-01,9.74496e-01,1.31795e-02,9.99998e-01
7.169505741e-01,1.17134e-02,9.99999e-01,8.15922e-01,1.43561e-02,9.99997e-01
7.205353270e-01,1.41460e-02,9.99999e-01,9.06142e-01,1.56113e-02,9.99996e-01
7.241380036e-01,1.49238e-02,9.99999e-01,8.80559e-01,1.69482e-02,9.99996e-01
7.277586936e-01,1.63802e-02,9.99999e-01,8.91700e-01,1.83697e-02,9.99997e-01
7.313974871e-01,1.75998e-02,9.99999e-01,8.85356e-01,1.98788e-02,9.99997e-01
7.350544745e-01,2.00908e-02,9.99999e-01,9.35395e-01,2.14784e-02,9.99998e-01
7.387297469e-01,2.20583e-02,9.99999e-01,9.51969e-01,2.31712e-02,9.99999e-01
7.424233956e-01,2.43666e-02,9.99999e-01,9.76226e-01,2.49600e-02,9.99999e-01
7.461355126e-01,2.64582e-02,9.99999e-01,9.85502e-01,2.68474e-02,9.99999e-01
7.498661902e-01,2.86412e-02,9.99999e-01,9.93241e-01,2.88361e-02,9.99999e-01
7.536155211e-01,3.08253e-02,9.99999e-01,9.96670e-01,3.09283e-02,9.99999e-01
7.573835987e-01,3.30697e-02,9.99999e-01,9.98285e-01,3.31265e-02,9.99999e-01
7.611705167e-01,3.53950e-02,9.99999e-01,9.98933e-01,3.54328e-02,9.99999e-01
7.649763693e-01,3.78240e-02,9.99999e-01,9.99330e-01,3.78493e-02,9.99999e-01
7.688012511e-01,4.03592e-02,9.99999e-01,9.99533e-01,4.03780e-02,9.99999e-01
7.726452574e-01,4.30042e-02,9.99999e-01,9.99615e-01,4.30207e-02,9.99999e-01
7.765084837e-01,4.57538e-02,9.99999e-01,9.99450e-01,4.57789e-02,9.99999e-01
7.803910261e-01,4.31451e-02,8.88668e-01,9.97625e-01,4.86542e-02,9.99999e-01
7.842929812e-01,2.85081e-02,5.55883e-01,9.91735e-01,5.16480e-02,9.99999e-01
7.882144461e-01,2.90504e-02,5.38435e-01,9.83165e-01,5.47613e-02,9.99999e-01
7.921555184e-01,3.89655e-02,6.77593e-01,9.90779e-01,5.79952e-02,9.99999e-01
7.961162960e-01,4.63953e-02,7.68401e-01,9.83602e-01,6.13505e-02,9.99999e-01
8.000968774e-01,5.51247e-02,8.66466e-01,9.81156e-01,6.48278e-02,9.99999e-01
8.040973618e-01,6.23452e-02,9.28487e-01,9.81133e-01,6.84277e-02,9.99998e-01
8.081178486e-01,6.68013e-02,9.66343e-01,9.57868e-01,7.21505e-02,9.99998e-01
8.121584379e-01,6.29894e-02,9.89574e-01,8.37233e-01,7.59962e-02,9.99997e-01
8.162192301e-01,6.47812e-02,9.97687e-01,8.11861e-01,7.99648e-02,9.99996e-01
8.203003262e-01,7.58334e-02,9.99967e-01,9.02196e-01,8.40561e-02,9.99996e-01
8.244018279e-01,7.67882e-02,9.99999e-01,8.69928e-01,8.82697e-02,9.99996e-01
8.285238370e-01,8.16511e-02,9.99999e-01,8.81715e-01,9.26050e-02,9.99997e-01
8.326664562e-01,8.55252e-02,9.99999e-01,8.81147e-01,9.70613e-02,9.99997e-01
8.368297885e-01,9.28119e-02,9.99999e-01,9.13165e-01,1.01638e-01,9.99998e-01
8.410139374e-01,1.00739e-01,9.99999e-01,9.47395e-01,1.06333e-01,9.99999e-01
8.452190071e-01,1.08239e-01,9.99999e-01,9.73847e-01,1.11146e-01,9.99999e-01
8.494451021e-01,1.14298e-01,9.99999e-01,9.84687e-01,1.16075e-01,9.99999e-01
8.536923276e-01,1.20022e-01,9.99999e-01,9.90944e-01,1.21119e-01,9.99999e-01
8.579607893e-01,1.25569e-01,9.99999e-01,9.94399e-01,1.26276e-01,9.99999e-01
8.622505932e-01,1.31077e-01,9.99999e-01,9.96446e-01,1.31545e-01,9.99999e-01
8.665618462e-01,1.15796e-01,8.47437e-01,9.97793e-01,1.36922e-01,9.99999e-01
8.708946554e-01,3.39065e-02,2.38636e-01,9.97469e-01,1.42407e-01,9.99999e-01
8.752491287e-01,4.40146e-02,2.98327e-01,9.96617e-01,1.47996e-01,9.99999e-01
8.796253743e-01,7.72388e-02,5.04699e-01,9.95306e-01,1.53688e-01,9.99999e-01
8.840235012e-01,1.10257e-01,6.94854e-01,9.94645e-01,1.59480e-01,9.99999e-01
8.884436187e-01,1.40434e-01,8.65513e-01,9.80410e-01,1.65369e-01,9.99998e-01
8.928858368e-01,1.32082e-01,9.42831e-01,8.15820e-01,1.71353e-01,9.99996e-01
8.973502660e-01,1.22795e-01,9.85865e-01,7.01209e-01,1.77429e-01,9.99995e-01
9.018370173e-01,1.53165e-01,9.98436e-01,8.35418e-01,1.83594e-01,9.99994e-01
9.063462024e-01,1.55943e-01,9.60535e-01,8.50971e-01,1.89845e-01,9.99993e-01
9.108779334e-01,1.39807e-01,9.11383e-01,7.78607e-01,1.96179e-01,9.99992e-01
9.154323231e-01,1.49334e-01,9.78623e-01,7.51891e-01,2.02593e-01,9.99992e-01
9.200094847e-01,1.33177e-01,7.67721e-01,8.01002e-01,2.09083e-01,9.99990e-01
9.246095321e-01,1.00384e-01,6.37241e-01,7.13781e-01,2.15648e-01,9.99983e-01
9.292325798e-01,2.22827e-02,7.06838e-01,1.30134e-01,2.22282e-01,9.99964e-01
9.338787427e-01,1.25124e-02,7.12772e-01,7.09536e-02,2.28984e-01,9.99955e-01
9.385481364e-01,6.48000e-02,7.77419e-01,3.39678e-01,2.35749e-01,9.99954e-01
9.432408771e-01,5.01426e-02,8.56354e-01,2.35762e-01,2.42575e-01,9.99949e-01
9.479570815e-01,3.10553e-02,9.23270e-01,1.33232e-01,2.49458e-01,9.99955e-01
9.526968669e-01,5.19698e-02,9.62358e-01,2.08887e-01,2.56394e-01,9.99966e-01
9.574603512e-01,5.81135e-02,9.83715e-01,2.23526e-01,2.63380e-01,9.99974e-01
9.622476530e-01,7.76991e-02,9.94895e-01,2.88513e-01,2.70414e-01,9.99983e-01
9.670588912e-01,1.33938e-01,9.98470e-01,4.83285e-01,2.77490e-01,9.99989e-01
9.718941857e-01,1.77540e-01,9.99893e-01,6.23861e-01,2.84606e-01,9.99993e-01
9.767536566e-01,1.97017e-01,9.99999e-01,6.75277e-01,2.91759e-01,9.99995e-01
9.816374249e-01,2.23151e-01,9.99999e-01,7.46463e-01,2.98945e-01,9.99996e-01
9.865456120e-01,2.54849e-01,9.99999e-01,8.32403e-01,3.06161e-01,9.99998e-01
9.914783401e-01,2.79692e-01,9.99999e-01,8.92434e-01,3.13403e-01,9.99998e-01
9.964357318e-01,3.01396e-01,9.99999e-01,9.39898e-01,3.20669e-01,9.99999e-01
1.001417910e+00,3.15990e-01,9.99999e-01,9.63518e-01,3.27954e-01,9.99999e-01
1.006425000e+00,3.28214e-01,9.99999e-01,9.78991e-01,3.35257e-01,9.99999e-01
1.011457125e+00,3.38098e-01,9.99999e-01,9.86939e-01,3.42572e-01,9.99999e-01
1.016514411e+00,3.46786e-01,9.99999e-01,9.91103e-01,3.49898e-01,9.99999e-01
1.021596983e+00,3.54610e-01,9.99756e-01,9.92901e-01,3.57232e-01,9.99999e-01
1.026704968e+00,3.56779e-01,9.84055e-01,9.94457e-01,3.64570e-01,9.99999e-01
1.031838492e+00,3.26466e-01,8.81123e-01,9.95975e-01,3.71909e-01,9.99999e-01
1.036997685e+00,1.32181e-02,3.49165e-02,9.97603e-01,3.79246e-01,9.99999e-01
1.042182673e+00,3.30295e-04,8.56196e-04,9.97134e-01,3.86580e-01,9.99999e-01
1.047393587e+00,9.51523e-04,2.42309e-03,9.96207e-01,3.93905e-01,9.99999e-01
1.052630555e+00,9.48039e-09,2.37050e-08,9.94793e-01,4.01221e-01,9.99999e-01
1.057893707e+00,3.60794e-08,8.86910e-08,9.91311e-01,4.08524e-01,9.99999e-01
1.063183176e+00,2.93832e-06,7.12170e-06,9.85758e-01,4.15812e-01,9.99999e-01
1.068499092e+00,4.64555e-05,1.11373e-04,9.76303e-01,4.23083e-01,9.99999e-01
1.073841587e+00,1.12711e-03,2.66916e-03,9.72317e-01,4.30333e-01,9.99998e-01
1.079210795e+00,1.05819e-02,2.48396e-02,9.64731e-01,4.37560e-01,9.99998e-01
1.084606849e+00,5.08898e-02,1.19825e-01,9.47083e-01,4.44762e-01,9.99997e-01
1.090029883e+00,1.37989e-01,3.27531e-01,9.24694e-01,4.51937e-01,9.99996e-01
1.095480033e+00,2.15465e-01,5.75343e-01,8.08417e-01,4.59083e-01,9.99994e-01
1.100957433e+00,2.11642e-01,7.64496e-01,5.87224e-01,4.66197e-01,9.99990e-01
1.106462220e+00,1.18343e-01,8.94758e-01,2.75762e-01,4.73278e-01,9.99979e-01
1.111994531e+00,3.38897e-02,9.59540e-01,7.28822e-02,4.80323e-01,9.99959e-01
1.117554504e+00,8.40453e-03,9.90012e-01,1.73382e-02,4.87331e-01,9.99942e-01
1.123142276e+00,3.20139e-02,9.99345e-01,6.47742e-02,4.94300e-01,9.99931e-01
1.128757988e+00,7.12925e-02,9.99999e-01,1.42246e-01,5.01227e-01,9.99925e-01
1.134401778e+00,3.30565e-02,9.99999e-01,6.50628e-02,5.08112e-01,9.99917e-01
1.140073787e+00,1.50606e-01,9.99999e-01,2.92485e-01,5.14953e-01,9.99933e-01
1.145774156e+00,4.98546e-02,9.99999e-01,9.55582e-02,5.21748e-01,9.99943e-01
1.151503026e+00,3.90258e-02,9.99999e-01,7.38465e-02,5.28496e-01,9.99951e-01
1.157260541e+00,5.02724e-02,9.99999e-01,9.39362e-02,5.35196e-01,9.99962e-01
1.163046844e+00,9.28471e-02,9.99999e-01,1.71358e-01,5.41845e-01,9.99976e-01
1.168862078e+00,1.53956e-01,9.99999e-01,2.80717e-01,5.48443e-01,9.99987e-01
1.174706389e+00,2.52317e-01,9.99999e-01,4.54636e-01,5.54989e-01,9.99993e-01
1.180579921e+00,3.46180e-01,9.99999e-01,6.16550e-01,5.61481e-01,9.99995e-01
1.186482820e+00,4.30838e-01,9.99963e-01,7.58648e-01,5.67919e-01,9.99996e-01
1.192415234e+00,4.63553e-01,9.46732e-01,8.50481e-01,5.74302e-01,9.99996e-01
1.198377311e+00,2.56482e-01,4.94744e-01,8.72321e-01,5.80628e-01,9.99997e-01
1.204369197e+00,2.91887e-40,5.35975e-40,8.79307e-01,5.86896e-01,9.99997e-01
1.210391043e+00,1.88180e-165,3.39868e-165,8.84001e-01,5.93107e-01,9.99997e-01
1.216442998e+00,4.59856e-143,8.19053e-143,9.00598e-01,5.99258e-01,9.99998e-01
1.222525213e+00,6.79536e-141,1.17096e-140,9.21493e-01,6.05350e-01,9.99998e-01
1.228637839e+00,1.61373e-108,2.74236e-108,9.44747e-01,6.11382e-01,9.99999e-01
1.234781029e+00,3.48756e-67,5.75329e-67,9.58720e-01,6.17353e-01,9.99999e-01
1.240954934e+00,2.39078e-44,3.89841e-44,9.73670e-01,6.23262e-01,9.99999e-01
1.247159708e+00,6.55971e-21,1.05557e-20,9.79446e-01,6.29110e-01,9.99999e-01
1.253395507e+00,3.02775e-14,4.82991e-14,9.81708e-01,6.34895e-01,9.99999e-01
1.259662485e+00,2.54117e-08,4.01560e-08,9.82583e-01,6.40618e-01,9.99999e-01
1.265960797e+00,6.63573e-05,1.04440e-04,9.72375e-01,6.46278e-01,9.99998e-01
1.272290601e+00,7.30029e-03,1.15802e-02,9.56852e-01,6.51875e-01,9.99998e-01
1.278652054e+00,7.04123e-03,1.12971e-02,9.16315e-01,6.57408e-01,9.99997e-01
1.285045314e+00,1.73498e-06,2.78845e-06,8.53852e-01,6.62877e-01,9.99996e-01
1.291470541e+00,4.38488e-19,7.61466e-19,7.59724e-01,6.68283e-01,9.99994e-01
1.297927893e+00,1.89919e-06,3.31203e-06,6.77987e-01,6.73624e-01,9.99990e-01
1.304417533e+00,1.27385e-04,2.61563e-04,6.35081e-01,6.78902e-01,9.99982e-01
1.310939621e+00,2.78236e-05,5.44827e-05,5.63808e-01,6.84115e-01,9.99969e-01
1.317494319e+00,8.46718e-57,1.67500e-56,5.70776e-01,6.89264e-01,9.99949e-01
1.324081790e+00,1.02209e-25,2.15941e-25,4.40703e-01,6.94349e-01,9.99917e-01
1.330702199e+00,4.85102e-22,1.97521e-21,9.62392e-02,6.99370e-01,9.99862e-01
1.337355710e+00,7.44840e-22,2.15943e-19,7.96101e-04,7.04327e-01,9.99736e-01
1.344042489e+00,3.01135e-23,1.30484e-19,9.77136e-06,7.09221e-01,9.99436e-01
1.350762701e+00,1.84838e-36,9.09186e-22,2.09914e-16,7.14050e-01,9.99099e-01
1.357516515e+00,3.43925e-35,6.78788e-13,2.54213e-24,7.18816e-01,9.98885e-01
1.364304097e+00,5.99333e-23,1.52145e-09,5.35859e-15,7.23519e-01,9.98805e-01
1.371125618e+00,2.24893e-13,3.35180e-05,2.37902e-09,7.28159e-01,9.98795e-01
1.377981246e+00,2.88204e-12,1.25247e-04,7.38747e-09,7.32736e-01,9.98706e-01
1.384871152e+00,1.16621e-14,5.12563e-03,1.32539e-12,7.37251e-01,9.98742e-01
1.391795508e+00,7.16140e-17,8.07188e-03,3.55772e-15,7.41703e-01,9.98934e-01
1.398754485e+00,4.15926e-13,4.56436e-02,7.91241e-12,7.46094e-01,9.99084e-01
1.405748258e+00,1.01368e-12,1.07390e-01,8.49159e-12,7.50423e-01,9.99178e-01
1.412776999e+00,3.92338e-12,2.40306e-01,1.39589e-11,7.54691e-01,9.99339e-01
1.419840884e+00,6.63114e-12,2.34250e-01,2.35479e-11,7.58898e-01,9.99506e-01
1.426940089e+00,1.00169e-08,6.81593e-03,6.37323e-08,7.63045e-01,9.99694e-01
1.434074789e+00,0.00000e+00,0.00000e+00,7.47178e-07,7.67132e-01,9.99809e-01
1.441245163e+00,0.00000e+00,0.00000e+00,9.45322e-06,7.71159e-01,9.99851e-01
1.448451389e+00,0.00000e+00,0.00000e+00,3.97240e-04,7.75128e-01,9.99876e-01
1.455693646e+00,0.00000e+00,0.00000e+00,4.84378e-03,7.79038e-01,9.99898e-01
1.462972114e+00,0.00000e+00,0.00000e+00,7.06428e-03,7.82890e-01,9.99912e-01
1.470286975e+00,2.30391e-276,1.17621e-274,3.43362e-03,7.86684e-01,9.99921e-01
