#,Wave/freq,Total,CO2,H2O,Rayleigh,CIA
4.000000000e-01,7.55086e-10,9.99999e-01,9.99958e-01,7.55117e-10,9.99999e-01
4.020000000e-01,1.14385e-09,9.99999e-01,9.99974e-01,1.14388e-09,9.99999e-01
4.040100000e-01,1.71789e-09,9.99999e-01,9.99988e-01,1.71791e-09,9.99999e-01
4.060300500e-01,2.55935e-09,9.99999e-01,9.99997e-01,2.55936e-09,9.99999e-01
4.080602003e-01,3.78304e-09,9.99999e-01,9.99998e-01,3.78304e-09,9.99999e-01
4.101005013e-01,5.54881e-09,9.99999e-01,9.99999e-01,5.54881e-09,9.99999e-01
4.121510038e-01,8.07740e-09,9.99999e-01,9.99997e-01,8.07742e-09,9.99999e-01
4.142117588e-01,1.16713e-08,9.99999e-01,9.99988e-01,1.16714e-08,9.99999e-01
4.162828176e-01,1.67416e-08,9.99999e-01,9.99948e-01,1.67424e-08,9.99999e-01
4.183642317e-01,2.38453e-08,9.99999e-01,9.99969e-01,2.38461e-08,9.99999e-01
4.204560528e-01,3.37267e-08,9.99999e-01,9.99980e-01,3.37273e-08,9.99999e-01
4.225583331e-01,4.73772e-08,9.99999e-01,9.99992e-01,4.73775e-08,9.99999e-01
4.246711247e-01,6.61067e-08,9.99999e-01,9.99993e-01,6.61071e-08,9.99999e-01
4.267944804e-01,9.16352e-08,9.99999e-01,9.99991e-01,9.16360e-08,9.99999e-01
4.289284528e-01,1.26206e-07,9.99999e-01,9.99993e-01,1.26207e-07,9.99999e-01
4.310730950e-01,1.72724e-07,9.99999e-01,9.99996e-01,1.72724e-07,9.99999e-01
4.332284605e-01,2.34927e-07,9.99999e-01,9.99998e-01,2.34927e-07,9.99999e-01
4.353946028e-01,3.17594e-07,9.99999e-01,9.99999e-01,3.17594e-07,9.99999e-01
4.375715758e-01,4.26800e-07,9.99999e-01,9.99994e-01,4.26802e-07,9.99999e-01
4.397594337e-01,5.70199e-07,9.99999e-01,9.99954e-01,5.70224e-07,9.99999e-01
4.419582309e-01,7.57322e-07,9.99999e-01,9.99772e-01,7.57494e-07,9.99999e-01
4.441680220e-01,1.00046e-06,9.99999e-01,9.99822e-01,1.00064e-06,9.99999e-01
4.463888621e-01,1.31433e-06,9.99999e-01,9.99815e-01,1.31458e-06,9.99999e-01
4.486208064e-01,1.71753e-06,9.99999e-01,9.99884e-01,1.71773e-06,9.99999e-01
4.508639105e-01,2.23257e-06,9.99999e-01,9.99945e-01,2.23269e-06,9.99999e-01
4.531182300e-01,2.88698e-06,9.99999e-01,9.99978e-01,2.88704e-06,9.99999e-01
4.553838212e-01,3.71421e-06,9.99999e-01,9.99985e-01,3.71427e-06,9.99999e-01
4.576607403e-01,4.75476e-06,9.99999e-01,9.99992e-01,4.75479e-06,9.99999e-01
4.599490440e-01,6.05716e-06,9.99999e-01,9.99994e-01,6.05719e-06,9.99999e-01
4.622487892e-01,7.67952e-06,9.99999e-01,9.99998e-01,7.67952e-06,9.99999e-01
4.645600332e-01,9.69081e-06,9.99999e-01,9.99996e-01,9.69085e-06,9.99999e-01
4.668828333e-01,1.21722e-05,9.99999e-01,9.99945e-01,1.21729e-05,9.99999e-01
4.692172475e-01,1.52201e-05,9.99999e-01,9.99883e-01,1.52219e-05,9.99999e-01
4.715633337e-01,1.89494e-05,9.99999e-01,9.99923e-01,1.89508e-05,9.99999e-01
4.739211504e-01,2.34895e-05,9.99999e-01,9.99927e-01,2.34912e-05,9.99999e-01
4.762907561e-01,2.89952e-05,9.99999e-01,9.99962e-01,2.89963e-05,9.99999e-01
4.786722099e-01,3.56423e-05,9.99999e-01,9.99984e-01,3.56428e-05,9.99999e-01
4.810655710e-01,4.36344e-05,9.99999e-01,9.99994e-01,4.36346e-05,9.99999e-01
4.834708988e-01,5.32030e-05,9.99999e-01,9.99955e-01,5.32054e-05,9.99999e-01
4.858882533e-01,6.46164e-05,9.99999e-01,9.99917e-01,6.46217e-05,9.99999e-01
4.883176946e-01,7.81815e-05,9.99999e-01,9.99931e-01,7.81869e-05,9.99999e-01
4.907592831e-01,9.42384e-05,9.99999e-01,9.99937e-01,9.42442e-05,9.99999e-01
4.932130795e-01,1.13176e-04,9.99999e-01,9.99955e-01,1.13181e-04,9.99999e-01
4.956791449e-01,1.35429e-04,9.99999e-01,9.99976e-01,1.35432e-04,9.99999e-01
4.981575406e-01,1.61465e-04,9.99999e-01,9.99883e-01,1.61484e-04,9.99999e-01
5.006483283e-01,1.91821e-04,9.99999e-01,9.99698e-01,1.91879e-04,9.99999e-01
5.031515699e-01,2.26873e-04,9.99999e-01,9.98471e-01,2.27220e-04,9.99999e-01
5.056673278e-01,2.67958e-04,9.99999e-01,9.99193e-01,2.68174e-04,9.99999e-01
5.081956644e-01,3.15153e-04,9.99999e-01,9.98982e-01,3.15474e-04,9.99999e-01
5.107366428e-01,3.69675e-04,9.99999e-01,9.99312e-01,3.69929e-04,9.99999e-01
5.132903260e-01,4.32251e-04,9.99999e-01,9.99607e-01,4.32421e-04,9.99999e-01
5.158567776e-01,5.03829e-04,9.99999e-01,9.99833e-01,5.03913e-04,9.99999e-01
5.184360615e-01,5.85414e-04,9.99999e-01,9.99933e-01,5.85453e-04,9.99999e-01
5.210282418e-01,6.78159e-04,9.99999e-01,9.99974e-01,6.78176e-04,9.99999e-01
5.236333830e-01,7.83227e-04,9.99999e-01,9.99899e-01,7.83305e-04,9.99999e-01
5.262515499e-01,9.02104e-04,9.99999e-01,9.99937e-01,9.02160e-04,9.99999e-01
5.288828077e-01,1.03609e-03,9.99999e-01,9.99942e-01,1.03615e-03,9.99999e-01
5.315272217e-01,1.18674e-03,9.99999e-01,9.99949e-01,1.18680e-03,9.99999e-01
5.341848578e-01,1.35566e-03,9.99999e-01,9.99966e-01,1.35571e-03,9.99999e-01
5.368557821e-01,1.54441e-03,9.99999e-01,9.99883e-01,1.54459e-03,9.99999e-01
5.395400610e-01,1.75452e-03,9.99999e-01,9.99580e-01,1.75525e-03,9.99999e-01
5.422377613e-01,1.98855e-03,9.99999e-01,9.99458e-01,1.98962e-03,9.99999e-01
5.449489501e-01,2.24858e-03,9.99999e-01,9.99496e-01,2.24971e-03,9.99999e-01
5.476736949e-01,2.53650e-03,9.99999e-01,9.99554e-01,2.53764e-03,9.99999e-01
5.504120634e-01,2.85468e-03,9.99999e-01,9.99676e-01,2.85560e-03,9.99999e-01
5.531641237e-01,3.20541e-03,9.99999e-01,9.99836e-01,3.20593e-03,9.99999e-01
5.559299443e-01,3.59074e-03,9.99999e-01,9.99921e-01,3.59102e-03,9.99999e-01
5.587095940e-01,4.01317e-03,9.99999e-01,9.99950e-01,4.01336e-03,9.99999e-01
5.615031420e-01,4.47529e-03,9.99999e-01,9.99944e-01,4.47554e-03,9.99999e-01
5.643106577e-01,4.97989e-03,9.99999e-01,9.99937e-01,4.98020e-03,9.99999e-01
5.671322110e-01,5.52590e-03,9.99999e-01,9.99243e-01,5.53008e-03,9.99999e-01
5.699678720e-01,6.12307e-03,9.99999e-01,9.99196e-01,6.12800e-03,9.99999e-01
5.728177114e-01,6.77112e-03,9.99999e-01,9.99162e-01,6.77679e-03,9.99999e-01
5.756818000e-01,7.47366e-03,9.99999e-01,9.99231e-01,7.47940e-03,9.99999e-01
5.785602090e-01,8.23327e-03,9.99999e-01,9.99330e-01,8.23879e-03,9.99999e-01
5.814530100e-01,9.05187e-03,9.99999e-01,9.99327e-01,9.05796e-03,9.99999e-01
5.843602750e-01,9.93198e-03,9.99999e-01,9.99197e-01,9.93994e-03,9.99999e-01
5.872820764e-01,1.08128e-02,9.99999e-01,9.93107e-01,1.08878e-02,9.99999e-01
5.902184868e-01,1.18053e-02,9.99999e-01,9.91652e-01,1.19046e-02,9.99999e-01
5.931695792e-01,1.29168e-02,9.99999e-01,9.94098e-01,1.29935e-02,9.99999e-01
5.961354271e-01,1.40658e-02,9.99999e-01,9.93531e-01,1.41574e-02,9.99999e-01
5.991161043e-01,1.53268e-02,9.99999e-01,9.95278e-01,1.53995e-02,9.99999e-01
6.021116848e-01,1.66779e-02,9.99999e-01,9.97318e-01,1.67227e-02,9.99999e-01
6.051222432e-01,1.81056e-02,9.99999e-01,9.98642e-01,1.81302e-02,9.99999e-01
6.081478544e-01,1.96132e-02,9.99999e-01,9.99413e-01,1.96247e-02,9.99999e-01
6.111885937e-01,2.12039e-02,9.99999e-01,9.99751e-01,2.12092e-02,9.99999e-01
6.142445367e-01,2.28840e-02,9.99999e-01,9.99888e-01,2.28865e-02,9.99999e-01
6.173157594e-01,2.46578e-02,9.99999e-01,9.99938e-01,2.46594e-02,9.99999e-01
6.204023382e-01,2.65290e-02,9.99999e-01,9.99947e-01,2.65304e-02,9.99999e-01
6.235043498e-01,2.84958e-02,9.99999e-01,9.99771e-01,2.85022e-02,9.99999e-01
6.266218716e-01,3.05405e-02,9.99999e-01,9.98795e-01,3.05773e-02,9.99999e-01
6.297549810e-01,3.27434e-02,9.99999e-01,9.99558e-01,3.27579e-02,9.99999e-01
6.329037559e-01,3.50157e-02,9.99999e-01,9.99126e-01,3.50463e-02,9.99999e-01
6.360682746e-01,3.74168e-02,9.99999e-01,9.99256e-01,3.74446e-02,9.99999e-01
6.392486160e-01,3.99162e-02,9.99999e-01,9.99036e-01,3.99547e-02,9.99999e-01
6.424448591e-01,4.25236e-02,9.99999e-01,9.98710e-01,4.25785e-02,9.99999e-01
6.456570834e-01,4.50469e-02,9.99999e-01,9.94024e-01,4.53177e-02,9.99999e-01
6.488853688e-01,4.79629e-02,9.99999e-01,9.95624e-01,4.81737e-02,9.99999e-01
6.521297956e-01,5.09198e-02,9.99999e-01,9.95540e-01,5.11478e-02,9.99999e-01
6.553904446e-01,5.40006e-02,9.99999e-01,9.95559e-01,5.42414e-02,9.99999e-01
6.586673968e-01,5.72369e-02,9.99999e-01,9.96196e-01,5.74555e-02,9.99999e-01
6.619607338e-01,6.06618e-02,9.99999e-01,9.97878e-01,6.07908e-02,9.99999e-01
6.652705375e-01,6.41662e-02,9.99999e-01,9.98726e-01,6.42480e-02,9.99999e-01
6.685968902e-01,6.77876e-02,9.99999e-01,9.99407e-01,6.78278e-02,9.99999e-01
6.719398746e-01,7.15107e-02,9.99999e-01,9.99725e-01,7.15303e-02,9.99999e-01
6.752995740e-01,7.53446e-02,9.99999e-01,9.99850e-01,7.53558e-02,9.99999e-01
6.786760719e-01,7.92872e-02,9.99999e-01,9.99784e-01,7.93042e-02,9.99999e-01
6.820694522e-01,8.33448e-02,9.99999e-01,9.99632e-01,8.33754e-02,9.99999e-01
6.854797995e-01,8.75275e-02,9.99999e-01,9.99525e-01,8.75690e-02,9.99999e-01
6.889071985e-01,9.17789e-02,9.99999e-01,9.98852e-01,9.18843e-02,9.99999e-01
6.923517345e-01,9.45309e-02,9.99999e-01,9.81417e-01,9.63208e-02,9.99999e-01
6.958134932e-01,9.98997e-02,9.99999e-01,9.90307e-01,1.00877e-01,9.99999e-01
6.992925606e-01,1.04580e-01,9.99999e-01,9.90776e-01,1.05553e-01,9.99999e-01
7.027890234e-01,1.09092e-01,9.99999e-01,9.88624e-01,1.10347e-01,9.99999e-01
7.063029686e-01,1.14154e-01,9.99999e-01,9.90426e-01,1.15257e-01,9.99999e-01
7.098344834e-01,1.19177e-01,9.99999e-01,9.90812e-01,1.20283e-01,9.99999e-01
7.133836558e-01,1.23888e-01,9.99999e-01,9.87773e-01,1.25421e-01,9.99999e-01
7.169505741e-01,1.18406e-01,9.99999e-01,9.06133e-01,1.30671e-01,9.99998e-01
7.205353270e-01,1.29622e-01,9.99999e-01,9.52884e-01,1.36031e-01,9.99998e-01
7.241380036e-01,1.33073e-01,9.99999e-01,9.40461e-01,1.41498e-01,9.99998e-01
7.277586936e-01,1.39147e-01,9.99999e-01,9.46122e-01,1.47070e-01,9.99998e-01
7.313974871e-01,1.44000e-01,9.99999e-01,9.42745e-01,1.52746e-01,9.99998e-01
7.350544745e-01,1.53495e-01,9.99999e-01,9.68294e-01,1.58521e-01,9.99999e-01
7.387297469e-01,1.60541e-01,9.99999e-01,9.76560e-01,1.64395e-01,9.99999e-01
7.424233956e-01,1.68398e-01,9.99999e-01,9.88463e-01,1.70363e-01,9.99999e-01
7.461355126e-01,1.75188e-01,9.99999e-01,9.92993e-01,1.76424e-01,9.99999e-01
7.498661902e-01,1.81978e-01,9.99999e-01,9.96732e-01,1.82575e-01,9.99999e-01
7.536155211e-01,1.88509e-01,9.99999e-01,9.98395e-01,1.88812e-01,9.99999e-01
7.573835987e-01,1.94971e-01,9.99999e-01,9.99173e-01,1.95132e-01,9.99999e-01
7.611705167e-01,2.01430e-01,9.99999e-01,9.99486e-01,2.01533e-01,9.99999e-01
7.649763693e-01,2.07945e-01,9.99999e-01,9.99677e-01,2.08012e-01,9.99999e-01
7.688012511e-01,2.14516e-01,9.99999e-01,9.99775e-01,2.14564e-01,9.99999e-01
7.726452574e-01,2.21147e-01,9.99999e-01,9.99815e-01,2.21187e-01,9.99999e-01
7.765084837e-01,2.27819e-01,9.99999e-01,9.99737e-01,2.27878e-01,9.99999e-01
7.803910261e-01,2.19891e-01,9.38167e-01,9.98868e-01,2.34634e-01,9.99999e-01
7.842929812e-01,1.78693e-01,7.42760e-01,9.96053e-01,2.41450e-01,9.99999e-01
7.882144461e-01,1.79620e-01,7.28820e-01,9.91886e-01,2.48323e-01,9.99999e-01
7.921555184e-01,2.10252e-01,8.27229e-01,9.95544e-01,2.55251e-01,9.99999e-01
7.961162960e-01,2.29021e-01,8.80158e-01,9.92135e-01,2.62229e-01,9.99999e-01
8.000968774e-01,2.48970e-01,9.33089e-01,9.90918e-01,2.69255e-01,9.99999e-01
8.040973618e-01,2.64169e-01,9.64739e-01,9.90916e-01,2.76324e-01,9.99999e-01
8.081178486e-01,2.73139e-01,9.83646e-01,9.79642e-01,2.83434e-01,9.99999e-01
8.121584379e-01,2.65422e-01,9.94924e-01,9.17985e-01,2.90581e-01,9.99998e-01
8.162192301e-01,2.68736e-01,9.98877e-01,9.03497e-01,2.97762e-01,9.99998e-01
8.203003262e-01,2.90037e-01,9.99982e-01,9.51038e-01,3.04973e-01,9.99998e-01
8.244018279e-01,2.91134e-01,9.99999e-01,9.32491e-01,3.12212e-01,9.99997e-01
8.285238370e-01,3.00670e-01,9.99999e-01,9.41141e-01,3.19474e-01,9.99998e-01
8.326664562e-01,3.07333e-01,9.99999e-01,9.40559e-01,3.26756e-01,9.99998e-01
8.368297885e-01,3.19726e-01,9.99999e-01,9.57104e-01,3.34056e-01,9.99999e-01
8.410139374e-01,3.32590e-01,9.99999e-01,9.74282e-01,3.41369e-01,9.99999e-01
8.452190071e-01,3.44268e-01,9.99999e-01,9.87305e-01,3.48694e-01,9.99999e-01
8.494451021e-01,3.53398e-01,9.99999e-01,9.92615e-01,3.56027e-01,9.99999e-01
8.536923276e-01,3.61775e-01,9.99999e-01,9.95628e-01,3.63364e-01,9.99999e-01
8.579607893e-01,3.69704e-01,9.99999e-01,9.97305e-01,3.70703e-01,9.99999e-01
8.622505932e-01,3.77394e-01,9.99999e-01,9.98287e-01,3.78041e-01,9.99999e-01
8.665618462e-01,3.43182e-01,8.91406e-01,9.98940e-01,3.85375e-01,9.99999e-01
8.708946554e-01,1.86916e-01,4.76515e-01,9.98786e-01,3.92702e-01,9.99999e-01
8.752491287e-01,2.17416e-01,5.44351e-01,9.98377e-01,4.00020e-01,9.99999e-01
8.796253743e-01,2.89563e-01,7.12401e-01,9.97753e-01,4.07325e-01,9.99999e-01
8.840235012e-01,3.46312e-01,8.37346e-01,9.97434e-01,4.14616e-01,9.99999e-01
8.884436187e-01,3.89701e-01,9.32231e-01,9.90675e-01,4.21889e-01,9.99999e-01
8.928858368e-01,3.78201e-01,9.71940e-01,9.06290e-01,4.29143e-01,9.99998e-01
8.973502660e-01,3.64368e-01,9.93115e-01,8.40547e-01,4.36374e-01,9.99997e-01
9.018370173e-01,4.05670e-01,9.99239e-01,9.15191e-01,4.43580e-01,9.99997e-01
9.063462024e-01,4.09350e-01,9.80777e-01,9.24828e-01,4.50760e-01,9.99996e-01
9.108779334e-01,3.88025e-01,9.56133e-01,8.85312e-01,4.57911e-01,9.99996e-01
9.154323231e-01,4.00791e-01,9.89529e-01,8.70598e-01,4.65030e-01,9.99996e-01
9.200094847e-01,3.70841e-01,8.66458e-01,8.97292e-01,4.72117e-01,9.99995e-01
9.246095321e-01,3.28055e-01,8.03393e-01,8.46354e-01,4.79168e-01,9.99991e-01
9.292325798e-01,1.42756e-01,8.43597e-01,3.38129e-01,4.86182e-01,9.99983e-01
9.338787427e-01,1.06639e-01,8.47616e-01,2.48212e-01,4.93157e-01,9.99978e-01
9.385481364e-01,2.54507e-01,8.85143e-01,5.67941e-01,5.00092e-01,9.99977e-01
9.432408771e-01,2.19521e-01,9.27854e-01,4.63390e-01,5.06984e-01,9.99975e-01
9.479570815e-01,1.72901e-01,9.62291e-01,3.48468e-01,5.13832e-01,9.99978e-01
9.526968669e-01,2.28492e-01,9.81650e-01,4.45892e-01,5.20635e-01,9.99983e-01
9.574603512e-01,2.44501e-01,9.92109e-01,4.66846e-01,5.27391e-01,9.99987e-01
9.622476530e-01,2.85024e-01,9.97532e-01,5.34831e-01,5.34098e-01,9.99991e-01
9.670588912e-01,3.76070e-01,9.99260e-01,6.95920e-01,5.40756e-01,9.99994e-01
9.718941857e-01,4.35113e-01,9.99947e-01,7.94964e-01,5.47363e-01,9.99996e-01
9.767536566e-01,4.57779e-01,9.99999e-01,8.26441e-01,5.53917e-01,9.99997e-01
9.816374249e-01,4.86440e-01,9.99999e-01,8.67994e-01,5.60418e-01,9.99998e-01
9.865456120e-01,5.18819e-01,9.99999e-01,9.15242e-01,5.66865e-01,9.99998e-01
9.914783401e-01,5.42691e-01,9.99999e-01,9.46679e-01,5.73257e-01,9.99999e-01
9.964357318e-01,5.62553e-01,9.99999e-01,9.70601e-01,5.79592e-01,9.99999e-01
1.001417910e+00,5.75485e-01,9.99999e-01,9.82274e-01,5.85870e-01,9.99999e-01
1.006425000e+00,5.86084e-01,9.99999e-01,9.89856e-01,5.92090e-01,9.99999e-01
1.011457125e+00,5.94479e-01,9.99999e-01,9.93693e-01,5.98251e-01,9.99999e-01
1.016514411e+00,6.01764e-01,9.99999e-01,9.95714e-01,6.04353e-01,9.99999e-01
1.021596983e+00,6.08247e-01,9.99896e-01,9.96583e-01,6.10395e-01,9.99999e-01
1.026704968e+00,6.10075e-01,9.92415e-01,9.97335e-01,6.16376e-01,9.99999e-01
1.031838492e+00,5.76722e-01,9.28484e-01,9.98062e-01,6.22295e-01,9.99999e-01
1.036997685e+00,4.98247e-02,7.93890e-02,9.98848e-01,6.28153e-01,9.99999e-01
1.042182673e+00,1.19449e-02,1.88631e-02,9.98627e-01,6.33949e-01,9.99999e-01
1.047393587e+00,2.24139e-02,3.50936e-02,9.98180e-01,6.39682e-01,9.99999e-01
1.052630555e+00,3.71915e-05,5.77256e-05,9.97503e-01,6.45352e-01,9.99999e-01
1.057893707e+00,1.29987e-04,2.00163e-04,9.95834e-01,6.50959e-01,9.99999e-01
1.063183176e+00,1.14613e-03,1.75335e-03,9.93154e-01,6.56503e-01,9.99999e-01
1.068499092e+00,6.42182e-03,9.78409e-03,9.88563e-01,6.61983e-01,9.99999e-01
1.073841587e+00,3.45568e-02,5.23218e-02,9.86631e-01,6.67399e-01,9.99999e-01
1.079210795e+00,1.02783e-01,1.55013e-01,9.82897e-01,6.72751e-01,9.99999e-01
1.084606849e+00,2.33297e-01,3.52393e-01,9.74228e-01,6.78039e-01,9.99998e-01
1.090029883e+00,3.82665e-01,5.80288e-01,9.63204e-01,6.83263e-01,9.99998e-01
1.095480033e+00,4.76174e-01,7.64385e-01,9.02926e-01,6.88422e-01,9.99997e-01
1.100957433e+00,4.71722e-01,8.78274e-01,7.72390e-01,6.93518e-01,9.99995e-01
1.106462220e+00,3.48871e-01,9.47702e-01,5.25097e-01,6.98550e-01,9.99989e-01
1.111994531e+00,1.82111e-01,9.80275e-01,2.63400e-01,7.03517e-01,9.99980e-01
1.117554504e+00,8.47543e-02,9.95150e-01,1.20044e-01,7.08421e-01,9.99972e-01
1.123142276e+00,1.60332e-01,9.99680e-01,2.24812e-01,7.13261e-01,9.99967e-01
1.128757988e+00,2.64002e-01,9.99999e-01,3.67684e-01,7.18038e-01,9.99964e-01
1.134401778e+00,1.24832e-01,9.99999e-01,1.72725e-01,7.22751e-01,9.99959e-01
1.140073787e+00,3.93917e-01,9.99999e-01,5.41556e-01,7.27401e-01,9.99967e-01
1.145774156e+00,2.12709e-01,9.99999e-01,2.90598e-01,7.31989e-01,9.99972e-01
1.151503026e+00,1.88203e-01,9.99999e-01,2.55538e-01,7.36513e-01,9.99976e-01
1.157260541e+00,2.26213e-01,9.99999e-01,3.05296e-01,7.40976e-01,9.99981e-01
1.163046844e+00,3.08365e-01,9.99999e-01,4.13708e-01,7.45377e-01,9.99988e-01
1.168862078e+00,4.02111e-01,9.99999e-01,5.36353e-01,7.49716e-01,9.99993e-01
1.174706389e+00,5.13082e-01,9.99999e-01,6.80487e-01,7.53994e-01,9.99996e-01
1.180579921e+00,5.99373e-01,9.99999e-01,7.90510e-01,7.58211e-01,9.99997e-01
1.186482820e+00,6.67236e-01,9.99985e-01,8.75226e-01,7.62368e-01,9.99997e-01
1.192415234e+00,6.90749e-01,9.73612e-01,9.25086e-01,7.66464e-01,9.99998e-01
1.198377311e+00,3.93042e-01,5.38798e-01,9.36493e-01,7.70502e-01,9.99998e-01
1.204369197e+00,1.76988e-20,2.36873e-20,9.39885e-01,7.74480e-01,9.99998e-01
1.210391043e+00,1.63977e-80,2.17723e-80,9.42388e-01,7.78399e-01,9.99998e-01
1.216442998e+00,8.91614e-70,1.17598e-69,9.50779e-01,7.82261e-01,9.99999e-01
1.222525213e+00,9.79382e-69,1.27142e-68,9.61441e-01,7.86064e-01,9.99999e-01
1.228637839e+00,3.80293e-53,4.90485e-53,9.73062e-01,7.89811e-01,9.99999e-01
1.234781029e+00,2.17728e-33,2.76802e-33,9.79930e-01,7.93500e-01,9.99999e-01
1.240954934e+00,2.66876e-22,3.37488e-22,9.87263e-01,7.97134e-01,9.99999e-01
1.247159708e+00,3.37777e-11,4.24335e-11,9.90068e-01,8.00712e-01,9.99999e-01
1.253395507e+00,1.56697e-07,1.96073e-07,9.91177e-01,8.04235e-01,9.99999e-01
1.259662485e+00,1.17711e-04,1.46649e-04,9.91617e-01,8.07703e-01,9.99999e-01
1.265960797e+00,5.50764e-03,6.85313e-03,9.86638e-01,8.11118e-01,9.99999e-01
1.272290601e+00,8.55817e-02,1.06978e-01,9.79089e-01,8.14478e-01,9.99999e-01
1.278652054e+00,7.32784e-02,9.22996e-02,9.58879e-01,8.17786e-01,9.99998e-01
1.285045314e+00,3.21549e-04,4.04042e-04,9.26730e-01,8.21042e-01,9.99998e-01
1.291470541e+00,6.16296e-10,8.07634e-10,8.75876e-01,8.24246e-01,9.99997e-01
1.297927893e+00,9.63738e-05,1.26079e-04,8.41612e-01,8.27399e-01,9.99994e-01
1.304417533e+00,1.14958e-02,1.66019e-02,8.01433e-01,8.30501e-01,9.99991e-01
1.310939621e+00,2.83258e-03,3.92982e-03,7.76060e-01,8.33554e-01,9.99985e-01
1.317494319e+00,7.34442e-28,1.02052e-27,7.59942e-01,8.36557e-01,9.99975e-01
1.324081790e+00,1.37962e-18,1.98066e-18,6.65186e-01,8.39511e-01,9.99960e-01
1.330702199e+00,2.92715e-11,6.44708e-11,2.52188e-01,8.42417e-01,9.99933e-01
1.337355710e+00,2.08254e-11,3.38900e-10,2.21043e-02,8.45275e-01,9.99873e-01
1.344042489e+00,2.55581e-12,1.42148e-10,6.69812e-04,8.48086e-01,9.99729e-01
1.350762701e+00,1.62631e-18,3.43984e-11,7.61183e-09,8.50851e-01,9.99567e-01
1.357516515e+00,5.17262e-18,4.05379e-07,1.09745e-12,8.53570e-01,9.99465e-01
1.364304097e+00,5.24972e-12,3.77124e-05,3.97330e-08,8.56243e-01,9.99426e-01
1.371125618e+00,1.92928e-07,5.40254e-03,1.70019e-05,8.58872e-01,9.99421e-01
1.377981246e+00,1.09229e-06,1.18094e-02,5.54875e-05,8.61457e-01,9.99379e-01
1.384871152e+00,3.38051e-08,7.54127e-02,3.27308e-07,8.63998e-01,9.99396e-01
1.391795508e+00,6.01623e-09,9.18946e-02,4.30325e-08,8.66497e-01,9.99488e-01
1.398754485e+00,3.11568e-07,2.25585e-01,1.32970e-06,8.68953e-01,9.99560e-01
1.405748258e+00,4.87744e-07,3.36292e-01,1.36194e-06,8.71367e-01,9.99605e-01
1.412776999e+00,7.11684e-07,5.00812e-01,1.33214e-06,8.73740e-01,9.99683e-01
1.419840884e+00,1.51916e-06,4.52536e-01,2.80907e-06,8.76073e-01,9.99763e-01
1.426940089e+00,2.44275e-05,2.34601e-02,7.35609e-05,8.78365e-01,9.99853e-01
1.434074789e+00,0.00000e+00,0.00000e+00,5.27472e-04,8.80618e-01,9.99908e-01
1.441245163e+00,0.00000e+00,0.00000e+00,2.21179e-03,8.82832e-01,9.99928e-01
1.448451389e+00,0.00000e+00,0.00000e+00,1.43964e-02,8.85008e-01,9.99940e-01
1.455693646e+00,0.00000e+00,0.00000e+00,5.52527e-02,8.87146e-01,9.99950e-01
1.462972114e+00,1.44366e-320,8.37589e-320,7.68861e-02,8.89247e-01,9.99957e-01
1.470286975e+00,1.04847e-133,6.91270e-133,5.12772e-02,8.91311e-01,9.99962e-01
