#,Wave/freq,Total,CO2,H2O,Rayleigh,CIA
4.000000000e-01,4.98203e-06,9.99999e-01,9.99975e-01,4.98215e-06,9.99999e-01
4.020000000e-01,6.34243e-06,9.99999e-01,9.99984e-01,6.34252e-06,9.99999e-01
4.040100000e-01,8.03392e-06,9.99999e-01,9.99993e-01,8.03397e-06,9.99999e-01
4.060300500e-01,1.01291e-05,9.99999e-01,9.99998e-01,1.01291e-05,9.99999e-01
4.080602003e-01,1.27123e-05,9.99999e-01,9.99999e-01,1.27123e-05,9.99999e-01
4.101005013e-01,1.58828e-05,9.99999e-01,9.99999e-01,1.58828e-05,9.99999e-01
4.121510038e-01,1.97569e-05,9.99999e-01,9.99998e-01,1.97570e-05,9.99999e-01
4.142117588e-01,2.44702e-05,9.99999e-01,9.99992e-01,2.44704e-05,9.99999e-01
4.162828176e-01,3.01796e-05,9.99999e-01,9.99969e-01,3.01805e-05,9.99999e-01
4.183642317e-01,3.70686e-05,9.99999e-01,9.99981e-01,3.70692e-05,9.99999e-01
4.204560528e-01,4.53452e-05,9.99999e-01,9.99988e-01,4.53457e-05,9.99999e-01
4.225583331e-01,5.52496e-05,9.99999e-01,9.99995e-01,5.52498e-05,9.99999e-01
4.246711247e-01,6.70546e-05,9.99999e-01,9.99996e-01,6.70548e-05,9.99999e-01
4.267944804e-01,8.10712e-05,9.99999e-01,9.99994e-01,8.10715e-05,9.99999e-01
4.289284528e-01,9.76510e-05,9.99999e-01,9.99995e-01,9.76514e-05,9.99999e-01
4.310730950e-01,1.17190e-04,9.99999e-01,9.99997e-01,1.17190e-04,9.99999e-01
4.332284605e-01,1.40133e-04,9.99999e-01,9.99999e-01,1.40133e-04,9.99999e-01
4.353946028e-01,1.66977e-04,9.99999e-01,9.99999e-01,1.66977e-04,9.99999e-01
4.375715758e-01,1.98275e-04,9.99999e-01,9.99996e-01,1.98275e-04,9.99999e-01
4.397594337e-01,2.34636e-04,9.99999e-01,9.99973e-01,2.34642e-04,9.99999e-01
4.419582309e-01,2.76721e-04,9.99999e-01,9.99866e-01,2.76758e-04,9.99999e-01
4.441680220e-01,3.25337e-04,9.99999e-01,9.99897e-01,3.25370e-04,9.99999e-01
4.463888621e-01,3.81259e-04,9.99999e-01,9.99892e-01,3.81300e-04,9.99999e-01
4.486208064e-01,4.45416e-04,9.99999e-01,9.99933e-01,4.45446e-04,9.99999e-01
4.508639105e-01,5.18772e-04,9.99999e-01,9.99968e-01,5.18788e-04,9.99999e-01
4.531182300e-01,6.02381e-04,9.99999e-01,9.99987e-01,6.02389e-04,9.99999e-01
4.553838212e-01,6.97395e-04,9.99999e-01,9.99991e-01,6.97400e-04,9.99999e-01
4.576607403e-01,8.05062e-04,9.99999e-01,9.99995e-01,8.05065e-04,9.99999e-01
4.599490440e-01,9.26718e-04,9.99999e-01,9.99996e-01,9.26720e-04,9.99999e-01
4.622487892e-01,1.06380e-03,9.99999e-01,9.99999e-01,1.06380e-03,9.99999e-01
4.645600332e-01,1.21783e-03,9.99999e-01,9.99997e-01,1.21783e-03,9.99999e-01
4.668828333e-01,1.39040e-03,9.99999e-01,9.99967e-01,1.39044e-03,9.99999e-01
4.692172475e-01,1.58326e-03,9.99999e-01,9.99932e-01,1.58337e-03,9.99999e-01
4.715633337e-01,1.79837e-03,9.99999e-01,9.99955e-01,1.79845e-03,9.99999e-01
4.739211504e-01,2.03752e-03,9.99999e-01,9.99957e-01,2.03761e-03,9.99999e-01
4.762907561e-01,2.30283e-03,9.99999e-01,9.99977e-01,2.30288e-03,9.99999e-01
4.786722099e-01,2.59639e-03,9.99999e-01,9.99990e-01,2.59641e-03,9.99999e-01
4.810655710e-01,2.92042e-03,9.99999e-01,9.99996e-01,2.92042e-03,9.99999e-01
4.834708988e-01,3.27717e-03,9.99999e-01,9.99973e-01,3.27725e-03,9.99999e-01
4.858882533e-01,3.66914e-03,9.99999e-01,9.99952e-01,3.66931e-03,9.99999e-01
4.883176946e-01,4.09895e-03,9.99999e-01,9.99959e-01,4.09911e-03,9.99999e-01
4.907592831e-01,4.56909e-03,9.99999e-01,9.99963e-01,4.56925e-03,9.99999e-01
4.932130795e-01,5.08227e-03,9.99999e-01,9.99973e-01,5.08240e-03,9.99999e-01
4.956791449e-01,5.64123e-03,9.99999e-01,9.99986e-01,5.64131e-03,9.99999e-01
4.981575406e-01,6.24836e-03,9.99999e-01,9.99931e-01,6.24879e-03,9.99999e-01
5.006483283e-01,6.90649e-03,9.99999e-01,9.99822e-01,6.90771e-03,9.99999e-01
5.031515699e-01,7.61423e-03,9.99999e-01,9.99109e-01,7.62101e-03,9.99999e-01
5.056673278e-01,8.38774e-03,9.99999e-01,9.99531e-01,8.39167e-03,9.99999e-01
5.081956644e-01,9.21724e-03,9.99999e-01,9.99408e-01,9.22269e-03,9.99999e-01
5.107366428e-01,1.01131e-02,9.99999e-01,9.99600e-01,1.01171e-02,9.99999e-01
5.132903260e-01,1.10755e-02,9.99999e-01,9.99772e-01,1.10780e-02,9.99999e-01
5.158567776e-01,1.21073e-02,9.99999e-01,9.99903e-01,1.21084e-02,9.99999e-01
5.184360615e-01,1.32110e-02,9.99999e-01,9.99961e-01,1.32115e-02,9.99999e-01
5.210282418e-01,1.43900e-02,9.99999e-01,9.99985e-01,1.43902e-02,9.99999e-01
5.236333830e-01,1.56468e-02,9.99999e-01,9.99941e-01,1.56477e-02,9.99999e-01
5.262515499e-01,1.69863e-02,9.99999e-01,9.99963e-01,1.69869e-02,9.99999e-01
5.288828077e-01,1.84103e-02,9.99999e-01,9.99966e-01,1.84109e-02,9.99999e-01
5.315272217e-01,1.99219e-02,9.99999e-01,9.99970e-01,1.99225e-02,9.99999e-01
5.341848578e-01,2.15242e-02,9.99999e-01,9.99980e-01,2.15246e-02,9.99999e-01
5.368557821e-01,2.32185e-02,9.99999e-01,9.99931e-01,2.32201e-02,9.99999e-01
5.395400610e-01,2.50055e-02,9.99999e-01,9.99754e-01,2.50117e-02,9.99999e-01
5.422377613e-01,2.68935e-02,9.99999e-01,9.99685e-01,2.69019e-02,9.99999e-01
5.449489501e-01,2.88849e-02,9.99999e-01,9.99706e-01,2.88934e-02,9.99999e-01
5.476736949e-01,3.09806e-02,9.99999e-01,9.99741e-01,3.09886e-02,9.99999e-01
5.504120634e-01,3.31835e-02,9.99999e-01,9.99812e-01,3.31898e-02,9.99999e-01
5.531641237e-01,3.54958e-02,9.99999e-01,9.99905e-01,3.54992e-02,9.99999e-01
5.559299443e-01,3.79171e-02,9.99999e-01,9.99954e-01,3.79188e-02,9.99999e-01
5.587095940e-01,4.04495e-02,9.99999e-01,9.99970e-01,4.04507e-02,9.99999e-01
5.615031420e-01,4.30952e-02,9.99999e-01,9.99967e-01,4.30966e-02,9.99999e-01
5.643106577e-01,4.58564e-02,9.99999e-01,9.99963e-01,4.58581e-02,9.99999e-01
5.671322110e-01,4.87150e-02,9.99999e-01,9.99553e-01,4.87367e-02,9.99999e-01
5.699678720e-01,5.17098e-02,9.99999e-01,9.99535e-01,5.17338e-02,9.99999e-01
5.728177114e-01,5.48237e-02,9.99999e-01,9.99512e-01,5.48505e-02,9.99999e-01
5.756818000e-01,5.80618e-02,9.99999e-01,9.99553e-01,5.80878e-02,9.99999e-01
5.785602090e-01,6.14226e-02,9.99999e-01,9.99610e-01,6.14465e-02,9.99999e-01
5.814530100e-01,6.49019e-02,9.99999e-01,9.99608e-01,6.49273e-02,9.99999e-01
5.843602750e-01,6.84985e-02,9.99999e-01,9.99530e-01,6.85306e-02,9.99999e-01
5.872820764e-01,7.19653e-02,9.99999e-01,9.95964e-01,7.22568e-02,9.99999e-01
5.902184868e-01,7.57365e-02,9.99999e-01,9.95144e-01,7.61060e-02,9.99999e-01
5.931695792e-01,7.98027e-02,9.99999e-01,9.96560e-01,8.00781e-02,9.99999e-01
5.961354271e-01,8.38561e-02,9.99999e-01,9.96236e-01,8.41728e-02,9.99999e-01
5.991161043e-01,8.81474e-02,9.99999e-01,9.97256e-01,8.83898e-02,9.99999e-01
6.021116848e-01,9.25843e-02,9.99999e-01,9.98443e-01,9.27286e-02,9.99999e-01
6.051222432e-01,9.71117e-02,9.99999e-01,9.99212e-01,9.71882e-02,9.99999e-01
6.081478544e-01,1.01733e-01,9.99999e-01,9.99659e-01,1.01768e-01,9.99999e-01
6.111885937e-01,1.06451e-01,9.99999e-01,9.99856e-01,1.06466e-01,9.99999e-01
6.142445367e-01,1.11276e-01,9.99999e-01,9.99935e-01,1.11283e-01,9.99999e-01
6.173157594e-01,1.16211e-01,9.99999e-01,9.99964e-01,1.16215e-01,9.99999e-01
6.204023382e-01,1.21259e-01,9.99999e-01,9.99969e-01,1.21263e-01,9.99999e-01
6.235043498e-01,1.26406e-01,9.99999e-01,9.99865e-01,1.26423e-01,9.99999e-01
6.266218716e-01,1.31602e-01,9.99999e-01,9.99299e-01,1.31694e-01,9.99999e-01
6.297549810e-01,1.37039e-01,9.99999e-01,9.99742e-01,1.37075e-01,9.99999e-01
6.329037559e-01,1.42490e-01,9.99999e-01,9.99492e-01,1.42562e-01,9.99999e-01
6.360682746e-01,1.48090e-01,9.99999e-01,9.99566e-01,1.48155e-01,9.99999e-01
6.392486160e-01,1.53763e-01,9.99999e-01,9.99439e-01,1.53849e-01,9.99999e-01
6.424448591e-01,1.59523e-01,9.99999e-01,9.99245e-01,1.59644e-01,9.99999e-01
6.456570834e-01,1.64957e-01,9.99999e-01,9.96500e-01,1.65536e-01,9.99999e-01
6.488853688e-01,1.71086e-01,9.99999e-01,9.97457e-01,1.71522e-01,9.99999e-01
6.521297956e-01,1.77141e-01,9.99999e-01,9.97408e-01,1.77601e-01,9.99999e-01
6.553904446e-01,1.83293e-01,9.99999e-01,9.97412e-01,1.83768e-01,9.99999e-01
6.586673968e-01,1.89602e-01,9.99999e-01,9.97790e-01,1.90021e-01,9.99999e-01
6.619607338e-01,1.96116e-01,9.99999e-01,9.98768e-01,1.96358e-01,9.99999e-01
6.652705375e-01,2.02624e-01,9.99999e-01,9.99260e-01,2.02774e-01,9.99999e-01
6.685968902e-01,2.09201e-01,9.99999e-01,9.99685e-01,2.09267e-01,9.99999e-01
6.719398746e-01,2.15799e-01,9.99999e-01,9.99840e-01,2.15833e-01,9.99999e-01
6.752995740e-01,2.22451e-01,9.99999e-01,9.99915e-01,2.22470e-01,9.99999e-01
6.786760719e-01,2.29144e-01,9.99999e-01,9.99873e-01,2.29173e-01,9.99999e-01
6.820694522e-01,2.35890e-01,9.99999e-01,9.99785e-01,2.35940e-01,9.99999e-01
6.854797995e-01,2.42701e-01,9.99999e-01,9.99723e-01,2.42768e-01,9.99999e-01
6.889071985e-01,2.49483e-01,9.99999e-01,9.99324e-01,2.49652e-01,9.99999e-01
6.923517345e-01,2.53791e-01,9.99999e-01,9.89092e-01,2.56590e-01,9.99999e-01
6.958134932e-01,2.62102e-01,9.99999e-01,9.94402e-01,2.63577e-01,9.99999e-01
6.992925606e-01,2.69151e-01,9.99999e-01,9.94600e-01,2.70612e-01,9.99999e-01
7.027890234e-01,2.75850e-01,9.99999e-01,9.93375e-01,2.77689e-01,9.99999e-01
7.063029686e-01,2.83219e-01,9.99999e-01,9.94425e-01,2.84807e-01,9.99999e-01
7.098344834e-01,2.90399e-01,9.99999e-01,9.94650e-01,2.91961e-01,9.99999e-01
7.133836558e-01,2.96997e-01,9.99999e-01,9.92810e-01,2.99147e-01,9.99999e-01
7.169505741e-01,2.89142e-01,9.99999e-01,9.43785e-01,3.06364e-01,9.99998e-01
7.205353270e-01,3.04973e-01,9.99999e-01,9.72469e-01,3.13607e-01,9.99998e-01
7.241380036e-01,3.09564e-01,9.99999e-01,9.64754e-01,3.20873e-01,9.99998e-01
7.277586936e-01,3.17712e-01,9.99999e-01,9.68163e-01,3.28159e-01,9.99998e-01
7.313974871e-01,3.24170e-01,9.99999e-01,9.66339e-01,3.35462e-01,9.99999e-01
7.350544745e-01,3.36421e-01,9.99999e-01,9.81454e-01,3.42778e-01,9.99999e-01
7.387297469e-01,3.45319e-01,9.99999e-01,9.86330e-01,3.50104e-01,9.99999e-01
7.424233956e-01,3.55044e-01,9.99999e-01,9.93301e-01,3.57438e-01,9.99999e-01
7.461355126e-01,3.63292e-01,9.99999e-01,9.95931e-01,3.64776e-01,9.99999e-01
7.498661902e-01,3.71411e-01,9.99999e-01,9.98108e-01,3.72115e-01,9.99999e-01
7.536155211e-01,3.79100e-01,9.99999e-01,9.99069e-01,3.79452e-01,9.99999e-01
7.573835987e-01,3.86600e-01,9.99999e-01,9.99520e-01,3.86785e-01,9.99999e-01
7.611705167e-01,3.93994e-01,9.99999e-01,9.99702e-01,3.94111e-01,9.99999e-01
7.649763693e-01,4.01352e-01,9.99999e-01,9.99812e-01,4.01427e-01,9.99999e-01
7.688012511e-01,4.08676e-01,9.99999e-01,9.99869e-01,4.08729e-01,9.99999e-01
7.726452574e-01,4.15972e-01,9.99999e-01,9.99892e-01,4.16017e-01,9.99999e-01
7.765084837e-01,4.23222e-01,9.99999e-01,9.99846e-01,4.23287e-01,9.99999e-01
7.803910261e-01,4.12980e-01,9.59833e-01,9.99337e-01,4.30536e-01,9.99999e-01
7.842929812e-01,3.66167e-01,8.38281e-01,9.97689e-01,4.37762e-01,9.99999e-01
7.882144461e-01,3.66436e-01,8.27249e-01,9.95274e-01,4.44964e-01,9.99999e-01
7.921555184e-01,4.03537e-01,8.94757e-01,9.97416e-01,4.52138e-01,9.99999e-01
7.961162960e-01,4.24546e-01,9.28595e-01,9.95398e-01,4.59283e-01,9.99999e-01
8.000968774e-01,4.45648e-01,9.60578e-01,9.94708e-01,4.66397e-01,9.99999e-01
8.040973618e-01,4.61293e-01,9.79444e-01,9.94701e-01,4.73476e-01,9.99999e-01
8.081178486e-01,4.70262e-01,9.90482e-01,9.88034e-01,4.80521e-01,9.99999e-01
8.121584379e-01,4.62340e-01,9.97073e-01,9.51088e-01,4.87527e-01,9.99998e-01
8.162192301e-01,4.65818e-01,9.99352e-01,9.42604e-01,4.94495e-01,9.99998e-01
8.203003262e-01,4.86691e-01,9.99990e-01,9.70631e-01,5.01421e-01,9.99998e-01
8.244018279e-01,4.87936e-01,9.99999e-01,9.59928e-01,5.08305e-01,9.99998e-01
8.285238370e-01,4.97216e-01,9.99999e-01,9.65197e-01,5.15145e-01,9.99998e-01
8.326664562e-01,5.03634e-01,9.99999e-01,9.64928e-01,5.21938e-01,9.99999e-01
8.368297885e-01,5.15396e-01,9.99999e-01,9.74862e-01,5.28685e-01,9.99999e-01
8.410139374e-01,5.27351e-01,9.99999e-01,9.84997e-01,5.35383e-01,9.99999e-01
8.452190071e-01,5.38034e-01,9.99999e-01,9.92625e-01,5.42031e-01,9.99999e-01
8.494451021e-01,5.46271e-01,9.99999e-01,9.95704e-01,5.48628e-01,9.99999e-01
8.536923276e-01,5.53765e-01,9.99999e-01,9.97464e-01,5.55172e-01,9.99999e-01
8.579607893e-01,5.60784e-01,9.99999e-01,9.98434e-01,5.61663e-01,9.99999e-01
8.622505932e-01,5.67536e-01,9.99999e-01,9.99006e-01,5.68099e-01,9.99999e-01
8.665618462e-01,5.25824e-01,9.15843e-01,9.99383e-01,5.74480e-01,9.99999e-01
8.708946554e-01,3.70750e-01,6.38770e-01,9.99293e-01,5.80804e-01,9.99999e-01
8.752491287e-01,4.08694e-01,6.96792e-01,9.99055e-01,5.87071e-01,9.99999e-01
8.796253743e-01,4.85672e-01,8.19659e-01,9.98689e-01,5.93280e-01,9.99999e-01
8.840235012e-01,5.39805e-01,9.01856e-01,9.98503e-01,5.99430e-01,9.99999e-01
8.884436187e-01,5.78265e-01,9.60229e-01,9.94478e-01,6.05520e-01,9.99999e-01
8.928858368e-01,5.67836e-01,9.83664e-01,9.43780e-01,6.11550e-01,9.99998e-01
8.973502660e-01,5.55660e-01,9.96026e-01,9.03330e-01,6.17520e-01,9.99998e-01
9.018370173e-01,5.91821e-01,9.99562e-01,9.49703e-01,6.23427e-01,9.99998e-01
9.063462024e-01,5.94375e-01,9.88539e-01,9.55093e-01,6.29273e-01,9.99997e-01
9.108779334e-01,5.76319e-01,9.74302e-01,9.31097e-01,6.35057e-01,9.99997e-01
9.154323231e-01,5.87445e-01,9.93957e-01,9.22203e-01,6.40778e-01,9.99997e-01
9.200094847e-01,5.57255e-01,9.14872e-01,9.38657e-01,6.46436e-01,9.99996e-01
9.246095321e-01,5.20599e-01,8.80313e-01,9.04567e-01,6.52031e-01,9.99995e-01
9.292325798e-01,3.11013e-01,9.04356e-01,5.16698e-01,6.57562e-01,9.99989e-01
9.338787427e-01,2.61682e-01,9.07972e-01,4.29753e-01,6.63030e-01,9.99987e-01
9.385481364e-01,4.44847e-01,9.31441e-01,7.11160e-01,6.68434e-01,9.99986e-01
9.432408771e-01,4.02441e-01,9.57520e-01,6.22092e-01,6.73773e-01,9.99985e-01
9.479570815e-01,3.46635e-01,9.77941e-01,5.21261e-01,6.79049e-01,9.99987e-01
9.526968669e-01,4.15408e-01,9.89322e-01,6.12996e-01,6.84260e-01,9.99990e-01
9.574603512e-01,4.35876e-01,9.95423e-01,6.34933e-01,6.89408e-01,9.99992e-01
9.622476530e-01,4.79185e-01,9.98571e-01,6.90901e-01,6.94491e-01,9.99994e-01
9.670588912e-01,5.64734e-01,9.99572e-01,8.07653e-01,6.99510e-01,9.99996e-01
9.718941857e-01,6.16075e-01,9.99969e-01,8.74552e-01,7.04466e-01,9.99997e-01
9.767536566e-01,6.34634e-01,9.99999e-01,8.94661e-01,7.09357e-01,9.99998e-01
9.816374249e-01,6.57721e-01,9.99999e-01,9.20939e-01,7.14185e-01,9.99998e-01
9.865456120e-01,6.82894e-01,9.99999e-01,9.49849e-01,7.18949e-01,9.99999e-01
9.914783401e-01,7.00989e-01,9.99999e-01,9.68684e-01,7.23651e-01,9.99999e-01
9.964357318e-01,7.15784e-01,9.99999e-01,9.82829e-01,7.28289e-01,9.99999e-01
1.001417910e+00,7.25299e-01,9.99999e-01,9.89677e-01,7.32864e-01,9.99999e-01
1.006425000e+00,7.33023e-01,9.99999e-01,9.94094e-01,7.37377e-01,9.99999e-01
1.011457125e+00,7.39111e-01,9.99999e-01,9.96338e-01,7.41828e-01,9.99999e-01
1.016514411e+00,7.44359e-01,9.99999e-01,9.97510e-01,7.46216e-01,9.99999e-01
1.021596983e+00,7.49004e-01,9.99932e-01,9.98014e-01,7.50544e-01,9.99999e-01
1.026704968e+00,7.50251e-01,9.95499e-01,9.98450e-01,7.54810e-01,9.99999e-01
1.031838492e+00,7.18644e-01,9.47838e-01,9.98875e-01,7.59015e-01,9.99999e-01
1.036997685e+00,9.90561e-02,1.29865e-01,9.99330e-01,7.63161e-01,9.99999e-01
1.042182673e+00,6.56554e-02,8.56325e-02,9.99200e-01,7.67246e-01,9.99999e-01
1.047393587e+00,8.37595e-02,1.08700e-01,9.98940e-01,7.71272e-01,9.99999e-01
1.052630555e+00,1.37775e-03,1.77904e-03,9.98545e-01,7.75238e-01,9.99999e-01
1.057893707e+00,3.86323e-03,4.96614e-03,9.97569e-01,7.79147e-01,9.99999e-01
1.063183176e+00,1.53442e-02,1.96512e-02,9.96006e-01,7.82997e-01,9.99999e-01
1.068499092e+00,4.91872e-02,6.28603e-02,9.93327e-01,7.86789e-01,9.99999e-01
1.073841587e+00,1.36777e-01,1.74161e-01,9.92183e-01,7.90525e-01,9.99999e-01
1.079210795e+00,2.60132e-01,3.30503e-01,9.90017e-01,7.94204e-01,9.99999e-01
1.084606849e+00,4.27040e-01,5.43021e-01,9.84905e-01,7.97827e-01,9.99999e-01
1.090029883e+00,5.71087e-01,7.27918e-01,9.78290e-01,8.01394e-01,9.99998e-01
1.095480033e+00,6.48981e-01,8.55260e-01,9.42023e-01,8.04906e-01,9.99998e-01
1.100957433e+00,6.44787e-01,9.27386e-01,8.59307e-01,8.08364e-01,9.99996e-01
1.106462220e+00,5.36657e-01,9.69340e-01,6.81117e-01,8.11768e-01,9.99993e-01
1.111994531e+00,3.62328e-01,9.88523e-01,4.49245e-01,8.15119e-01,9.99988e-01
1.117554504e+00,2.25643e-01,9.97197e-01,2.76322e-01,8.18417e-01,9.99983e-01
1.123142276e+00,3.24666e-01,9.99816e-01,3.95171e-01,8.21663e-01,9.99980e-01
1.128757988e+00,4.50262e-01,9.99999e-01,5.45877e-01,8.24857e-01,9.99978e-01
1.134401778e+00,2.44888e-01,9.99999e-01,2.95765e-01,8.28000e-01,9.99976e-01
1.140073787e+00,5.76917e-01,9.99999e-01,6.94179e-01,8.31093e-01,9.99980e-01
1.145774156e+00,3.93513e-01,9.99999e-01,4.71769e-01,8.34135e-01,9.99983e-01
1.151503026e+00,3.63461e-01,9.99999e-01,4.34181e-01,8.37129e-01,9.99986e-01
1.157260541e+00,4.14809e-01,9.99999e-01,4.93782e-01,8.40074e-01,9.99989e-01
1.163046844e+00,5.00204e-01,9.99999e-01,5.93386e-01,8.42970e-01,9.99993e-01
1.168862078e+00,5.87621e-01,9.99999e-01,6.94737e-01,8.45819e-01,9.99996e-01
1.174706389e+00,6.77714e-01,9.99999e-01,7.98607e-01,8.48622e-01,9.99997e-01
1.180579921e+00,7.42381e-01,9.99999e-01,8.71976e-01,8.51377e-01,9.99998e-01
1.186482820e+00,7.90383e-01,9.99989e-01,9.25421e-01,8.54088e-01,9.99998e-01
1.192415234e+00,8.05920e-01,9.84018e-01,9.55743e-01,8.56752e-01,9.99998e-01
1.198377311e+00,4.63001e-01,5.56223e-01,9.62523e-01,8.59373e-01,9.99998e-01
1.204369197e+00,7.56719e-13,8.96419e-13,9.64533e-01,8.61949e-01,9.99998e-01
1.210391043e+00,9.47868e-48,1.11768e-47,9.66058e-01,8.64482e-01,9.99999e-01
1.216442998e+00,1.65225e-41,1.94071e-41,9.71098e-01,8.66972e-01,9.99999e-01
1.222525213e+00,6.65659e-41,7.74702e-41,9.77411e-01,8.69420e-01,9.99999e-01
1.228637839e+00,1.09733e-31,1.27247e-31,9.84254e-01,8.71827e-01,9.99999e-01
1.234781029e+00,2.36225e-20,2.71600e-20,9.88295e-01,8.74192e-01,9.99999e-01
1.240954934e+00,1.05491e-13,1.20931e-13,9.92579e-01,8.76517e-01,9.99999e-01
1.247159708e+00,1.94975e-07,2.22631e-07,9.94221e-01,8.78802e-01,9.99999e-01
1.253395507e+00,7.52405e-05,8.57245e-05,9.94862e-01,8.81047e-01,9.99999e-01
1.259662485e+00,4.07318e-03,4.62940e-03,9.95111e-01,8.83254e-01,9.99999e-01
1.265960797e+00,3.99636e-02,4.54083e-02,9.92210e-01,8.85422e-01,9.99999e-01
1.272290601e+00,2.33155e-01,2.65628e-01,9.87758e-01,8.87553e-01,9.99999e-01
1.278652054e+00,1.95188e-01,2.23592e-01,9.75811e-01,8.89647e-01,9.99999e-01
1.285045314e+00,2.89633e-03,3.30994e-03,9.56519e-01,8.91704e-01,9.99998e-01
1.291470541e+00,2.79229e-06,3.28054e-06,9.25462e-01,8.93725e-01,9.99998e-01
1.297927893e+00,4.55269e-03,5.36597e-03,8.95675e-01,8.95711e-01,9.99996e-01
1.304417533e+00,7.11822e-02,8.88926e-02,8.78436e-01,8.97662e-01,9.99994e-01
1.310939621e+00,1.18422e-02,1.43500e-02,8.48864e-01,8.99578e-01,9.99991e-01
1.317494319e+00,5.30690e-17,6.46391e-17,8.51548e-01,9.01460e-01,9.99985e-01
1.324081790e+00,1.37623e-11,1.70626e-11,7.86178e-01,9.03309e-01,9.99976e-01
1.330702199e+00,4.99986e-07,8.66315e-07,3.99547e-01,9.05126e-01,9.99961e-01
1.337355710e+00,2.75781e-07,1.45188e-06,9.24653e-02,9.06909e-01,9.99926e-01
1.344042489e+00,4.21135e-08,4.54573e-07,4.51860e-03,9.08662e-01,9.99842e-01
1.350762701e+00,1.67545e-11,5.23426e-07,7.62545e-06,9.10382e-01,9.99748e-01
1.357516515e+00,2.79067e-11,1.05084e-04,5.03045e-08,9.12072e-01,9.99688e-01
1.364304097e+00,1.16870e-07,2.33031e-03,2.32749e-05,9.13732e-01,9.99666e-01
1.371125618e+00,5.63969e-05,4.31363e-02,8.04681e-04,9.15361e-01,9.99663e-01
1.377981246e+00,1.99985e-04,7.38768e-02,2.12370e-03,9.16962e-01,9.99638e-01
1.384871152e+00,1.16072e-05,2.19727e-01,4.36747e-05,9.18533e-01,9.99648e-01
1.391795508e+00,9.08797e-06,2.46681e-01,3.00368e-05,9.20076e-01,9.99702e-01
1.398754485e+00,8.33872e-05,4.20602e-01,1.97322e-04,9.21591e-01,9.99744e-01
1.405748258e+00,9.51858e-05,5.29315e-01,1.73955e-04,9.23079e-01,9.99770e-01
1.412776999e+00,1.19452e-04,6.68900e-01,1.75964e-04,9.24540e-01,9.99815e-01
1.419840884e+00,2.23989e-04,5.95457e-01,3.21637e-04,9.25973e-01,9.99862e-01
1.426940089e+00,5.98675e-04,4.82197e-02,1.90577e-03,9.27381e-01,9.99914e-01
1.434074789e+00,0.00000e+00,0.00000e+00,8.22984e-03,9.28763e-01,9.99946e-01
1.441245163e+00,0.00000e+00,0.00000e+00,2.27395e-02,9.30120e-01,9.99958e-01
1.448451389e+00,0.00000e+00,0.00000e+00,6.97750e-02,9.31452e-01,9.99965e-01
1.455693646e+00,0.00000e+00,0.00000e+00,1.67626e-01,9.32759e-01,9.99971e-01
1.462972114e+00,2.57795e-187,7.16520e-187,2.11180e-01,9.34043e-01,9.99975e-01
1.470286975e+00,1.12182e-78,3.35836e-78,1.64007e-01,9.35302e-01,9.99977e-01
