#,Wave/freq,Total,CO2,H2O,Rayleigh,CIA
4.000000000e-01,5.13793e-05,9.99999e-01,9.99980e-01,5.13803e-05,9.99999e-01
4.020000000e-01,6.24598e-05,9.99999e-01,9.99987e-01,6.24605e-05,9.99999e-01
4.040100000e-01,7.56224e-05,9.99999e-01,9.99994e-01,7.56228e-05,9.99999e-01
4.060300500e-01,9.12135e-05,9.99999e-01,9.99998e-01,9.12136e-05,9.99999e-01
4.080602003e-01,1.09612e-04,9.99999e-01,9.99999e-01,1.09612e-04,9.99999e-01
4.101005013e-01,1.31244e-04,9.99999e-01,9.99999e-01,1.31244e-04,9.99999e-01
4.121510038e-01,1.56588e-04,9.99999e-01,9.99998e-01,1.56588e-04,9.99999e-01
4.142117588e-01,1.86174e-04,9.99999e-01,9.99994e-01,1.86175e-04,9.99999e-01
4.162828176e-01,2.20592e-04,9.99999e-01,9.99975e-01,2.20597e-04,9.99999e-01
4.183642317e-01,2.60505e-04,9.99999e-01,9.99985e-01,2.60509e-04,9.99999e-01
4.204560528e-01,3.06630e-04,9.99999e-01,9.99990e-01,3.06633e-04,9.99999e-01
4.225583331e-01,3.59762e-04,9.99999e-01,9.99996e-01,3.59763e-04,9.99999e-01
4.246711247e-01,4.20768e-04,9.99999e-01,9.99996e-01,4.20769e-04,9.99999e-01
4.267944804e-01,4.90598e-04,9.99999e-01,9.99995e-01,4.90600e-04,9.99999e-01
4.289284528e-01,5.70286e-04,9.99999e-01,9.99996e-01,5.70288e-04,9.99999e-01
4.310730950e-01,6.60950e-04,9.99999e-01,9.99998e-01,6.60951e-04,9.99999e-01
4.332284605e-01,7.63798e-04,9.99999e-01,9.99999e-01,7.63798e-04,9.99999e-01
4.353946028e-01,8.80131e-04,9.99999e-01,9.99999e-01,8.80132e-04,9.99999e-01
4.375715758e-01,1.01134e-03,9.99999e-01,9.99997e-01,1.01135e-03,9.99999e-01
4.397594337e-01,1.15892e-03,9.99999e-01,9.99978e-01,1.15894e-03,9.99999e-01
4.419582309e-01,1.32436e-03,9.99999e-01,9.99892e-01,1.32450e-03,9.99999e-01
4.441680220e-01,1.50961e-03,9.99999e-01,9.99916e-01,1.50973e-03,9.99999e-01
4.463888621e-01,1.71627e-03,9.99999e-01,9.99912e-01,1.71642e-03,9.99999e-01
4.486208064e-01,1.94636e-03,9.99999e-01,9.99945e-01,1.94646e-03,9.99999e-01
4.508639105e-01,2.20181e-03,9.99999e-01,9.99974e-01,2.20186e-03,9.99999e-01
4.531182300e-01,2.48469e-03,9.99999e-01,9.99989e-01,2.48472e-03,9.99999e-01
4.553838212e-01,2.79720e-03,9.99999e-01,9.99992e-01,2.79722e-03,9.99999e-01
4.576607403e-01,3.14166e-03,9.99999e-01,9.99996e-01,3.14167e-03,9.99999e-01
4.599490440e-01,3.52044e-03,9.99999e-01,9.99997e-01,3.52044e-03,9.99999e-01
4.622487892e-01,3.93603e-03,9.99999e-01,9.99999e-01,3.93603e-03,9.99999e-01
4.645600332e-01,4.39098e-03,9.99999e-01,9.99997e-01,4.39098e-03,9.99999e-01
4.668828333e-01,4.88783e-03,9.99999e-01,9.99973e-01,4.88795e-03,9.99999e-01
4.692172475e-01,5.42936e-03,9.99999e-01,9.99945e-01,5.42966e-03,9.99999e-01
4.715633337e-01,6.01867e-03,9.99999e-01,9.99963e-01,6.01889e-03,9.99999e-01
4.739211504e-01,6.65827e-03,9.99999e-01,9.99965e-01,6.65850e-03,9.99999e-01
4.762907561e-01,7.35127e-03,9.99999e-01,9.99981e-01,7.35140e-03,9.99999e-01
4.786722099e-01,8.10049e-03,9.99999e-01,9.99992e-01,8.10055e-03,9.99999e-01
4.810655710e-01,8.90893e-03,9.99999e-01,9.99997e-01,8.90895e-03,9.99999e-01
4.834708988e-01,9.77943e-03,9.99999e-01,9.99978e-01,9.77963e-03,9.99999e-01
4.858882533e-01,1.07152e-02,9.99999e-01,9.99961e-01,1.07157e-02,9.99999e-01
4.883176946e-01,1.17197e-02,9.99999e-01,9.99967e-01,1.17201e-02,9.99999e-01
4.907592831e-01,1.27956e-02,9.99999e-01,9.99970e-01,1.27960e-02,9.99999e-01
4.932130795e-01,1.39462e-02,9.99999e-01,9.99978e-01,1.39465e-02,9.99999e-01
4.956791449e-01,1.51744e-02,9.99999e-01,9.99988e-01,1.51745e-02,9.99999e-01
4.981575406e-01,1.64823e-02,9.99999e-01,9.99944e-01,1.64833e-02,9.99999e-01
5.006483283e-01,1.78731e-02,9.99999e-01,9.99857e-01,1.78756e-02,9.99999e-01
5.031515699e-01,1.93406e-02,9.99999e-01,9.99280e-01,1.93545e-02,9.99999e-01
5.056673278e-01,2.09150e-02,9.99999e-01,9.99620e-01,2.09230e-02,9.99999e-01
5.081956644e-01,2.25729e-02,9.99999e-01,9.99521e-01,2.25837e-02,9.99999e-01
5.107366428e-01,2.43316e-02,9.99999e-01,9.99676e-01,2.43395e-02,9.99999e-01
5.132903260e-01,2.61882e-02,9.99999e-01,9.99815e-01,2.61930e-02,9.99999e-01
5.158567776e-01,2.81447e-02,9.99999e-01,9.99921e-01,2.81469e-02,9.99999e-01
5.184360615e-01,3.02026e-02,9.99999e-01,9.99968e-01,3.02036e-02,9.99999e-01
5.210282418e-01,3.23650e-02,9.99999e-01,9.99987e-01,3.23654e-02,9.99999e-01
5.236333830e-01,3.46330e-02,9.99999e-01,9.99952e-01,3.46346e-02,9.99999e-01
5.262515499e-01,3.70123e-02,9.99999e-01,9.99970e-01,3.70134e-02,9.99999e-01
5.288828077e-01,3.95026e-02,9.99999e-01,9.99972e-01,3.95036e-02,9.99999e-01
5.315272217e-01,4.21063e-02,9.99999e-01,9.99975e-01,4.21073e-02,9.99999e-01
5.341848578e-01,4.48252e-02,9.99999e-01,9.99984e-01,4.48259e-02,9.99999e-01
5.368557821e-01,4.76586e-02,9.99999e-01,9.99944e-01,4.76612e-02,9.99999e-01
5.395400610e-01,5.06045e-02,9.99999e-01,9.99801e-01,5.06145e-02,9.99999e-01
5.422377613e-01,5.36733e-02,9.99999e-01,9.99745e-01,5.36869e-02,9.99999e-01
5.449489501e-01,5.68661e-02,9.99999e-01,9.99762e-01,5.68796e-02,9.99999e-01
5.476736949e-01,6.01809e-02,9.99999e-01,9.99790e-01,6.01935e-02,9.99999e-01
5.504120634e-01,6.36195e-02,9.99999e-01,9.99847e-01,6.36292e-02,9.99999e-01
5.531641237e-01,6.71821e-02,9.99999e-01,9.99923e-01,6.71873e-02,9.99999e-01
5.559299443e-01,7.08655e-02,9.99999e-01,9.99962e-01,7.08681e-02,9.99999e-01
5.587095940e-01,7.46702e-02,9.99999e-01,9.99976e-01,7.46719e-02,9.99999e-01
5.615031420e-01,7.85967e-02,9.99999e-01,9.99973e-01,7.85987e-02,9.99999e-01
5.643106577e-01,8.26458e-02,9.99999e-01,9.99970e-01,8.26482e-02,9.99999e-01
5.671322110e-01,8.67891e-02,9.99999e-01,9.99641e-01,8.68202e-02,9.99999e-01
5.699678720e-01,9.10798e-02,9.99999e-01,9.99622e-01,9.11141e-02,9.99999e-01
5.728177114e-01,9.54916e-02,9.99999e-01,9.99605e-01,9.55293e-02,9.99999e-01
5.756818000e-01,1.00029e-01,9.99999e-01,9.99638e-01,1.00065e-01,9.99999e-01
5.785602090e-01,1.04687e-01,9.99999e-01,9.99684e-01,1.04720e-01,9.99999e-01
5.814530100e-01,1.09458e-01,9.99999e-01,9.99683e-01,1.09493e-01,9.99999e-01
5.843602750e-01,1.14339e-01,9.99999e-01,9.99621e-01,1.14383e-01,9.99999e-01
5.872820764e-01,1.18999e-01,9.99999e-01,9.96742e-01,1.19388e-01,9.99999e-01
5.902184868e-01,1.24017e-01,9.99999e-01,9.96067e-01,1.24506e-01,9.99999e-01
5.931695792e-01,1.29376e-01,9.99999e-01,9.97217e-01,1.29737e-01,9.99999e-01
5.961354271e-01,1.34666e-01,9.99999e-01,9.96952e-01,1.35078e-01,9.99999e-01
5.991161043e-01,1.40214e-01,9.99999e-01,9.97778e-01,1.40526e-01,9.99999e-01
6.021116848e-01,1.45896e-01,9.99999e-01,9.98739e-01,1.46080e-01,9.99999e-01
6.051222432e-01,1.51640e-01,9.99999e-01,9.99361e-01,1.51737e-01,9.99999e-01
6.081478544e-01,1.57452e-01,9.99999e-01,9.99724e-01,1.57495e-01,9.99999e-01
6.111885937e-01,1.63332e-01,9.99999e-01,9.99883e-01,1.63351e-01,9.99999e-01
6.142445367e-01,1.69295e-01,9.99999e-01,9.99947e-01,1.69303e-01,9.99999e-01
6.173157594e-01,1.75343e-01,9.99999e-01,9.99970e-01,1.75348e-01,9.99999e-01
6.204023382e-01,1.81479e-01,9.99999e-01,9.99975e-01,1.81483e-01,9.99999e-01
6.235043498e-01,1.87685e-01,9.99999e-01,9.99891e-01,1.87705e-01,9.99999e-01
6.266218716e-01,1.93901e-01,9.99999e-01,9.99433e-01,1.94011e-01,9.99999e-01
6.297549810e-01,2.00357e-01,9.99999e-01,9.99791e-01,2.00398e-01,9.99999e-01
6.329037559e-01,2.06778e-01,9.99999e-01,9.99589e-01,2.06863e-01,9.99999e-01
6.360682746e-01,2.13328e-01,9.99999e-01,9.99649e-01,2.13403e-01,9.99999e-01
6.392486160e-01,2.19914e-01,9.99999e-01,9.99546e-01,2.20014e-01,9.99999e-01
6.424448591e-01,2.26555e-01,9.99999e-01,9.99391e-01,2.26693e-01,9.99999e-01
6.456570834e-01,2.32778e-01,9.99999e-01,9.97177e-01,2.33437e-01,9.99999e-01
6.488853688e-01,2.39748e-01,9.99999e-01,9.97940e-01,2.40243e-01,9.99999e-01
6.521297956e-01,2.46588e-01,9.99999e-01,9.97900e-01,2.47106e-01,9.99999e-01
6.553904446e-01,2.53493e-01,9.99999e-01,9.97907e-01,2.54025e-01,9.99999e-01
6.586673968e-01,2.60527e-01,9.99999e-01,9.98210e-01,2.60994e-01,9.99999e-01
6.619607338e-01,2.67745e-01,9.99999e-01,9.99002e-01,2.68012e-01,9.99999e-01
6.652705375e-01,2.74909e-01,9.99999e-01,9.99401e-01,2.75074e-01,9.99999e-01
6.685968902e-01,2.82105e-01,9.99999e-01,9.99745e-01,2.82177e-01,9.99999e-01
6.719398746e-01,2.89281e-01,9.99999e-01,9.99870e-01,2.89318e-01,9.99999e-01
6.752995740e-01,2.96472e-01,9.99999e-01,9.99929e-01,2.96493e-01,9.99999e-01
6.786760719e-01,3.03668e-01,9.99999e-01,9.99898e-01,3.03699e-01,9.99999e-01
6.820694522e-01,3.10879e-01,9.99999e-01,9.99826e-01,3.10933e-01,9.99999e-01
6.854797995e-01,3.18120e-01,9.99999e-01,9.99776e-01,3.18191e-01,9.99999e-01
6.889071985e-01,3.25293e-01,9.99999e-01,9.99456e-01,3.25470e-01,9.99999e-01
6.923517345e-01,3.29835e-01,9.99999e-01,9.91188e-01,3.32767e-01,9.99999e-01
6.958134932e-01,3.38529e-01,9.99999e-01,9.95443e-01,3.40078e-01,9.99999e-01
6.992925606e-01,3.45887e-01,9.99999e-01,9.95640e-01,3.47401e-01,9.99999e-01
7.027890234e-01,3.52829e-01,9.99999e-01,9.94634e-01,3.54732e-01,9.99999e-01
7.063029686e-01,3.60435e-01,9.99999e-01,9.95486e-01,3.62069e-01,9.99999e-01
7.098344834e-01,3.67808e-01,9.99999e-01,9.95669e-01,3.69408e-01,9.99999e-01
7.133836558e-01,3.74563e-01,9.99999e-01,9.94204e-01,3.76746e-01,9.99999e-01
7.169505741e-01,3.66530e-01,9.99999e-01,9.54304e-01,3.84081e-01,9.99998e-01
7.205353270e-01,3.82617e-01,9.99999e-01,9.77534e-01,3.91410e-01,9.99998e-01
7.241380036e-01,3.87325e-01,9.99999e-01,9.71398e-01,3.98730e-01,9.99998e-01
7.277586936e-01,3.95547e-01,9.99999e-01,9.74163e-01,4.06037e-01,9.99998e-01
7.313974871e-01,4.02014e-01,9.99999e-01,9.72619e-01,4.13331e-01,9.99999e-01
7.350544745e-01,4.14278e-01,9.99999e-01,9.84950e-01,4.20607e-01,9.99999e-01
7.387297469e-01,4.23120e-01,9.99999e-01,9.88911e-01,4.27864e-01,9.99999e-01
7.424233956e-01,4.32736e-01,9.99999e-01,9.94566e-01,4.35100e-01,9.99999e-01
7.461355126e-01,4.40853e-01,9.99999e-01,9.96702e-01,4.42311e-01,9.99999e-01
7.498661902e-01,4.48806e-01,9.99999e-01,9.98465e-01,4.49496e-01,9.99999e-01
7.536155211e-01,4.56307e-01,9.99999e-01,9.99246e-01,4.56651e-01,9.99999e-01
7.573835987e-01,4.63597e-01,9.99999e-01,9.99611e-01,4.63777e-01,9.99999e-01
7.611705167e-01,4.70756e-01,9.99999e-01,9.99758e-01,4.70869e-01,9.99999e-01
7.649763693e-01,4.77854e-01,9.99999e-01,9.99848e-01,4.77927e-01,9.99999e-01
7.688012511e-01,4.84896e-01,9.99999e-01,9.99894e-01,4.84947e-01,9.99999e-01
7.726452574e-01,4.91887e-01,9.99999e-01,9.99912e-01,4.91929e-01,9.99999e-01
7.765084837e-01,4.98810e-01,9.99999e-01,9.99876e-01,4.98871e-01,9.99999e-01
7.803910261e-01,4.88946e-01,9.67233e-01,9.99465e-01,5.05771e-01,9.99999e-01
7.842929812e-01,4.43100e-01,8.65909e-01,9.98136e-01,5.12627e-01,9.99999e-01
7.882144461e-01,4.43381e-01,8.56731e-01,9.96175e-01,5.19438e-01,9.99999e-01
7.921555184e-01,4.79897e-01,9.13873e-01,9.97905e-01,5.26202e-01,9.99999e-01
7.961162960e-01,4.99987e-01,9.41674e-01,9.96284e-01,5.32918e-01,9.99999e-01
8.000968774e-01,5.20051e-01,9.67930e-01,9.95718e-01,5.39585e-01,9.99999e-01
8.040973618e-01,5.34775e-01,9.83287e-01,9.95714e-01,5.46201e-01,9.99999e-01
8.081178486e-01,5.43205e-01,9.92282e-01,9.90336e-01,5.52764e-01,9.99999e-01
8.121584379e-01,5.35806e-01,9.97619e-01,9.60301e-01,5.59275e-01,9.99999e-01
8.162192301e-01,5.38971e-01,9.99473e-01,9.53189e-01,5.65732e-01,9.99998e-01
8.203003262e-01,5.58528e-01,9.99991e-01,9.76227e-01,5.72133e-01,9.99998e-01
8.244018279e-01,5.59497e-01,9.99999e-01,9.67186e-01,5.78478e-01,9.99998e-01
8.285238370e-01,5.68253e-01,9.99999e-01,9.71760e-01,5.84767e-01,9.99998e-01
8.326664562e-01,5.74149e-01,9.99999e-01,9.71491e-01,5.90997e-01,9.99999e-01
8.368297885e-01,5.84976e-01,9.99999e-01,9.79583e-01,5.97169e-01,9.99999e-01
8.410139374e-01,5.95937e-01,9.99999e-01,9.87826e-01,6.03281e-01,9.99999e-01
8.452190071e-01,6.05688e-01,9.99999e-01,9.94017e-01,6.09333e-01,9.99999e-01
8.494451021e-01,6.13185e-01,9.99999e-01,9.96521e-01,6.15325e-01,9.99999e-01
8.536923276e-01,6.19979e-01,9.99999e-01,9.97944e-01,6.21255e-01,9.99999e-01
8.579607893e-01,6.26330e-01,9.99999e-01,9.98732e-01,6.27124e-01,9.99999e-01
8.622505932e-01,6.32422e-01,9.99999e-01,9.99195e-01,6.32931e-01,9.99999e-01
8.665618462e-01,5.91552e-01,9.26660e-01,9.99501e-01,6.38675e-01,9.99999e-01
8.708946554e-01,4.46187e-01,6.92835e-01,9.99428e-01,6.44357e-01,9.99999e-01
8.752491287e-01,4.83630e-01,7.44627e-01,9.99236e-01,6.49975e-01,9.99999e-01
8.796253743e-01,5.57061e-01,8.50662e-01,9.98941e-01,6.55530e-01,9.99999e-01
8.840235012e-01,6.07139e-01,9.19582e-01,9.98791e-01,6.61021e-01,9.99999e-01
8.884436187e-01,6.41992e-01,9.67555e-01,9.95565e-01,6.66448e-01,9.99999e-01
8.928858368e-01,6.32701e-01,9.86724e-01,9.54349e-01,6.71811e-01,9.99998e-01
8.973502660e-01,6.21551e-01,9.96768e-01,9.20865e-01,6.77110e-01,9.99998e-01
9.018370173e-01,6.54071e-01,9.99643e-01,9.58895e-01,6.82346e-01,9.99998e-01
9.063462024e-01,6.56524e-01,9.90766e-01,9.63556e-01,6.87517e-01,9.99998e-01
9.108779334e-01,6.40227e-01,9.79115e-01,9.43835e-01,6.92624e-01,9.99998e-01
9.154323231e-01,6.50215e-01,9.95078e-01,9.36501e-01,6.97666e-01,9.99997e-01
9.200094847e-01,6.22260e-01,9.29861e-01,9.49951e-01,7.02645e-01,9.99997e-01
9.246095321e-01,5.89464e-01,9.01790e-01,9.22167e-01,7.07560e-01,9.99995e-01
9.292325798e-01,3.86283e-01,9.21852e-01,5.83306e-01,7.12412e-01,9.99991e-01
9.338787427e-01,3.34319e-01,9.24657e-01,5.00119e-01,7.17199e-01,9.99989e-01
9.385481364e-01,5.17063e-01,9.44067e-01,7.56254e-01,7.21924e-01,9.99989e-01
9.432408771e-01,4.75933e-01,9.65421e-01,6.77225e-01,7.26585e-01,9.99988e-01
9.479570815e-01,4.20195e-01,9.82095e-01,5.84599e-01,7.31184e-01,9.99989e-01
9.526968669e-01,4.88320e-01,9.91334e-01,6.69041e-01,7.35720e-01,9.99992e-01
9.574603512e-01,5.09353e-01,9.96287e-01,6.90539e-01,7.40193e-01,9.99993e-01
9.622476530e-01,5.50399e-01,9.98841e-01,7.39994e-01,7.44605e-01,9.99995e-01
9.670588912e-01,6.29353e-01,9.99652e-01,8.40587e-01,7.48955e-01,9.99997e-01
9.718941857e-01,6.75702e-01,9.99975e-01,8.97077e-01,7.53243e-01,9.99998e-01
9.767536566e-01,6.92163e-01,9.99999e-01,9.13781e-01,7.57471e-01,9.99998e-01
9.816374249e-01,7.12462e-01,9.99999e-01,9.35433e-01,7.61639e-01,9.99998e-01
9.865456120e-01,7.34481e-01,9.99999e-01,9.59169e-01,7.65746e-01,9.99999e-01
9.914783401e-01,7.50212e-01,9.99999e-01,9.74562e-01,7.69794e-01,9.99999e-01
9.964357318e-01,7.63004e-01,9.99999e-01,9.86070e-01,7.73782e-01,9.99999e-01
1.001417910e+00,7.71204e-01,9.99999e-01,9.91630e-01,7.77712e-01,9.99999e-01
1.006425000e+00,7.77847e-01,9.99999e-01,9.95218e-01,7.81583e-01,9.99999e-01
1.011457125e+00,7.83067e-01,9.99999e-01,9.97032e-01,7.85397e-01,9.99999e-01
1.016514411e+00,7.87563e-01,9.99999e-01,9.97983e-01,7.89154e-01,9.99999e-01
1.021596983e+00,7.91539e-01,9.99948e-01,9.98392e-01,7.92853e-01,9.99999e-01
1.026704968e+00,7.92627e-01,9.96387e-01,9.98746e-01,7.96497e-01,9.99999e-01
1.031838492e+00,7.64123e-01,9.55895e-01,9.99089e-01,8.00085e-01,9.99999e-01
1.036997685e+00,1.27537e-01,1.58772e-01,9.99458e-01,8.03617e-01,9.99999e-01
1.042182673e+00,1.06167e-01,1.31618e-01,9.99353e-01,8.07095e-01,9.99999e-01
1.047393587e+00,1.22332e-01,1.51044e-01,9.99143e-01,8.10519e-01,9.99999e-01
1.052630555e+00,3.94164e-03,4.84716e-03,9.98824e-01,8.13889e-01,9.99999e-01
1.057893707e+00,9.88642e-03,1.21140e-02,9.98036e-01,8.17207e-01,9.99999e-01
1.063183176e+00,3.16591e-02,3.86766e-02,9.96771e-01,8.20472e-01,9.99999e-01
1.068499092e+00,8.58059e-02,1.04651e-01,9.94600e-01,8.23685e-01,9.99999e-01
1.073841587e+00,1.97820e-01,2.40550e-01,9.93678e-01,8.26847e-01,9.99999e-01
1.079210795e+00,3.34219e-01,4.05696e-01,9.91915e-01,8.29958e-01,9.99999e-01
1.084606849e+00,5.01349e-01,6.08964e-01,9.87776e-01,8.33019e-01,9.99999e-01
1.090029883e+00,6.35155e-01,7.72944e-01,9.82445e-01,8.36030e-01,9.99998e-01
1.095480033e+00,7.04611e-01,8.80895e-01,9.52910e-01,8.38993e-01,9.99998e-01
1.100957433e+00,7.01049e-01,9.40733e-01,8.84616e-01,8.41907e-01,9.99997e-01
1.106462220e+00,6.03778e-01,9.75068e-01,7.32360e-01,8.44774e-01,9.99994e-01
1.111994531e+00,4.37577e-01,9.90686e-01,5.20781e-01,8.47593e-01,9.99990e-01
1.117554504e+00,2.96179e-01,9.97723e-01,3.48952e-01,8.50366e-01,9.99986e-01
1.123142276e+00,3.95570e-01,9.99850e-01,4.63730e-01,8.53093e-01,9.99984e-01
1.128757988e+00,5.21291e-01,9.99999e-01,6.09155e-01,8.55775e-01,9.99982e-01
1.134401778e+00,3.00300e-01,9.99999e-01,3.49838e-01,8.58411e-01,9.99980e-01
1.140073787e+00,6.39820e-01,9.99999e-01,7.43119e-01,8.61004e-01,9.99984e-01
1.145774156e+00,4.66400e-01,9.99999e-01,5.40100e-01,8.63553e-01,9.99986e-01
1.151503026e+00,4.36336e-01,9.99999e-01,5.03823e-01,8.66059e-01,9.99988e-01
1.157260541e+00,4.88860e-01,9.99999e-01,5.62868e-01,8.68522e-01,9.99991e-01
1.163046844e+00,5.69513e-01,9.99999e-01,6.53906e-01,8.70944e-01,9.99994e-01
1.168862078e+00,6.49893e-01,9.99999e-01,7.44162e-01,8.73324e-01,9.99996e-01
1.174706389e+00,7.29672e-01,9.99999e-01,8.33279e-01,8.75664e-01,9.99998e-01
1.180579921e+00,7.85677e-01,9.99999e-01,8.94886e-01,8.77963e-01,9.99998e-01
1.186482820e+00,8.26665e-01,9.99992e-01,9.39159e-01,8.80223e-01,9.99998e-01
1.192415234e+00,8.39871e-01,9.87132e-01,9.64028e-01,8.82444e-01,9.99998e-01
1.198377311e+00,4.84783e-01,5.62341e-01,9.69577e-01,8.84627e-01,9.99998e-01
1.204369197e+00,8.03364e-11,9.21355e-11,9.71197e-01,8.86772e-01,9.99999e-01
1.210391043e+00,4.72935e-39,5.40374e-39,9.72442e-01,8.88879e-01,9.99999e-01
1.216442998e+00,5.28456e-34,6.01919e-34,9.76526e-01,8.90949e-01,9.99999e-01
1.222525213e+00,1.63244e-33,1.84557e-33,9.81675e-01,8.92984e-01,9.99999e-01
1.228637839e+00,5.89361e-26,6.64407e-26,9.87238e-01,8.94982e-01,9.99999e-01
1.234781029e+00,6.82817e-17,7.64409e-17,9.90513e-01,8.96946e-01,9.99999e-01
1.240954934e+00,2.06396e-11,2.30516e-11,9.93990e-01,8.98875e-01,9.99999e-01
1.247159708e+00,2.06707e-06,2.30131e-06,9.95319e-01,9.00770e-01,9.99999e-01
1.253395507e+00,4.00407e-04,4.44995e-04,9.95841e-01,9.02631e-01,9.99999e-01
1.259662485e+00,1.08021e-02,1.19814e-02,9.96046e-01,9.04459e-01,9.99999e-01
1.265960797e+00,6.97971e-02,7.74102e-02,9.93692e-01,9.06255e-01,9.99999e-01
1.272290601e+00,3.05301e-01,3.39311e-01,9.90096e-01,9.08019e-01,9.99999e-01
1.278652054e+00,2.58523e-01,2.88699e-01,9.80398e-01,9.09751e-01,9.99999e-01
1.285045314e+00,5.58220e-03,6.22083e-03,9.64699e-01,9.11452e-01,9.99998e-01
1.291470541e+00,2.75286e-05,3.14052e-05,9.39287e-01,9.13123e-01,9.99998e-01
1.297927893e+00,9.72570e-03,1.11444e-02,9.14707e-01,9.14764e-01,9.99997e-01
1.304417533e+00,1.16548e-01,1.39796e-01,9.00311e-01,9.16375e-01,9.99995e-01
1.310939621e+00,2.87217e-02,3.36260e-02,8.86453e-01,9.17957e-01,9.99992e-01
1.317494319e+00,6.32636e-14,7.42509e-14,8.77828e-01,9.19510e-01,9.99988e-01
1.324081790e+00,1.05948e-09,1.26320e-09,8.22661e-01,9.21036e-01,9.99981e-01
1.330702199e+00,6.96325e-06,1.11623e-05,4.63502e-01,9.22534e-01,9.99968e-01
1.337355710e+00,3.55373e-06,1.38048e-05,1.39549e-01,9.24004e-01,9.99940e-01
1.344042489e+00,5.59905e-07,4.09185e-06,8.84705e-03,9.25448e-01,9.99872e-01
1.350762701e+00,1.29394e-09,7.06473e-06,5.12021e-05,9.26865e-01,9.99796e-01
1.357516515e+00,1.88948e-09,4.96750e-04,9.61240e-07,9.28256e-01,9.99748e-01
1.364304097e+00,1.76778e-06,7.11790e-03,1.33018e-04,9.29622e-01,9.99730e-01
1.371125618e+00,2.79164e-04,7.58689e-02,2.46555e-03,9.30963e-01,9.99727e-01
1.377981246e+00,8.47389e-04,1.20703e-01,5.88956e-03,9.32280e-01,9.99707e-01
1.384871152e+00,5.97758e-05,2.92249e-01,1.75566e-04,9.33572e-01,9.99715e-01
1.391795508e+00,6.66871e-05,3.20981e-01,1.78801e-04,9.34840e-01,9.99759e-01
1.398754485e+00,3.83831e-04,4.95865e-01,7.73650e-04,9.36085e-01,9.99792e-01
1.405748258e+00,4.21855e-04,5.96775e-01,6.89147e-04,9.37307e-01,9.99814e-01
1.412776999e+00,5.17599e-04,7.21793e-01,7.14114e-04,9.38507e-01,9.99850e-01
1.419840884e+00,8.87145e-04,6.48044e-01,1.19095e-03,9.39684e-01,9.99888e-01
1.426940089e+00,1.52021e-03,6.13377e-02,5.07986e-03,9.40839e-01,9.99930e-01
1.434074789e+00,0.00000e+00,0.00000e+00,1.77489e-02,9.41973e-01,9.99956e-01
1.441245163e+00,0.00000e+00,0.00000e+00,4.37627e-02,9.43086e-01,9.99966e-01
1.448451389e+00,0.00000e+00,0.00000e+00,1.09082e-01,9.44178e-01,9.99971e-01
1.455693646e+00,4.11005e-313,9.40630e-313,2.29154e-01,9.45250e-01,9.99976e-01
1.462972114e+00,6.14978e-152,1.40588e-151,2.79850e-01,9.46302e-01,9.99979e-01
1.470286975e+00,4.56989e-64,1.10938e-63,2.26758e-01,9.47334e-01,9.99981e-01
