#,Wave/freq,Total,CO2,H2O,Rayleigh,CIA
4.000000000e-01,2.09919e-03,9.99999e-01,9.99987e-01,2.09922e-03,9.99999e-01
4.020000000e-01,2.37140e-03,9.99999e-01,9.99991e-01,2.37142e-03,9.99999e-01
4.040100000e-01,2.67213e-03,9.99999e-01,9.99996e-01,2.67214e-03,9.99999e-01
4.060300500e-01,3.00389e-03,9.99999e-01,9.99998e-01,3.00390e-03,9.99999e-01
4.080602003e-01,3.36904e-03,9.99999e-01,9.99999e-01,3.36904e-03,9.99999e-01
4.101005013e-01,3.77003e-03,9.99999e-01,9.99999e-01,3.77003e-03,9.99999e-01
4.121510038e-01,4.20937e-03,9.99999e-01,9.99999e-01,4.20938e-03,9.99999e-01
4.142117588e-01,4.68969e-03,9.99999e-01,9.99996e-01,4.68970e-03,9.99999e-01
4.162828176e-01,5.21362e-03,9.99999e-01,9.99984e-01,5.21370e-03,9.99999e-01
4.183642317e-01,5.78408e-03,9.99999e-01,9.99990e-01,5.78413e-03,9.99999e-01
4.204560528e-01,6.40379e-03,9.99999e-01,9.99994e-01,6.40382e-03,9.99999e-01
4.225583331e-01,7.07566e-03,9.99999e-01,9.99997e-01,7.07567e-03,9.99999e-01
4.246711247e-01,7.80260e-03,9.99999e-01,9.99997e-01,7.80261e-03,9.99999e-01
4.267944804e-01,8.58761e-03,9.99999e-01,9.99997e-01,8.58763e-03,9.99999e-01
4.289284528e-01,9.43374e-03,9.99999e-01,9.99997e-01,9.43376e-03,9.99999e-01
4.310730950e-01,1.03440e-02,9.99999e-01,9.99998e-01,1.03440e-02,9.99999e-01
4.332284605e-01,1.13215e-02,9.99999e-01,9.99999e-01,1.13215e-02,9.99999e-01
4.353946028e-01,1.23693e-02,9.99999e-01,9.99999e-01,1.23693e-02,9.99999e-01
4.375715758e-01,1.34904e-02,9.99999e-01,9.99998e-01,1.34904e-02,9.99999e-01
4.397594337e-01,1.46878e-02,9.99999e-01,9.99986e-01,1.46880e-02,9.99999e-01
4.419582309e-01,1.59640e-02,9.99999e-01,9.99934e-01,1.59650e-02,9.99999e-01
4.441680220e-01,1.73236e-02,9.99999e-01,9.99947e-01,1.73245e-02,9.99999e-01
4.463888621e-01,1.87684e-02,9.99999e-01,9.99945e-01,1.87695e-02,9.99999e-01
4.486208064e-01,2.03021e-02,9.99999e-01,9.99965e-01,2.03028e-02,9.99999e-01
4.508639105e-01,2.19270e-02,9.99999e-01,9.99983e-01,2.19273e-02,9.99999e-01
4.531182300e-01,2.36457e-02,9.99999e-01,9.99993e-01,2.36459e-02,9.99999e-01
4.553838212e-01,2.54610e-02,9.99999e-01,9.99995e-01,2.54611e-02,9.99999e-01
4.576607403e-01,2.73756e-02,9.99999e-01,9.99997e-01,2.73757e-02,9.99999e-01
4.599490440e-01,2.93921e-02,9.99999e-01,9.99998e-01,2.93921e-02,9.99999e-01
4.622487892e-01,3.15128e-02,9.99999e-01,9.99999e-01,3.15128e-02,9.99999e-01
4.645600332e-01,3.37400e-02,9.99999e-01,9.99998e-01,3.37401e-02,9.99999e-01
4.668828333e-01,3.60755e-02,9.99999e-01,9.99983e-01,3.60760e-02,9.99999e-01
4.692172475e-01,3.85214e-02,9.99999e-01,9.99965e-01,3.85227e-02,9.99999e-01
4.715633337e-01,4.10812e-02,9.99999e-01,9.99977e-01,4.10821e-02,9.99999e-01
4.739211504e-01,4.37550e-02,9.99999e-01,9.99978e-01,4.37559e-02,9.99999e-01
4.762907561e-01,4.65452e-02,9.99999e-01,9.99988e-01,4.65457e-02,9.99999e-01
4.786722099e-01,4.94527e-02,9.99999e-01,9.99994e-01,4.94529e-02,9.99999e-01
4.810655710e-01,5.24789e-02,9.99999e-01,9.99998e-01,5.24789e-02,9.99999e-01
4.834708988e-01,5.56241e-02,9.99999e-01,9.99986e-01,5.56248e-02,9.99999e-01
4.858882533e-01,5.88901e-02,9.99999e-01,9.99975e-01,5.88915e-02,9.99999e-01
4.883176946e-01,6.22785e-02,9.99999e-01,9.99979e-01,6.22798e-02,9.99999e-01
4.907592831e-01,6.57891e-02,9.99999e-01,9.99981e-01,6.57903e-02,9.99999e-01
4.932130795e-01,6.94225e-02,9.99999e-01,9.99986e-01,6.94234e-02,9.99999e-01
4.956791449e-01,7.31789e-02,9.99999e-01,9.99992e-01,7.31794e-02,9.99999e-01
4.981575406e-01,7.70558e-02,9.99999e-01,9.99965e-01,7.70584e-02,9.99999e-01
5.006483283e-01,8.10532e-02,9.99999e-01,9.99912e-01,8.10603e-02,9.99999e-01
5.031515699e-01,8.51466e-02,9.99999e-01,9.99551e-01,8.51848e-02,9.99999e-01
5.056673278e-01,8.94102e-02,9.99999e-01,9.99762e-01,8.94314e-02,9.99999e-01
5.081956644e-01,9.37714e-02,9.99999e-01,9.99700e-01,9.37995e-02,9.99999e-01
5.107366428e-01,9.82685e-02,9.99999e-01,9.99797e-01,9.82884e-02,9.99999e-01
5.132903260e-01,1.02885e-01,9.99999e-01,9.99883e-01,1.02897e-01,9.99999e-01
5.158567776e-01,1.07619e-01,9.99999e-01,9.99950e-01,1.07624e-01,9.99999e-01
5.184360615e-01,1.12467e-01,9.99999e-01,9.99979e-01,1.12469e-01,9.99999e-01
5.210282418e-01,1.17429e-01,9.99999e-01,9.99992e-01,1.17429e-01,9.99999e-01
5.236333830e-01,1.22501e-01,9.99999e-01,9.99970e-01,1.22504e-01,9.99999e-01
5.262515499e-01,1.27689e-01,9.99999e-01,9.99981e-01,1.27692e-01,9.99999e-01
5.288828077e-01,1.32987e-01,9.99999e-01,9.99982e-01,1.32990e-01,9.99999e-01
5.315272217e-01,1.38394e-01,9.99999e-01,9.99984e-01,1.38396e-01,9.99999e-01
5.341848578e-01,1.43908e-01,9.99999e-01,9.99989e-01,1.43910e-01,9.99999e-01
5.368557821e-01,1.49522e-01,9.99999e-01,9.99965e-01,1.49527e-01,9.99999e-01
5.395400610e-01,1.55227e-01,9.99999e-01,9.99878e-01,1.55246e-01,9.99999e-01
5.422377613e-01,1.61039e-01,9.99999e-01,9.99840e-01,1.61065e-01,9.99999e-01
5.449489501e-01,1.66955e-01,9.99999e-01,9.99852e-01,1.66980e-01,9.99999e-01
5.476736949e-01,1.72966e-01,9.99999e-01,9.99868e-01,1.72989e-01,9.99999e-01
5.504120634e-01,1.79072e-01,9.99999e-01,9.99904e-01,1.79089e-01,9.99999e-01
5.531641237e-01,1.85269e-01,9.99999e-01,9.99951e-01,1.85278e-01,9.99999e-01
5.559299443e-01,1.91547e-01,9.99999e-01,9.99976e-01,1.91551e-01,9.99999e-01
5.587095940e-01,1.97904e-01,9.99999e-01,9.99985e-01,1.97907e-01,9.99999e-01
5.615031420e-01,2.04339e-01,9.99999e-01,9.99983e-01,2.04342e-01,9.99999e-01
5.643106577e-01,2.10850e-01,9.99999e-01,9.99981e-01,2.10853e-01,9.99999e-01
5.671322110e-01,2.17390e-01,9.99999e-01,9.99782e-01,2.17437e-01,9.99999e-01
5.699678720e-01,2.24037e-01,9.99999e-01,9.99761e-01,2.24090e-01,9.99999e-01
5.728177114e-01,2.30753e-01,9.99999e-01,9.99754e-01,2.30809e-01,9.99999e-01
5.756818000e-01,2.37538e-01,9.99999e-01,9.99774e-01,2.37591e-01,9.99999e-01
5.785602090e-01,2.44385e-01,9.99999e-01,9.99802e-01,2.44433e-01,9.99999e-01
5.814530100e-01,2.51281e-01,9.99999e-01,9.99802e-01,2.51330e-01,9.99999e-01
5.843602750e-01,2.58220e-01,9.99999e-01,9.99766e-01,2.58281e-01,9.99999e-01
5.872820764e-01,2.64746e-01,9.99999e-01,9.97985e-01,2.65280e-01,9.99999e-01
5.902184868e-01,2.71654e-01,9.99999e-01,9.97535e-01,2.72325e-01,9.99999e-01
5.931695792e-01,2.78928e-01,9.99999e-01,9.98264e-01,2.79413e-01,9.99999e-01
5.961354271e-01,2.85993e-01,9.99999e-01,9.98092e-01,2.86539e-01,9.99999e-01
5.991161043e-01,2.93292e-01,9.99999e-01,9.98607e-01,2.93701e-01,9.99999e-01
6.021116848e-01,3.00658e-01,9.99999e-01,9.99208e-01,3.00896e-01,9.99999e-01
6.051222432e-01,3.07996e-01,9.99999e-01,9.99598e-01,3.08119e-01,9.99999e-01
6.081478544e-01,3.15314e-01,9.99999e-01,9.99826e-01,3.15368e-01,9.99999e-01
6.111885937e-01,3.22616e-01,9.99999e-01,9.99926e-01,3.22639e-01,9.99999e-01
6.142445367e-01,3.29919e-01,9.99999e-01,9.99966e-01,3.29930e-01,9.99999e-01
6.173157594e-01,3.37230e-01,9.99999e-01,9.99981e-01,3.37236e-01,9.99999e-01
6.204023382e-01,3.44550e-01,9.99999e-01,9.99984e-01,3.44555e-01,9.99999e-01
6.235043498e-01,3.51860e-01,9.99999e-01,9.99934e-01,3.51883e-01,9.99999e-01
6.266218716e-01,3.59091e-01,9.99999e-01,9.99646e-01,3.59218e-01,9.99999e-01
6.297549810e-01,3.66509e-01,9.99999e-01,9.99870e-01,3.66557e-01,9.99999e-01
6.329037559e-01,3.73800e-01,9.99999e-01,9.99742e-01,3.73896e-01,9.99999e-01
6.360682746e-01,3.81149e-01,9.99999e-01,9.99781e-01,3.81232e-01,9.99999e-01
6.392486160e-01,3.88454e-01,9.99999e-01,9.99716e-01,3.88564e-01,9.99999e-01
6.424448591e-01,3.95753e-01,9.99999e-01,9.99660e-01,3.95887e-01,9.99999e-01
6.456570834e-01,4.02503e-01,9.99999e-01,9.98271e-01,4.03200e-01,9.99999e-01
6.488853688e-01,4.09876e-01,9.99999e-01,9.98482e-01,4.10499e-01,9.99999e-01
6.521297956e-01,4.17233e-01,9.99999e-01,9.98683e-01,4.17782e-01,9.99999e-01
6.553904446e-01,4.24496e-01,9.99999e-01,9.98701e-01,4.25047e-01,9.99999e-01
6.586673968e-01,4.31806e-01,9.99999e-01,9.98876e-01,4.32291e-01,9.99999e-01
6.619607338e-01,4.39227e-01,9.99999e-01,9.99350e-01,4.39512e-01,9.99999e-01
6.652705375e-01,4.46539e-01,9.99999e-01,9.99622e-01,4.46707e-01,9.99999e-01
6.685968902e-01,4.53795e-01,9.99999e-01,9.99824e-01,4.53875e-01,9.99999e-01
6.719398746e-01,4.60975e-01,9.99999e-01,9.99918e-01,4.61012e-01,9.99999e-01
6.752995740e-01,4.68097e-01,9.99999e-01,9.99955e-01,4.68117e-01,9.99999e-01
6.786760719e-01,4.75159e-01,9.99999e-01,9.99936e-01,4.75189e-01,9.99999e-01
6.820694522e-01,4.82172e-01,9.99999e-01,9.99891e-01,4.82224e-01,9.99999e-01
6.854797995e-01,4.89154e-01,9.99999e-01,9.99860e-01,4.89221e-01,9.99999e-01
6.889071985e-01,4.96015e-01,9.99999e-01,9.99669e-01,4.96179e-01,9.99999e-01
6.923517345e-01,5.00349e-01,9.99999e-01,9.94539e-01,5.03095e-01,9.99999e-01
6.958134932e-01,5.08487e-01,9.99999e-01,9.97094e-01,5.09969e-01,9.99999e-01
6.992925606e-01,5.15402e-01,9.99999e-01,9.97300e-01,5.16797e-01,9.99999e-01
7.027890234e-01,5.21820e-01,9.99999e-01,9.96637e-01,5.23580e-01,9.99999e-01
7.063029686e-01,5.28817e-01,9.99999e-01,9.97176e-01,5.30315e-01,9.99999e-01
7.098344834e-01,5.35546e-01,9.99999e-01,9.97290e-01,5.37001e-01,9.99999e-01
7.133836558e-01,5.41701e-01,9.99999e-01,9.96440e-01,5.43636e-01,9.99999e-01
7.169505741e-01,5.34478e-01,9.99999e-01,9.71389e-01,5.50220e-01,9.99999e-01
7.205353270e-01,5.48749e-01,9.99999e-01,9.85625e-01,5.56752e-01,9.99999e-01
7.241380036e-01,5.53145e-01,9.99999e-01,9.82094e-01,5.63230e-01,9.99999e-01
7.277586936e-01,5.60431e-01,9.99999e-01,9.83811e-01,5.69653e-01,9.99999e-01
7.313974871e-01,5.66047e-01,9.99999e-01,9.82687e-01,5.76020e-01,9.99999e-01
7.350544745e-01,5.76818e-01,9.99999e-01,9.90534e-01,5.82330e-01,9.99999e-01
7.387297469e-01,5.84478e-01,9.99999e-01,9.93025e-01,5.88583e-01,9.99999e-01
7.424233956e-01,5.92740e-01,9.99999e-01,9.96574e-01,5.94778e-01,9.99999e-01
7.461355126e-01,5.99668e-01,9.99999e-01,9.97927e-01,6.00913e-01,9.99999e-01
7.498661902e-01,6.06401e-01,9.99999e-01,9.99031e-01,6.06989e-01,9.99999e-01
7.536155211e-01,6.12714e-01,9.99999e-01,9.99526e-01,6.13004e-01,9.99999e-01
7.573835987e-01,6.18808e-01,9.99999e-01,9.99755e-01,6.18959e-01,9.99999e-01
7.611705167e-01,6.24757e-01,9.99999e-01,9.99848e-01,6.24851e-01,9.99999e-01
7.649763693e-01,6.30623e-01,9.99999e-01,9.99904e-01,6.30682e-01,9.99999e-01
7.688012511e-01,6.36409e-01,9.99999e-01,9.99933e-01,6.36451e-01,9.99999e-01
7.726452574e-01,6.42122e-01,9.99999e-01,9.99945e-01,6.42157e-01,9.99999e-01
7.765084837e-01,6.47750e-01,9.99999e-01,9.99923e-01,6.47799e-01,9.99999e-01
7.803910261e-01,6.40099e-01,9.79991e-01,9.99670e-01,6.53379e-01,9.99999e-01
7.842929812e-01,6.00511e-01,9.12407e-01,9.98850e-01,6.58895e-01,9.99999e-01
7.882144461e-01,6.01099e-01,9.06910e-01,9.97609e-01,6.64347e-01,9.99999e-01
7.921555184e-01,6.32281e-01,9.45305e-01,9.98681e-01,6.69735e-01,9.99999e-01
7.961162960e-01,6.48477e-01,9.62824e-01,9.97698e-01,6.75059e-01,9.99999e-01
8.000968774e-01,6.64745e-01,9.79722e-01,9.97325e-01,6.80319e-01,9.99999e-01
8.040973618e-01,6.76440e-01,9.89400e-01,9.97329e-01,6.85515e-01,9.99999e-01
8.081178486e-01,6.83192e-01,9.95145e-01,9.94025e-01,6.90647e-01,9.99999e-01
8.121584379e-01,6.77444e-01,9.98484e-01,9.75207e-01,6.95715e-01,9.99999e-01
8.162192301e-01,6.79674e-01,9.99664e-01,9.70288e-01,7.00719e-01,9.99999e-01
8.203003262e-01,6.95291e-01,9.99993e-01,9.85313e-01,7.05658e-01,9.99999e-01
8.244018279e-01,6.95545e-01,9.99999e-01,9.78903e-01,7.10534e-01,9.99999e-01
8.285238370e-01,7.02698e-01,9.99999e-01,9.82317e-01,7.15347e-01,9.99999e-01
8.326664562e-01,7.07160e-01,9.99999e-01,9.82035e-01,7.20096e-01,9.99999e-01
8.368297885e-01,7.15456e-01,9.99999e-01,9.87132e-01,7.24782e-01,9.99999e-01
8.410139374e-01,7.23815e-01,9.99999e-01,9.92336e-01,7.29405e-01,9.99999e-01
8.452190071e-01,7.31200e-01,9.99999e-01,9.96232e-01,7.33965e-01,9.99999e-01
8.494451021e-01,7.36855e-01,9.99999e-01,9.97822e-01,7.38462e-01,9.99999e-01
8.536923276e-01,7.41938e-01,9.99999e-01,9.98706e-01,7.42898e-01,9.99999e-01
8.579607893e-01,7.46679e-01,9.99999e-01,9.99206e-01,7.47272e-01,9.99999e-01
8.622505932e-01,7.51205e-01,9.99999e-01,9.99494e-01,7.51584e-01,9.99999e-01
8.665618462e-01,7.16982e-01,9.48881e-01,9.99688e-01,7.55836e-01,9.99999e-01
8.708946554e-01,6.01083e-01,7.91144e-01,9.99644e-01,7.60027e-01,9.99999e-01
8.752491287e-01,6.33112e-01,8.28896e-01,9.99523e-01,7.64157e-01,9.99999e-01
8.796253743e-01,6.93035e-01,9.02703e-01,9.99342e-01,7.68228e-01,9.99999e-01
8.840235012e-01,7.31961e-01,9.48548e-01,9.99248e-01,7.72240e-01,9.99999e-01
8.884436187e-01,7.58115e-01,9.79327e-01,9.97311e-01,7.76192e-01,9.99999e-01
8.928858368e-01,7.51547e-01,9.91608e-01,9.71526e-01,7.80086e-01,9.99999e-01
8.973502660e-01,7.42892e-01,9.97941e-01,9.49591e-01,7.83922e-01,9.99998e-01
9.018370173e-01,7.66839e-01,9.99772e-01,9.73732e-01,7.87701e-01,9.99998e-01
9.063462024e-01,7.69160e-01,9.94369e-01,9.77269e-01,7.91423e-01,9.99998e-01
9.108779334e-01,7.56871e-01,9.86811e-01,9.64561e-01,7.95088e-01,9.99998e-01
9.154323231e-01,7.64196e-01,9.96856e-01,9.59781e-01,7.98697e-01,9.99998e-01
9.200094847e-01,7.42833e-01,9.55296e-01,9.68251e-01,8.02251e-01,9.99998e-01
9.246095321e-01,7.18934e-01,9.37066e-01,9.51492e-01,8.05750e-01,9.99997e-01
9.292325798e-01,5.49504e-01,9.50715e-01,7.11816e-01,8.09195e-01,9.99994e-01
9.338787427e-01,4.97722e-01,9.51912e-01,6.41197e-01,8.12586e-01,9.99993e-01
9.385481364e-01,6.58891e-01,9.64512e-01,8.36136e-01,8.15924e-01,9.99993e-01
9.432408771e-01,6.25267e-01,9.78063e-01,7.79769e-01,8.19209e-01,9.99992e-01
9.479570815e-01,5.75910e-01,9.88728e-01,7.07947e-01,8.22442e-01,9.99993e-01
9.526968669e-01,6.33892e-01,9.94537e-01,7.71739e-01,8.25624e-01,9.99994e-01
9.574603512e-01,6.54145e-01,9.97659e-01,7.91088e-01,8.28755e-01,9.99996e-01
9.622476530e-01,6.86973e-01,9.99268e-01,8.26435e-01,8.31835e-01,9.99997e-01
9.670588912e-01,7.48122e-01,9.99780e-01,8.96290e-01,8.34866e-01,9.99998e-01
9.718941857e-01,7.82721e-01,9.99983e-01,9.34219e-01,8.37848e-01,9.99998e-01
9.767536566e-01,7.94644e-01,9.99999e-01,9.45125e-01,8.40781e-01,9.99998e-01
9.816374249e-01,8.09050e-01,9.99999e-01,9.58969e-01,8.43666e-01,9.99999e-01
9.865456120e-01,8.24642e-01,9.99999e-01,9.74173e-01,8.46504e-01,9.99999e-01
9.914783401e-01,8.35688e-01,9.99999e-01,9.83978e-01,8.49294e-01,9.99999e-01
9.964357318e-01,8.44577e-01,9.99999e-01,9.91241e-01,8.52039e-01,9.99999e-01
1.001417910e+00,8.50244e-01,9.99999e-01,9.94741e-01,8.54738e-01,9.99999e-01
1.006425000e+00,8.54826e-01,9.99999e-01,9.97006e-01,8.57392e-01,9.99999e-01
1.011457125e+00,8.58399e-01,9.99999e-01,9.98135e-01,8.60002e-01,9.99999e-01
1.016514411e+00,8.61478e-01,9.99999e-01,9.98736e-01,8.62568e-01,9.99999e-01
1.021596983e+00,8.64197e-01,9.99972e-01,9.98993e-01,8.65090e-01,9.99999e-01
1.026704968e+00,8.64997e-01,9.97814e-01,9.99215e-01,8.67570e-01,9.99999e-01
1.031838492e+00,8.45042e-01,9.71846e-01,9.99428e-01,8.70008e-01,9.99999e-01
1.036997685e+00,2.12756e-01,2.43941e-01,9.99661e-01,8.72404e-01,9.99999e-01
1.042182673e+00,2.35072e-01,2.68827e-01,9.99597e-01,8.74760e-01,9.99999e-01
1.047393587e+00,2.33090e-01,2.65887e-01,9.99465e-01,8.77075e-01,9.99999e-01
1.052630555e+00,2.35801e-02,2.68307e-02,9.99267e-01,8.79350e-01,9.99999e-01
1.057893707e+00,4.73369e-02,5.37445e-02,9.98779e-01,8.81586e-01,9.99999e-01
1.063183176e+00,1.05315e-01,1.19352e-01,9.97990e-01,8.83783e-01,9.99999e-01
1.068499092e+00,2.11458e-01,2.39401e-01,9.96630e-01,8.85943e-01,9.99999e-01
1.073841587e+00,3.57984e-01,4.04529e-01,9.96064e-01,8.88065e-01,9.99999e-01
1.079210795e+00,5.00428e-01,5.64882e-01,9.94941e-01,8.90149e-01,9.99999e-01
1.084606849e+00,6.47682e-01,7.31363e-01,9.92363e-01,8.92198e-01,9.99999e-01
1.090029883e+00,7.52443e-01,8.50571e-01,9.89110e-01,8.94210e-01,9.99999e-01
1.095480033e+00,8.03218e-01,9.23293e-01,9.70533e-01,8.96187e-01,9.99998e-01
1.100957433e+00,8.01134e-01,9.62332e-01,9.26698e-01,8.98130e-01,9.99998e-01
1.106462220e+00,7.29855e-01,9.84233e-01,8.23624e-01,9.00038e-01,9.99996e-01
1.111994531e+00,5.94012e-01,9.94129e-01,6.62332e-01,9.01912e-01,9.99993e-01
1.117554504e+00,4.61878e-01,9.98556e-01,5.11720e-01,9.03753e-01,9.99991e-01
1.123142276e+00,5.48876e-01,9.99904e-01,6.06159e-01,9.05561e-01,9.99989e-01
1.128757988e+00,6.61576e-01,9.99999e-01,7.29147e-01,9.07337e-01,9.99989e-01
1.134401778e+00,4.34008e-01,9.99999e-01,4.77418e-01,9.09082e-01,9.99987e-01
1.140073787e+00,7.55720e-01,9.99999e-01,8.29743e-01,9.10795e-01,9.99989e-01
1.145774156e+00,6.15485e-01,9.99999e-01,6.74525e-01,9.12478e-01,9.99991e-01
1.151503026e+00,5.88764e-01,9.99999e-01,6.44074e-01,9.14130e-01,9.99992e-01
1.157260541e+00,6.36950e-01,9.99999e-01,6.95551e-01,9.15752e-01,9.99994e-01
1.163046844e+00,7.01357e-01,9.99999e-01,7.64553e-01,9.17346e-01,9.99996e-01
1.168862078e+00,7.63134e-01,9.99999e-01,8.30477e-01,9.18910e-01,9.99997e-01
1.174706389e+00,8.20815e-01,9.99999e-01,8.91757e-01,9.20447e-01,9.99998e-01
1.180579921e+00,8.59841e-01,9.99999e-01,9.32627e-01,9.21955e-01,9.99998e-01
1.186482820e+00,8.87826e-01,9.99996e-01,9.61439e-01,9.23436e-01,9.99999e-01
1.192415234e+00,8.96960e-01,9.92223e-01,9.77349e-01,9.24890e-01,9.99999e-01
1.198377311e+00,5.27240e-01,5.78464e-01,9.80914e-01,9.26317e-01,9.99999e-01
1.204369197e+00,1.33947e-07,1.45911e-07,9.81902e-01,9.27719e-01,9.99999e-01
1.210391043e+00,3.20419e-25,3.48227e-25,9.82688e-01,9.29095e-01,9.99999e-01
1.216442998e+00,4.54841e-22,4.93348e-22,9.85219e-01,9.30445e-01,9.99999e-01
1.222525213e+00,9.35269e-22,1.00978e-21,9.88490e-01,9.31771e-01,9.99999e-01
1.228637839e+00,8.72797e-17,9.40726e-17,9.92002e-01,9.33073e-01,9.99999e-01
1.234781029e+00,2.20740e-11,2.36863e-11,9.94047e-01,9.34350e-01,9.99999e-01
1.240954934e+00,9.35646e-08,1.00254e-07,9.96237e-01,9.35604e-01,9.99999e-01
1.247159708e+00,4.04231e-05,4.32442e-05,9.97066e-01,9.36835e-01,9.99999e-01
1.253395507e+00,6.15638e-03,6.57659e-03,9.97399e-01,9.38043e-01,9.99999e-01
1.259662485e+00,4.24533e-02,4.52944e-02,9.97554e-01,9.39229e-01,9.99999e-01
1.265960797e+00,1.77049e-01,1.88913e-01,9.96071e-01,9.40393e-01,9.99999e-01
1.272290601e+00,4.46060e-01,4.76335e-01,9.94223e-01,9.41535e-01,9.99999e-01
1.278652054e+00,4.15346e-01,4.45232e-01,9.87811e-01,9.42656e-01,9.99999e-01
1.285045314e+00,2.58799e-02,2.77180e-02,9.80910e-01,9.43757e-01,9.99999e-01
1.291470541e+00,1.13461e-03,1.23432e-03,9.61877e-01,9.44836e-01,9.99998e-01
1.297927893e+00,2.37569e-02,2.58609e-02,9.50429e-01,9.45896e-01,9.99998e-01
1.304417533e+00,2.56385e-01,2.87788e-01,9.36410e-01,9.46936e-01,9.99997e-01
1.310939621e+00,7.26403e-02,8.03069e-02,9.27904e-01,9.47956e-01,9.99995e-01
1.317494319e+00,3.77236e-09,4.18244e-09,9.21427e-01,9.48957e-01,9.99992e-01
1.324081790e+00,1.17802e-06,1.31868e-06,8.84827e-01,9.49940e-01,9.99987e-01
1.330702199e+00,4.91579e-04,6.84915e-04,6.02716e-01,9.50904e-01,9.99980e-01
1.337355710e+00,2.23075e-04,5.34505e-04,2.78240e-01,9.51850e-01,9.99962e-01
1.344042489e+00,3.80204e-05,1.73917e-04,3.49066e-02,9.52778e-01,9.99920e-01
1.350762701e+00,1.47507e-06,4.88390e-04,1.24187e-03,9.53689e-01,9.99872e-01
1.357516515e+00,1.88650e-06,6.72355e-03,1.20673e-04,9.54583e-01,9.99842e-01
1.364304097e+00,1.49112e-04,4.32737e-02,2.35962e-03,9.55459e-01,9.99831e-01
1.371125618e+00,4.12715e-03,1.90302e-01,1.69997e-02,9.56320e-01,9.99829e-01
1.377981246e+00,9.27259e-03,2.64876e-01,3.23190e-02,9.57164e-01,9.99817e-01
1.384871152e+00,1.06451e-03,4.61087e-01,2.11766e-03,9.57992e-01,9.99819e-01
1.391795508e+00,1.73307e-03,4.89122e-01,3.30457e-03,9.58804e-01,9.99845e-01
1.398754485e+00,4.74599e-03,6.44190e-01,7.39132e-03,9.59601e-01,9.99870e-01
1.405748258e+00,5.19429e-03,7.22647e-01,7.09680e-03,9.60383e-01,9.99883e-01
1.412776999e+00,6.20226e-03,8.14669e-01,7.66642e-03,9.61150e-01,9.99906e-01
1.419840884e+00,8.73723e-03,7.52176e-01,1.05437e-02,9.61903e-01,9.99930e-01
1.426940089e+00,7.71125e-03,9.35585e-02,2.79813e-02,9.62641e-01,9.99956e-01
1.434074789e+00,0.00000e+00,0.00000e+00,6.48779e-02,9.63365e-01,9.99972e-01
1.441245163e+00,0.00000e+00,0.00000e+00,1.29876e-01,9.64076e-01,9.99978e-01
1.448451389e+00,0.00000e+00,0.00000e+00,2.31332e-01,9.64773e-01,9.99982e-01
1.455693646e+00,2.75581e-196,4.62055e-196,3.84896e-01,9.65456e-01,9.99985e-01
1.462972114e+00,1.10492e-95,1.85129e-95,4.43953e-01,9.66127e-01,9.99987e-01
1.470286975e+00,7.79141e-41,1.35537e-40,3.86505e-01,9.66785e-01,9.99988e-01
