#,Wave/freq,Total,CO2,H2O,Rayleigh,CIA
4.000000000e-01,4.35846e-10,9.99999e-01,9.99957e-01,4.35864e-10,9.99999e-01
4.020000000e-01,6.67467e-10,9.99999e-01,9.99973e-01,6.67484e-10,9.99999e-01
4.040100000e-01,1.01316e-09,9.99999e-01,9.99988e-01,1.01317e-09,9.99999e-01
4.060300500e-01,1.52525e-09,9.99999e-01,9.99996e-01,1.52525e-09,9.99999e-01
4.080602003e-01,2.27767e-09,9.99999e-01,9.99998e-01,2.27768e-09,9.99999e-01
4.101005013e-01,3.37445e-09,9.99999e-01,9.99999e-01,3.37445e-09,9.99999e-01
4.121510038e-01,4.96068e-09,9.99999e-01,9.99997e-01,4.96069e-09,9.99999e-01
4.142117588e-01,7.23720e-09,9.99999e-01,9.99988e-01,7.23728e-09,9.99999e-01
4.162828176e-01,1.04796e-08,9.99999e-01,9.99947e-01,1.04802e-08,9.99999e-01
4.183642317e-01,1.50651e-08,9.99999e-01,9.99968e-01,1.50656e-08,9.99999e-01
4.204560528e-01,2.15022e-08,9.99999e-01,9.99980e-01,2.15026e-08,9.99999e-01
4.225583331e-01,3.04747e-08,9.99999e-01,9.99992e-01,3.04750e-08,9.99999e-01
4.246711247e-01,4.28945e-08,9.99999e-01,9.99993e-01,4.28947e-08,9.99999e-01
4.267944804e-01,5.99692e-08,9.99999e-01,9.99991e-01,5.99697e-08,9.99999e-01
4.289284528e-01,8.32881e-08,9.99999e-01,9.99993e-01,8.32886e-08,9.99999e-01
4.310730950e-01,1.14927e-07,9.99999e-01,9.99996e-01,1.14927e-07,9.99999e-01
4.332284605e-01,1.57578e-07,9.99999e-01,9.99998e-01,1.57578e-07,9.99999e-01
4.353946028e-01,2.14715e-07,9.99999e-01,9.99999e-01,2.14715e-07,9.99999e-01
4.375715758e-01,2.90785e-07,9.99999e-01,9.99994e-01,2.90786e-07,9.99999e-01
4.397594337e-01,3.91440e-07,9.99999e-01,9.99954e-01,3.91458e-07,9.99999e-01
4.419582309e-01,5.23776e-07,9.99999e-01,9.99769e-01,5.23896e-07,9.99999e-01
4.441680220e-01,6.96989e-07,9.99999e-01,9.99816e-01,6.97117e-07,9.99999e-01
4.463888621e-01,9.22217e-07,9.99999e-01,9.99810e-01,9.22392e-07,9.99999e-01
4.486208064e-01,1.21359e-06,9.99999e-01,9.99881e-01,1.21373e-06,9.99999e-01
4.508639105e-01,1.58837e-06,9.99999e-01,9.99944e-01,1.58846e-06,9.99999e-01
4.531182300e-01,2.06782e-06,9.99999e-01,9.99977e-01,2.06786e-06,9.99999e-01
4.553838212e-01,2.67792e-06,9.99999e-01,9.99984e-01,2.67796e-06,9.99999e-01
4.576607403e-01,3.45037e-06,9.99999e-01,9.99992e-01,3.45040e-06,9.99999e-01
4.599490440e-01,4.42341e-06,9.99999e-01,9.99994e-01,4.42343e-06,9.99999e-01
4.622487892e-01,5.64311e-06,9.99999e-01,9.99998e-01,5.64312e-06,9.99999e-01
4.645600332e-01,7.16454e-06,9.99999e-01,9.99996e-01,7.16456e-06,9.99999e-01
4.668828333e-01,9.05291e-06,9.99999e-01,9.99944e-01,9.05341e-06,9.99999e-01
4.692172475e-01,1.13861e-05,9.99999e-01,9.99880e-01,1.13875e-05,9.99999e-01
4.715633337e-01,1.42575e-05,9.99999e-01,9.99922e-01,1.42586e-05,9.99999e-01
4.739211504e-01,1.77731e-05,9.99999e-01,9.99925e-01,1.77744e-05,9.99999e-01
4.762907561e-01,2.20600e-05,9.99999e-01,9.99960e-01,2.20609e-05,9.99999e-01
4.786722099e-01,2.72641e-05,9.99999e-01,9.99983e-01,2.72645e-05,9.99999e-01
4.810655710e-01,3.35548e-05,9.99999e-01,9.99994e-01,3.35549e-05,9.99999e-01
4.834708988e-01,4.11258e-05,9.99999e-01,9.99954e-01,4.11276e-05,9.99999e-01
4.858882533e-01,5.02029e-05,9.99999e-01,9.99915e-01,5.02071e-05,9.99999e-01
4.883176946e-01,6.10457e-05,9.99999e-01,9.99929e-01,6.10500e-05,9.99999e-01
4.907592831e-01,7.39437e-05,9.99999e-01,9.99935e-01,7.39484e-05,9.99999e-01
4.932130795e-01,8.92294e-05,9.99999e-01,9.99954e-01,8.92335e-05,9.99999e-01
4.956791449e-01,1.07276e-04,9.99999e-01,9.99975e-01,1.07279e-04,9.99999e-01
4.981575406e-01,1.28490e-04,9.99999e-01,9.99880e-01,1.28506e-04,9.99999e-01
5.006483283e-01,1.53337e-04,9.99999e-01,9.99693e-01,1.53384e-04,9.99999e-01
5.031515699e-01,1.82155e-04,9.99999e-01,9.98434e-01,1.82440e-04,9.99999e-01
5.056673278e-01,2.16079e-04,9.99999e-01,9.99171e-01,2.16258e-04,9.99999e-01
5.081956644e-01,2.55218e-04,9.99999e-01,9.98954e-01,2.55485e-04,9.99999e-01
5.107366428e-01,3.00623e-04,9.99999e-01,9.99293e-01,3.00836e-04,9.99999e-01
5.132903260e-01,3.52952e-04,9.99999e-01,9.99595e-01,3.53095e-04,9.99999e-01
5.158567776e-01,4.13052e-04,9.99999e-01,9.99828e-01,4.13123e-04,9.99999e-01
5.184360615e-01,4.81826e-04,9.99999e-01,9.99931e-01,4.81859e-04,9.99999e-01
5.210282418e-01,5.60311e-04,9.99999e-01,9.99974e-01,5.60325e-04,9.99999e-01
5.236333830e-01,6.49565e-04,9.99999e-01,9.99897e-01,6.49631e-04,9.99999e-01
5.262515499e-01,7.50925e-04,9.99999e-01,9.99935e-01,7.50973e-04,9.99999e-01
5.288828077e-01,8.65592e-04,9.99999e-01,9.99941e-01,8.65643e-04,9.99999e-01
5.315272217e-01,9.94973e-04,9.99999e-01,9.99947e-01,9.95024e-04,9.99999e-01
5.341848578e-01,1.14056e-03,9.99999e-01,9.99965e-01,1.14060e-03,9.99999e-01
5.368557821e-01,1.30380e-03,9.99999e-01,9.99881e-01,1.30396e-03,9.99999e-01
5.395400610e-01,1.48614e-03,9.99999e-01,9.99574e-01,1.48677e-03,9.99999e-01
5.422377613e-01,1.68988e-03,9.99999e-01,9.99443e-01,1.69083e-03,9.99999e-01
5.449489501e-01,1.91702e-03,9.99999e-01,9.99485e-01,1.91801e-03,9.99999e-01
5.476736949e-01,2.16931e-03,9.99999e-01,9.99540e-01,2.17031e-03,9.99999e-01
5.504120634e-01,2.44899e-03,9.99999e-01,9.99666e-01,2.44980e-03,9.99999e-01
5.531641237e-01,2.75823e-03,9.99999e-01,9.99832e-01,2.75869e-03,9.99999e-01
5.559299443e-01,3.09899e-03,9.99999e-01,9.99918e-01,3.09924e-03,9.99999e-01
5.587095940e-01,3.47366e-03,9.99999e-01,9.99949e-01,3.47383e-03,9.99999e-01
5.615031420e-01,3.88472e-03,9.99999e-01,9.99943e-01,3.88494e-03,9.99999e-01
5.643106577e-01,4.33483e-03,9.99999e-01,9.99936e-01,4.33511e-03,9.99999e-01
5.671322110e-01,4.82329e-03,9.99999e-01,9.99237e-01,4.82697e-03,9.99999e-01
5.699678720e-01,5.35879e-03,9.99999e-01,9.99168e-01,5.36325e-03,9.99999e-01
5.728177114e-01,5.94162e-03,9.99999e-01,9.99142e-01,5.94672e-03,9.99999e-01
5.756818000e-01,6.57504e-03,9.99999e-01,9.99211e-01,6.58023e-03,9.99999e-01
5.785602090e-01,7.26168e-03,9.99999e-01,9.99311e-01,7.26668e-03,9.99999e-01
5.814530100e-01,8.00351e-03,9.99999e-01,9.99309e-01,8.00903e-03,9.99999e-01
5.843602750e-01,8.80308e-03,9.99999e-01,9.99183e-01,8.81027e-03,9.99999e-01
5.872820764e-01,9.60547e-03,9.99999e-01,9.92973e-01,9.67344e-03,9.99999e-01
5.902184868e-01,1.05106e-02,9.99999e-01,9.91419e-01,1.06016e-02,9.99999e-01
5.931695792e-01,1.15276e-02,9.99999e-01,9.93950e-01,1.15978e-02,9.99999e-01
5.961354271e-01,1.25809e-02,9.99999e-01,9.93355e-01,1.26651e-02,9.99999e-01
5.991161043e-01,1.37396e-02,9.99999e-01,9.95145e-01,1.38066e-02,9.99999e-01
6.021116848e-01,1.49839e-02,9.99999e-01,9.97239e-01,1.50253e-02,9.99999e-01
6.051222432e-01,1.63015e-02,9.99999e-01,9.98601e-01,1.63244e-02,9.99999e-01
6.081478544e-01,1.76960e-02,9.99999e-01,9.99397e-01,1.77067e-02,9.99999e-01
6.111885937e-01,1.91703e-02,9.99999e-01,9.99744e-01,1.91752e-02,9.99999e-01
6.142445367e-01,2.07306e-02,9.99999e-01,9.99885e-01,2.07329e-02,9.99999e-01
6.173157594e-01,2.23812e-02,9.99999e-01,9.99936e-01,2.23826e-02,9.99999e-01
6.204023382e-01,2.41258e-02,9.99999e-01,9.99946e-01,2.41271e-02,9.99999e-01
6.235043498e-01,2.59630e-02,9.99999e-01,9.99769e-01,2.59689e-02,9.99999e-01
6.266218716e-01,2.78763e-02,9.99999e-01,9.98765e-01,2.79108e-02,9.99999e-01
6.297549810e-01,2.99416e-02,9.99999e-01,9.99546e-01,2.99552e-02,9.99999e-01
6.329037559e-01,3.20757e-02,9.99999e-01,9.99102e-01,3.21045e-02,9.99999e-01
6.360682746e-01,3.43348e-02,9.99999e-01,9.99238e-01,3.43609e-02,9.99999e-01
6.392486160e-01,3.66903e-02,9.99999e-01,9.99011e-01,3.67266e-02,9.99999e-01
6.424448591e-01,3.91521e-02,9.99999e-01,9.98686e-01,3.92036e-02,9.99999e-01
6.456570834e-01,4.15394e-02,9.99999e-01,9.93912e-01,4.17938e-02,9.99999e-01
6.488853688e-01,4.42640e-02,9.99999e-01,9.94724e-01,4.44988e-02,9.99999e-01
6.521297956e-01,4.71032e-02,9.99999e-01,9.95413e-01,4.73202e-02,9.99999e-01
6.553904446e-01,5.00317e-02,9.99999e-01,9.95469e-01,5.02594e-02,9.99999e-01
6.586673968e-01,5.31090e-02,9.99999e-01,9.96085e-01,5.33177e-02,9.99999e-01
6.619607338e-01,5.63683e-02,9.99999e-01,9.97735e-01,5.64962e-02,9.99999e-01
6.652705375e-01,5.97171e-02,9.99999e-01,9.98685e-01,5.97957e-02,9.99999e-01
6.685968902e-01,6.31784e-02,9.99999e-01,9.99389e-01,6.32170e-02,9.99999e-01
6.719398746e-01,6.67417e-02,9.99999e-01,9.99716e-01,6.67606e-02,9.99999e-01
6.752995740e-01,7.04162e-02,9.99999e-01,9.99846e-01,7.04269e-02,9.99999e-01
6.786760719e-01,7.41999e-02,9.99999e-01,9.99780e-01,7.42162e-02,9.99999e-01
6.820694522e-01,7.80990e-02,9.99999e-01,9.99623e-01,7.81284e-02,9.99999e-01
6.854797995e-01,8.21237e-02,9.99999e-01,9.99514e-01,8.21635e-02,9.99999e-01
6.889071985e-01,8.62210e-02,9.99999e-01,9.98841e-01,8.63210e-02,9.99999e-01
6.923517345e-01,8.88835e-02,9.99999e-01,9.81048e-01,9.06006e-02,9.99999e-01
6.958134932e-01,9.40450e-02,9.99999e-01,9.89932e-01,9.50014e-02,9.99999e-01
6.992925606e-01,9.85863e-02,9.99999e-01,9.90590e-01,9.95228e-02,9.99999e-01
7.027890234e-01,1.02946e-01,9.99999e-01,9.88312e-01,1.04164e-01,9.99999e-01
7.063029686e-01,1.07852e-01,9.99999e-01,9.90171e-01,1.08923e-01,9.99999e-01
7.098344834e-01,1.12725e-01,9.99999e-01,9.90567e-01,1.13799e-01,9.99999e-01
7.133836558e-01,1.17317e-01,9.99999e-01,9.87592e-01,1.18790e-01,9.99998e-01
7.169505741e-01,1.12039e-01,9.99999e-01,9.04302e-01,1.23896e-01,9.99998e-01
7.205353270e-01,1.22808e-01,9.99999e-01,9.51164e-01,1.29113e-01,9.99998e-01
7.241380036e-01,1.26256e-01,9.99999e-01,9.39115e-01,1.34441e-01,9.99998e-01
7.277586936e-01,1.32163e-01,9.99999e-01,9.44855e-01,1.39877e-01,9.99998e-01
7.313974871e-01,1.36849e-01,9.99999e-01,9.41071e-01,1.45418e-01,9.99998e-01
7.350544745e-01,1.46140e-01,9.99999e-01,9.67405e-01,1.51063e-01,9.99999e-01
7.387297469e-01,1.53028e-01,9.99999e-01,9.75883e-01,1.56810e-01,9.99999e-01
7.424233956e-01,1.60719e-01,9.99999e-01,9.88102e-01,1.62655e-01,9.99999e-01
7.461355126e-01,1.67379e-01,9.99999e-01,9.92784e-01,1.68595e-01,9.99999e-01
7.498661902e-01,1.74041e-01,9.99999e-01,9.96626e-01,1.74629e-01,9.99999e-01
7.536155211e-01,1.80455e-01,9.99999e-01,9.98348e-01,1.80754e-01,9.99999e-01
7.573835987e-01,1.86807e-01,9.99999e-01,9.99148e-01,1.86966e-01,9.99999e-01
7.611705167e-01,1.93160e-01,9.99999e-01,9.99471e-01,1.93262e-01,9.99999e-01
7.649763693e-01,1.99574e-01,9.99999e-01,9.99668e-01,1.99640e-01,9.99999e-01
7.688012511e-01,2.06048e-01,9.99999e-01,9.99769e-01,2.06096e-01,9.99999e-01
7.726452574e-01,2.12586e-01,9.99999e-01,9.99810e-01,2.12627e-01,9.99999e-01
7.765084837e-01,2.19171e-01,9.99999e-01,9.99732e-01,2.19229e-01,9.99999e-01
7.803910261e-01,2.11899e-01,9.39036e-01,9.98847e-01,2.25901e-01,9.99999e-01
7.842929812e-01,1.70663e-01,7.36293e-01,9.95981e-01,2.32637e-01,9.99999e-01
7.882144461e-01,1.71899e-01,7.23514e-01,9.91675e-01,2.39436e-01,9.99999e-01
7.921555184e-01,2.01925e-01,8.23467e-01,9.95408e-01,2.46293e-01,9.99999e-01
7.961162960e-01,2.20232e-01,8.76679e-01,9.91973e-01,2.53205e-01,9.99999e-01
8.000968774e-01,2.40019e-01,9.31172e-01,9.90685e-01,2.60168e-01,9.99999e-01
8.040973618e-01,2.55062e-01,9.63574e-01,9.90695e-01,2.67181e-01,9.99999e-01
8.081178486e-01,2.64048e-01,9.83165e-01,9.79272e-01,2.74238e-01,9.99999e-01
8.121584379e-01,2.56484e-01,9.94733e-01,9.16393e-01,2.81336e-01,9.99998e-01
8.162192301e-01,2.59564e-01,9.98834e-01,9.00797e-01,2.88472e-01,9.99998e-01
8.203003262e-01,2.80971e-01,9.99980e-01,9.50384e-01,2.95644e-01,9.99997e-01
8.244018279e-01,2.81697e-01,9.99999e-01,9.30167e-01,3.02846e-01,9.99997e-01
8.285238370e-01,2.91406e-01,9.99999e-01,9.39787e-01,3.10077e-01,9.99998e-01
8.326664562e-01,2.97968e-01,9.99999e-01,9.38978e-01,3.17332e-01,9.99998e-01
8.368297885e-01,3.10288e-01,9.99999e-01,9.55881e-01,3.24609e-01,9.99999e-01
8.410139374e-01,3.23119e-01,9.99999e-01,9.73531e-01,3.31904e-01,9.99999e-01
8.452190071e-01,3.34777e-01,9.99999e-01,9.86919e-01,3.39214e-01,9.99999e-01
8.494451021e-01,3.43907e-01,9.99999e-01,9.92414e-01,3.46536e-01,9.99999e-01
8.536923276e-01,3.52272e-01,9.99999e-01,9.95494e-01,3.53866e-01,9.99999e-01
8.579607893e-01,3.60202e-01,9.99999e-01,9.97231e-01,3.61202e-01,9.99999e-01
8.622505932e-01,3.67891e-01,9.99999e-01,9.98236e-01,3.68541e-01,9.99999e-01
8.665618462e-01,3.35458e-01,8.93377e-01,9.98912e-01,3.75880e-01,9.99999e-01
8.708946554e-01,1.79276e-01,4.68367e-01,9.98757e-01,3.83215e-01,9.99999e-01
8.752491287e-01,2.08675e-01,5.35159e-01,9.98336e-01,3.90545e-01,9.99999e-01
8.796253743e-01,2.79947e-01,7.05150e-01,9.97703e-01,3.97866e-01,9.99999e-01
8.840235012e-01,3.36598e-01,8.32867e-01,9.97374e-01,4.05175e-01,9.99999e-01
8.884436187e-01,3.80061e-01,9.29993e-01,9.90607e-01,4.12470e-01,9.99999e-01
8.928858368e-01,3.68936e-01,9.71060e-01,9.04674e-01,4.19749e-01,9.99998e-01
8.973502660e-01,3.54807e-01,9.92853e-01,8.36651e-01,4.27008e-01,9.99997e-01
9.018370173e-01,3.95946e-01,9.99208e-01,9.12481e-01,4.34246e-01,9.99997e-01
9.063462024e-01,4.00263e-01,9.80624e-01,9.23449e-01,4.41460e-01,9.99996e-01
9.108779334e-01,3.78581e-01,9.54834e-01,8.82743e-01,4.48648e-01,9.99996e-01
9.154323231e-01,3.91292e-01,9.89120e-01,8.67495e-01,4.55808e-01,9.99995e-01
9.200094847e-01,3.62134e-01,8.65097e-01,8.94577e-01,4.62937e-01,9.99994e-01
9.246095321e-01,3.19271e-01,7.98304e-01,8.44889e-01,4.70033e-01,9.99991e-01
9.292325798e-01,1.36969e-01,8.40825e-01,3.31498e-01,4.77095e-01,9.99982e-01
9.338787427e-01,1.00403e-01,8.43657e-01,2.38860e-01,4.84120e-01,9.99977e-01
9.385481364e-01,2.45332e-01,8.82081e-01,5.59042e-01,4.91107e-01,9.99977e-01
9.432408771e-01,2.12196e-01,9.25653e-01,4.56923e-01,4.98053e-01,9.99974e-01
9.479570815e-01,1.66211e-01,9.61218e-01,3.41221e-01,5.04958e-01,9.99977e-01
9.526968669e-01,2.20028e-01,9.81090e-01,4.36956e-01,5.11820e-01,9.99983e-01
9.574603512e-01,2.35790e-01,9.91862e-01,4.57904e-01,5.18636e-01,9.99987e-01
9.622476530e-01,2.75435e-01,9.97452e-01,5.25422e-01,5.25406e-01,9.99991e-01
9.670588912e-01,3.66435e-01,9.99234e-01,6.89100e-01,5.32127e-01,9.99994e-01
9.718941857e-01,4.25719e-01,9.99944e-01,7.90163e-01,5.38800e-01,9.99996e-01
9.767536566e-01,4.48518e-01,9.99999e-01,8.22334e-01,5.45422e-01,9.99997e-01
9.816374249e-01,4.77197e-01,9.99999e-01,8.64500e-01,5.51992e-01,9.99998e-01
9.865456120e-01,5.09865e-01,9.99999e-01,9.12904e-01,5.58509e-01,9.99998e-01
9.914783401e-01,5.34017e-01,9.99999e-01,9.45209e-01,5.64972e-01,9.99999e-01
9.964357318e-01,5.54108e-01,9.99999e-01,9.69771e-01,5.71380e-01,9.99999e-01
1.001417910e+00,5.67198e-01,9.99999e-01,9.81765e-01,5.77732e-01,9.99999e-01
1.006425000e+00,5.77943e-01,9.99999e-01,9.89583e-01,5.84027e-01,9.99999e-01
1.011457125e+00,5.86432e-01,9.99999e-01,9.93508e-01,5.90264e-01,9.99999e-01
1.016514411e+00,5.93815e-01,9.99999e-01,9.95594e-01,5.96443e-01,9.99999e-01
1.021596983e+00,6.00390e-01,9.99903e-01,9.96490e-01,6.02562e-01,9.99999e-01
1.026704968e+00,6.02333e-01,9.92375e-01,9.97263e-01,6.08621e-01,9.99999e-01
1.031838492e+00,5.71129e-01,9.31016e-01,9.98006e-01,6.14620e-01,9.99999e-01
1.036997685e+00,4.88983e-02,7.88684e-02,9.98817e-01,6.20558e-01,9.99999e-01
1.042182673e+00,1.07168e-02,1.71272e-02,9.98594e-01,6.26434e-01,9.99999e-01
1.047393587e+00,2.09598e-02,3.32041e-02,9.98134e-01,6.32248e-01,9.99999e-01
1.052630555e+00,3.02834e-05,4.75469e-05,9.97443e-01,6.38000e-01,9.99999e-01
1.057893707e+00,1.04466e-04,1.62686e-04,9.95740e-01,6.43689e-01,9.99999e-01
1.063183176e+00,9.73341e-04,1.50561e-03,9.92992e-01,6.49314e-01,9.99999e-01
1.068499092e+00,5.67631e-03,8.74352e-03,9.88278e-01,6.54877e-01,9.99999e-01
1.073841587e+00,3.16075e-02,4.83739e-02,9.86323e-01,6.60375e-01,9.99999e-01
1.079210795e+00,9.68062e-02,1.47567e-01,9.82451e-01,6.65810e-01,9.99999e-01
1.084606849e+00,2.24008e-01,3.41994e-01,9.73600e-01,6.71181e-01,9.99998e-01
1.090029883e+00,3.72864e-01,5.71460e-01,9.62499e-01,6.76488e-01,9.99998e-01
1.095480033e+00,4.66856e-01,7.58343e-01,9.00964e-01,6.81731e-01,9.99997e-01
1.100957433e+00,4.63015e-01,8.74910e-01,7.68272e-01,6.86909e-01,9.99994e-01
1.106462220e+00,3.40939e-01,9.46141e-01,5.18772e-01,6.92024e-01,9.99989e-01
1.111994531e+00,1.74987e-01,9.79676e-01,2.55564e-01,6.97074e-01,9.99979e-01
1.117554504e+00,8.00341e-02,9.94980e-01,1.14396e-01,7.02061e-01,9.99971e-01
1.123142276e+00,1.53061e-01,9.99667e-01,2.16524e-01,7.06983e-01,9.99966e-01
1.128757988e+00,2.55733e-01,9.99999e-01,3.59267e-01,7.11842e-01,9.99963e-01
1.134401778e+00,1.18741e-01,9.99999e-01,1.65698e-01,7.16637e-01,9.99958e-01
1.140073787e+00,3.85241e-01,9.99999e-01,5.34059e-01,7.21369e-01,9.99966e-01
1.145774156e+00,2.04811e-01,9.99999e-01,2.82101e-01,7.26038e-01,9.99971e-01
1.151503026e+00,1.81015e-01,9.99999e-01,2.47753e-01,7.30644e-01,9.99975e-01
1.157260541e+00,2.17936e-01,9.99999e-01,2.96442e-01,7.35187e-01,9.99981e-01
1.163046844e+00,2.98798e-01,9.99999e-01,4.03966e-01,7.39668e-01,9.99988e-01
1.168862078e+00,3.92193e-01,9.99999e-01,5.27083e-01,7.44087e-01,9.99993e-01
1.174706389e+00,5.03905e-01,9.99999e-01,6.73272e-01,7.48444e-01,9.99996e-01
1.180579921e+00,5.91088e-01,9.99999e-01,7.85250e-01,7.52740e-01,9.99997e-01
1.186482820e+00,6.60081e-01,9.99989e-01,8.72007e-01,7.56975e-01,9.99997e-01
1.192415234e+00,6.84545e-01,9.73626e-01,9.23149e-01,7.61150e-01,9.99998e-01
1.198377311e+00,3.89954e-01,5.38991e-01,9.34941e-01,7.65264e-01,9.99998e-01
1.204369197e+00,5.96617e-21,8.04589e-21,9.38368e-01,7.69319e-01,9.99998e-01
1.210391043e+00,1.53207e-82,2.04936e-82,9.40917e-01,7.73314e-01,9.99998e-01
1.216442998e+00,1.58264e-71,2.10255e-71,9.49425e-01,7.77251e-01,9.99999e-01
1.222525213e+00,1.84905e-70,2.41684e-70,9.60402e-01,7.81129e-01,9.99999e-01
1.228637839e+00,1.79860e-54,2.33523e-54,9.72349e-01,7.84950e-01,9.99999e-01
1.234781029e+00,3.39322e-34,4.34104e-34,9.79375e-01,7.88713e-01,9.99999e-01
1.240954934e+00,7.67579e-23,9.76624e-23,9.86920e-01,7.92419e-01,9.99999e-01
1.247159708e+00,1.98016e-11,2.50248e-11,9.89793e-01,7.96069e-01,9.99999e-01
1.253395507e+00,1.05106e-07,1.32289e-07,9.90944e-01,7.99664e-01,9.99999e-01
1.259662485e+00,5.35954e-05,6.71500e-05,9.91480e-01,8.03203e-01,9.99999e-01
1.265960797e+00,4.76710e-03,5.96341e-03,9.86337e-01,8.06687e-01,9.99999e-01
1.272290601e+00,6.76396e-02,8.48935e-02,9.79947e-01,8.10117e-01,9.99999e-01
1.278652054e+00,6.98985e-02,8.85336e-02,9.58098e-01,8.13494e-01,9.99998e-01
1.285045314e+00,3.62649e-04,4.58761e-04,9.34992e-01,8.16818e-01,9.99998e-01
1.291470541e+00,3.68220e-10,4.84997e-10,8.73486e-01,8.20089e-01,9.99996e-01
1.297927893e+00,7.88322e-05,1.03830e-04,8.38386e-01,8.23308e-01,9.99994e-01
1.304417533e+00,1.02041e-02,1.48580e-02,7.96964e-01,8.26476e-01,9.99990e-01
1.310939621e+00,2.62302e-03,3.67101e-03,7.72107e-01,8.29593e-01,9.99984e-01
1.317494319e+00,1.55524e-28,2.17917e-28,7.54294e-01,8.32660e-01,9.99974e-01
1.324081790e+00,5.09174e-19,7.37547e-19,6.58807e-01,8.35677e-01,9.99959e-01
1.330702199e+00,1.62209e-11,3.59042e-11,2.49691e-01,8.38646e-01,9.99932e-01
1.337355710e+00,1.14921e-11,1.99677e-10,2.04904e-02,8.41566e-01,9.99870e-01
1.344042489e+00,1.40091e-12,8.64645e-11,6.05636e-04,8.44438e-01,9.99722e-01
1.350762701e+00,6.03870e-19,1.86297e-11,5.04207e-09,8.47263e-01,9.99556e-01
1.357516515e+00,1.99537e-18,2.83754e-07,5.75149e-13,8.50041e-01,9.99451e-01
1.364304097e+00,2.80442e-12,2.88945e-05,2.65109e-08,8.52773e-01,9.99412e-01
1.371125618e+00,1.35570e-07,4.70453e-03,1.33725e-05,8.55460e-01,9.99406e-01
1.377981246e+00,7.99134e-07,1.04894e-02,4.49981e-05,8.58102e-01,9.99363e-01
1.384871152e+00,2.36619e-08,7.04061e-02,2.42969e-07,8.60700e-01,9.99369e-01
1.391795508e+00,3.81113e-09,8.59620e-02,2.86495e-08,8.63254e-01,9.99460e-01
1.398754485e+00,2.14266e-07,2.16455e-01,9.45759e-07,8.65765e-01,9.99548e-01
1.405748258e+00,3.61931e-07,3.25976e-01,1.03815e-06,8.68234e-01,9.99595e-01
1.412776999e+00,5.20427e-07,4.90730e-01,9.88936e-07,8.70660e-01,9.99674e-01
1.419840884e+00,1.11864e-06,4.48847e-01,2.10054e-06,8.73045e-01,9.99757e-01
1.426940089e+00,2.01416e-05,2.29846e-02,6.00227e-05,8.75390e-01,9.99849e-01
1.434074789e+00,0.00000e+00,0.00000e+00,4.41432e-04,8.77694e-01,9.99905e-01
1.441245163e+00,0.00000e+00,0.00000e+00,1.91944e-03,8.79959e-01,9.99926e-01
1.448451389e+00,0.00000e+00,0.00000e+00,1.30389e-02,8.82184e-01,9.99939e-01
1.455693646e+00,0.00000e+00,0.00000e+00,5.12318e-02,8.84371e-01,9.99949e-01
1.462972114e+00,0.00000e+00,0.00000e+00,7.24225e-02,8.86520e-01,9.99956e-01
1.470286975e+00,4.12654e-137,2.85705e-136,4.77174e-02,8.88632e-01,9.99961e-01
