#,Wave/freq,Total,CO2,H2O,Rayleigh,CIA
4.000000000e-01,5.47648e-10,9.99999e-01,9.99957e-01,5.47671e-10,9.99999e-01
4.020000000e-01,8.34900e-10,9.99999e-01,9.99973e-01,8.34922e-10,9.99999e-01
4.040100000e-01,1.26171e-09,9.99999e-01,9.99988e-01,1.26173e-09,9.99999e-01
4.060300500e-01,1.89122e-09,9.99999e-01,9.99996e-01,1.89123e-09,9.99999e-01
4.080602003e-01,2.81222e-09,9.99999e-01,9.99998e-01,2.81222e-09,9.99999e-01
4.101005013e-01,4.14908e-09,9.99999e-01,9.99999e-01,4.14908e-09,9.99999e-01
4.121510038e-01,6.07460e-09,9.99999e-01,9.99997e-01,6.07461e-09,9.99999e-01
4.142117588e-01,8.82692e-09,9.99999e-01,9.99988e-01,8.82702e-09,9.99999e-01
4.162828176e-01,1.27316e-08,9.99999e-01,9.99947e-01,1.27322e-08,9.99999e-01
4.183642317e-01,1.82322e-08,9.99999e-01,9.99968e-01,1.82327e-08,9.99999e-01
4.204560528e-01,2.59245e-08,9.99999e-01,9.99980e-01,2.59250e-08,9.99999e-01
4.225583331e-01,3.66070e-08,9.99999e-01,9.99992e-01,3.66072e-08,9.99999e-01
4.246711247e-01,5.13396e-08,9.99999e-01,9.99993e-01,5.13399e-08,9.99999e-01
4.267944804e-01,7.15217e-08,9.99999e-01,9.99991e-01,7.15223e-08,9.99999e-01
4.289284528e-01,9.89877e-08,9.99999e-01,9.99993e-01,9.89884e-08,9.99999e-01
4.310730950e-01,1.36125e-07,9.99999e-01,9.99996e-01,1.36125e-07,9.99999e-01
4.332284605e-01,1.86020e-07,9.99999e-01,9.99998e-01,1.86020e-07,9.99999e-01
4.353946028e-01,2.52641e-07,9.99999e-01,9.99999e-01,2.52641e-07,9.99999e-01
4.375715758e-01,3.41050e-07,9.99999e-01,9.99994e-01,3.41052e-07,9.99999e-01
4.397594337e-01,4.57660e-07,9.99999e-01,9.99954e-01,4.57681e-07,9.99999e-01
4.419582309e-01,6.10496e-07,9.99999e-01,9.99769e-01,6.10636e-07,9.99999e-01
4.441680220e-01,8.09936e-07,9.99999e-01,9.99819e-01,8.10082e-07,9.99999e-01
4.463888621e-01,1.06849e-06,9.99999e-01,9.99812e-01,1.06869e-06,9.99999e-01
4.486208064e-01,1.40199e-06,9.99999e-01,9.99883e-01,1.40215e-06,9.99999e-01
4.508639105e-01,1.82973e-06,9.99999e-01,9.99945e-01,1.82983e-06,9.99999e-01
4.531182300e-01,2.37538e-06,9.99999e-01,9.99977e-01,2.37543e-06,9.99999e-01
4.553838212e-01,3.06781e-06,9.99999e-01,9.99984e-01,3.06786e-06,9.99999e-01
4.576607403e-01,3.94213e-06,9.99999e-01,9.99992e-01,3.94216e-06,9.99999e-01
4.599490440e-01,5.04057e-06,9.99999e-01,9.99994e-01,5.04059e-06,9.99999e-01
4.622487892e-01,6.41387e-06,9.99999e-01,9.99998e-01,6.41388e-06,9.99999e-01
4.645600332e-01,8.12253e-06,9.99999e-01,9.99996e-01,8.12256e-06,9.99999e-01
4.668828333e-01,1.02380e-05,9.99999e-01,9.99944e-01,1.02386e-05,9.99999e-01
4.692172475e-01,1.28454e-05,9.99999e-01,9.99882e-01,1.28469e-05,9.99999e-01
4.715633337e-01,1.60465e-05,9.99999e-01,9.99922e-01,1.60477e-05,9.99999e-01
4.739211504e-01,1.99566e-05,9.99999e-01,9.99926e-01,1.99580e-05,9.99999e-01
4.762907561e-01,2.47136e-05,9.99999e-01,9.99961e-01,2.47145e-05,9.99999e-01
4.786722099e-01,3.04751e-05,9.99999e-01,9.99983e-01,3.04756e-05,9.99999e-01
4.810655710e-01,3.74243e-05,9.99999e-01,9.99994e-01,3.74245e-05,9.99999e-01
4.834708988e-01,4.57696e-05,9.99999e-01,9.99954e-01,4.57717e-05,9.99999e-01
4.858882533e-01,5.57538e-05,9.99999e-01,9.99916e-01,5.57584e-05,9.99999e-01
4.883176946e-01,6.76552e-05,9.99999e-01,9.99930e-01,6.76599e-05,9.99999e-01
4.907592831e-01,8.17835e-05,9.99999e-01,9.99936e-01,8.17886e-05,9.99999e-01
4.932130795e-01,9.84936e-05,9.99999e-01,9.99954e-01,9.84980e-05,9.99999e-01
4.956791449e-01,1.18183e-04,9.99999e-01,9.99975e-01,1.18186e-04,9.99999e-01
4.981575406e-01,1.41284e-04,9.99999e-01,9.99881e-01,1.41300e-04,9.99999e-01
5.006483283e-01,1.68289e-04,9.99999e-01,9.99693e-01,1.68340e-04,9.99999e-01
5.031515699e-01,1.99552e-04,9.99999e-01,9.98448e-01,1.99862e-04,9.99999e-01
5.056673278e-01,2.36289e-04,9.99999e-01,9.99180e-01,2.36483e-04,9.99999e-01
5.081956644e-01,2.78598e-04,9.99999e-01,9.98966e-01,2.78886e-04,9.99999e-01
5.107366428e-01,3.27593e-04,9.99999e-01,9.99301e-01,3.27822e-04,9.99999e-01
5.132903260e-01,3.83963e-04,9.99999e-01,9.99600e-01,3.84116e-04,9.99999e-01
5.158567776e-01,4.48595e-04,9.99999e-01,9.99831e-01,4.48671e-04,9.99999e-01
5.184360615e-01,5.22434e-04,9.99999e-01,9.99932e-01,5.22469e-04,9.99999e-01
5.210282418e-01,6.06563e-04,9.99999e-01,9.99974e-01,6.06578e-04,9.99999e-01
5.236333830e-01,7.02084e-04,9.99999e-01,9.99898e-01,7.02155e-04,9.99999e-01
5.262515499e-01,8.10394e-04,9.99999e-01,9.99936e-01,8.10445e-04,9.99999e-01
5.288828077e-01,9.32736e-04,9.99999e-01,9.99941e-01,9.32790e-04,9.99999e-01
5.315272217e-01,1.07057e-03,9.99999e-01,9.99948e-01,1.07063e-03,9.99999e-01
5.341848578e-01,1.22545e-03,9.99999e-01,9.99966e-01,1.22549e-03,9.99999e-01
5.368557821e-01,1.39885e-03,9.99999e-01,9.99881e-01,1.39902e-03,9.99999e-01
5.395400610e-01,1.59227e-03,9.99999e-01,9.99575e-01,1.59294e-03,9.99999e-01
5.422377613e-01,1.80811e-03,9.99999e-01,9.99450e-01,1.80911e-03,9.99999e-01
5.449489501e-01,2.04840e-03,9.99999e-01,9.99489e-01,2.04944e-03,9.99999e-01
5.476736949e-01,2.31495e-03,9.99999e-01,9.99547e-01,2.31599e-03,9.99999e-01
5.504120634e-01,2.61004e-03,9.99999e-01,9.99671e-01,2.61090e-03,9.99999e-01
5.531641237e-01,2.93592e-03,9.99999e-01,9.99834e-01,2.93640e-03,9.99999e-01
5.559299443e-01,3.29456e-03,9.99999e-01,9.99919e-01,3.29482e-03,9.99999e-01
5.587095940e-01,3.68841e-03,9.99999e-01,9.99949e-01,3.68860e-03,9.99999e-01
5.615031420e-01,4.12000e-03,9.99999e-01,9.99943e-01,4.12023e-03,9.99999e-01
5.643106577e-01,4.59204e-03,9.99999e-01,9.99936e-01,4.59233e-03,9.99999e-01
5.671322110e-01,5.10365e-03,9.99999e-01,9.99233e-01,5.10756e-03,9.99999e-01
5.699678720e-01,5.66405e-03,9.99999e-01,9.99182e-01,5.66868e-03,9.99999e-01
5.728177114e-01,6.27317e-03,9.99999e-01,9.99150e-01,6.27851e-03,9.99999e-01
5.756818000e-01,6.93450e-03,9.99999e-01,9.99219e-01,6.93991e-03,9.99999e-01
5.785602090e-01,7.65063e-03,9.99999e-01,9.99319e-01,7.65584e-03,9.99999e-01
5.814530100e-01,8.42350e-03,9.99999e-01,9.99316e-01,8.42925e-03,9.99999e-01
5.843602750e-01,9.25564e-03,9.99999e-01,9.99186e-01,9.26317e-03,9.99999e-01
5.872820764e-01,1.00896e-02,9.99999e-01,9.93009e-01,1.01606e-02,9.99999e-01
5.902184868e-01,1.10304e-02,9.99999e-01,9.91523e-01,1.11247e-02,9.99999e-01
5.931695792e-01,1.20857e-02,9.99999e-01,9.94009e-01,1.21585e-02,9.99999e-01
5.961354271e-01,1.31779e-02,9.99999e-01,9.93431e-01,1.32650e-02,9.99999e-01
5.991161043e-01,1.43781e-02,9.99999e-01,9.95204e-01,1.44474e-02,9.99999e-01
6.021116848e-01,1.56659e-02,9.99999e-01,9.97276e-01,1.57086e-02,9.99999e-01
6.051222432e-01,1.70282e-02,9.99999e-01,9.98620e-01,1.70518e-02,9.99999e-01
6.081478544e-01,1.84688e-02,9.99999e-01,9.99404e-01,1.84798e-02,9.99999e-01
6.111885937e-01,1.99905e-02,9.99999e-01,9.99747e-01,1.99955e-02,9.99999e-01
6.142445367e-01,2.15996e-02,9.99999e-01,9.99887e-01,2.16020e-02,9.99999e-01
6.173157594e-01,2.33005e-02,9.99999e-01,9.99937e-01,2.33019e-02,9.99999e-01
6.204023382e-01,2.50967e-02,9.99999e-01,9.99947e-01,2.50980e-02,9.99999e-01
6.235043498e-01,2.69868e-02,9.99999e-01,9.99768e-01,2.69930e-02,9.99999e-01
6.266218716e-01,2.89539e-02,9.99999e-01,9.98777e-01,2.89893e-02,9.99999e-01
6.297549810e-01,3.10755e-02,9.99999e-01,9.99551e-01,3.10894e-02,9.99999e-01
6.329037559e-01,3.32661e-02,9.99999e-01,9.99113e-01,3.32956e-02,9.99999e-01
6.360682746e-01,3.55833e-02,9.99999e-01,9.99245e-01,3.56101e-02,9.99999e-01
6.392486160e-01,3.79978e-02,9.99999e-01,9.99021e-01,3.80350e-02,9.99999e-01
6.424448591e-01,4.05191e-02,9.99999e-01,9.98692e-01,4.05722e-02,9.99999e-01
6.456570834e-01,4.29615e-02,9.99999e-01,9.93940e-01,4.32234e-02,9.99999e-01
6.488853688e-01,4.57860e-02,9.99999e-01,9.95556e-01,4.59904e-02,9.99999e-01
6.521297956e-01,4.86532e-02,9.99999e-01,9.95470e-01,4.88745e-02,9.99999e-01
6.553904446e-01,5.16434e-02,9.99999e-01,9.95492e-01,5.18772e-02,9.99999e-01
6.586673968e-01,5.47871e-02,9.99999e-01,9.96136e-01,5.49995e-02,9.99999e-01
6.619607338e-01,5.81124e-02,9.99999e-01,9.97765e-01,5.82425e-02,9.99999e-01
6.652705375e-01,6.15272e-02,9.99999e-01,9.98705e-01,6.16069e-02,9.99999e-01
6.685968902e-01,6.50543e-02,9.99999e-01,9.99398e-01,6.50935e-02,9.99999e-01
6.719398746e-01,6.86834e-02,9.99999e-01,9.99721e-01,6.87026e-02,9.99999e-01
6.752995740e-01,7.24236e-02,9.99999e-01,9.99848e-01,7.24345e-02,9.99999e-01
6.786760719e-01,7.62728e-02,9.99999e-01,9.99781e-01,7.62894e-02,9.99999e-01
6.820694522e-01,8.02374e-02,9.99999e-01,9.99626e-01,8.02673e-02,9.99999e-01
6.854797995e-01,8.43272e-02,9.99999e-01,9.99518e-01,8.43678e-02,9.99999e-01
6.889071985e-01,8.84876e-02,9.99999e-01,9.98837e-01,8.85905e-02,9.99999e-01
6.923517345e-01,9.11834e-02,9.99999e-01,9.81152e-01,9.29349e-02,9.99999e-01
6.958134932e-01,9.64401e-02,9.99999e-01,9.90142e-01,9.74002e-02,9.99999e-01
6.992925606e-01,1.01031e-01,9.99999e-01,9.90644e-01,1.01986e-01,9.99999e-01
7.027890234e-01,1.05457e-01,9.99999e-01,9.88449e-01,1.06690e-01,9.99999e-01
7.063029686e-01,1.10428e-01,9.99999e-01,9.90280e-01,1.11511e-01,9.99999e-01
7.098344834e-01,1.15363e-01,9.99999e-01,9.90671e-01,1.16449e-01,9.99999e-01
7.133836558e-01,1.19996e-01,9.99999e-01,9.87607e-01,1.21502e-01,9.99998e-01
7.169505741e-01,1.14615e-01,9.99999e-01,9.04853e-01,1.26667e-01,9.99998e-01
7.205353270e-01,1.25626e-01,9.99999e-01,9.52115e-01,1.31944e-01,9.99998e-01
7.241380036e-01,1.29036e-01,9.99999e-01,9.39607e-01,1.37330e-01,9.99998e-01
7.277586936e-01,1.35015e-01,9.99999e-01,9.45340e-01,1.42822e-01,9.99998e-01
7.313974871e-01,1.39791e-01,9.99999e-01,9.41867e-01,1.48419e-01,9.99998e-01
7.350544745e-01,1.49157e-01,9.99999e-01,9.67808e-01,1.54119e-01,9.99999e-01
7.387297469e-01,1.56111e-01,9.99999e-01,9.76197e-01,1.59918e-01,9.99999e-01
7.424233956e-01,1.63871e-01,9.99999e-01,9.88280e-01,1.65814e-01,9.99999e-01
7.461355126e-01,1.70583e-01,9.99999e-01,9.92882e-01,1.71805e-01,9.99999e-01
7.498661902e-01,1.77297e-01,9.99999e-01,9.96679e-01,1.77888e-01,9.99999e-01
7.536155211e-01,1.83760e-01,9.99999e-01,9.98370e-01,1.84059e-01,9.99999e-01
7.573835987e-01,1.90157e-01,9.99999e-01,9.99160e-01,1.90317e-01,9.99999e-01
7.611705167e-01,1.96554e-01,9.99999e-01,9.99478e-01,1.96657e-01,9.99999e-01
7.649763693e-01,2.03010e-01,9.99999e-01,9.99672e-01,2.03077e-01,9.99999e-01
7.688012511e-01,2.09525e-01,9.99999e-01,9.99772e-01,2.09573e-01,9.99999e-01
7.726452574e-01,2.16102e-01,9.99999e-01,9.99812e-01,2.16143e-01,9.99999e-01
7.765084837e-01,2.22723e-01,9.99999e-01,9.99733e-01,2.22783e-01,9.99999e-01
7.803910261e-01,2.14962e-01,9.37712e-01,9.98851e-01,2.29489e-01,9.99999e-01
7.842929812e-01,1.74059e-01,7.39426e-01,9.95997e-01,2.36259e-01,9.99999e-01
7.882144461e-01,1.75035e-01,7.25585e-01,9.91762e-01,2.43089e-01,9.99999e-01
7.921555184e-01,2.05317e-01,8.24912e-01,9.95474e-01,2.49976e-01,9.99999e-01
7.961162960e-01,2.23900e-01,8.78370e-01,9.92022e-01,2.56916e-01,9.99999e-01
8.000968774e-01,2.43726e-01,9.32076e-01,9.90781e-01,2.63906e-01,9.99999e-01
8.040973618e-01,2.58837e-01,9.64175e-01,9.90780e-01,2.70943e-01,9.99999e-01
8.081178486e-01,2.67777e-01,9.83391e-01,9.79357e-01,2.78022e-01,9.99999e-01
8.121584379e-01,2.60112e-01,9.94839e-01,9.16859e-01,2.85141e-01,9.99998e-01
8.162192301e-01,2.63381e-01,9.98858e-01,9.02065e-01,2.92297e-01,9.99998e-01
8.203003262e-01,2.84629e-01,9.99982e-01,9.50409e-01,2.99485e-01,9.99997e-01
8.244018279e-01,2.85673e-01,9.99999e-01,9.31432e-01,3.06703e-01,9.99997e-01
8.285238370e-01,2.95202e-01,9.99999e-01,9.40292e-01,3.13947e-01,9.99998e-01
8.326664562e-01,3.01836e-01,9.99999e-01,9.39673e-01,3.21214e-01,9.99998e-01
8.368297885e-01,3.14194e-01,9.99999e-01,9.56446e-01,3.28501e-01,9.99999e-01
8.410139374e-01,3.27034e-01,9.99999e-01,9.73883e-01,3.35805e-01,9.99999e-01
8.452190071e-01,3.38697e-01,9.99999e-01,9.87105e-01,3.43121e-01,9.99999e-01
8.494451021e-01,3.47821e-01,9.99999e-01,9.92502e-01,3.50448e-01,9.99999e-01
8.536923276e-01,3.56193e-01,9.99999e-01,9.95558e-01,3.57782e-01,9.99999e-01
8.579607893e-01,3.64121e-01,9.99999e-01,9.97263e-01,3.65120e-01,9.99999e-01
8.622505932e-01,3.71811e-01,9.99999e-01,9.98260e-01,3.72459e-01,9.99999e-01
8.665618462e-01,3.38097e-01,8.91110e-01,9.98924e-01,3.79796e-01,9.99999e-01
8.708946554e-01,1.82371e-01,4.71629e-01,9.98768e-01,3.87129e-01,9.99999e-01
8.752491287e-01,2.12447e-01,5.39427e-01,9.98352e-01,3.94454e-01,9.99999e-01
8.796253743e-01,2.84106e-01,7.08661e-01,9.97720e-01,4.01769e-01,9.99999e-01
8.840235012e-01,3.40716e-01,8.35011e-01,9.97396e-01,4.09071e-01,9.99999e-01
8.884436187e-01,3.84108e-01,9.31163e-01,9.90558e-01,4.16358e-01,9.99999e-01
8.928858368e-01,3.72661e-01,9.71495e-01,9.05043e-01,4.23627e-01,9.99998e-01
8.973502660e-01,3.58791e-01,9.92999e-01,8.38335e-01,4.30875e-01,9.99997e-01
9.018370173e-01,4.00082e-01,9.99225e-01,9.13884e-01,4.38101e-01,9.99997e-01
9.063462024e-01,4.03861e-01,9.80538e-01,9.23806e-01,4.45301e-01,9.99996e-01
9.108779334e-01,3.82469e-01,9.55454e-01,8.83719e-01,4.52474e-01,9.99996e-01
9.154323231e-01,3.95232e-01,9.89351e-01,8.68779e-01,4.59617e-01,9.99996e-01
9.200094847e-01,3.65496e-01,8.65025e-01,8.95799e-01,4.66729e-01,9.99994e-01
9.246095321e-01,3.22658e-01,8.00657e-01,8.44584e-01,4.73807e-01,9.99991e-01
9.292325798e-01,1.38970e-01,8.41591e-01,3.33401e-01,4.80850e-01,9.99983e-01
9.338787427e-01,1.03222e-01,8.45457e-01,2.43325e-01,4.87855e-01,9.99978e-01
9.385481364e-01,2.49378e-01,8.83471e-01,5.63298e-01,4.94820e-01,9.99977e-01
9.432408771e-01,2.14920e-01,9.26747e-01,4.58880e-01,5.01745e-01,9.99974e-01
9.479570815e-01,1.68719e-01,9.61712e-01,3.43698e-01,5.08627e-01,9.99978e-01
9.526968669e-01,2.23610e-01,9.81360e-01,4.40841e-01,5.15464e-01,9.99983e-01
9.574603512e-01,2.39440e-01,9.91983e-01,4.61724e-01,5.22256e-01,9.99987e-01
9.622476530e-01,2.79642e-01,9.97492e-01,5.29805e-01,5.29000e-01,9.99991e-01
9.670588912e-01,3.70525e-01,9.99248e-01,6.92143e-01,5.35696e-01,9.99994e-01
9.718941857e-01,4.29623e-01,9.99946e-01,7.92202e-01,5.42341e-01,9.99996e-01
9.767536566e-01,4.52354e-01,9.99999e-01,8.24057e-01,5.48936e-01,9.99997e-01
9.816374249e-01,4.81091e-01,9.99999e-01,8.66086e-01,5.55478e-01,9.99998e-01
9.865456120e-01,5.13624e-01,9.99999e-01,9.13976e-01,5.61966e-01,9.99998e-01
9.914783401e-01,5.37633e-01,9.99999e-01,9.45871e-01,5.68400e-01,9.99999e-01
9.964357318e-01,5.57621e-01,9.99999e-01,9.70149e-01,5.74778e-01,9.99999e-01
1.001417910e+00,5.70639e-01,9.99999e-01,9.81999e-01,5.81100e-01,9.99999e-01
1.006425000e+00,5.81315e-01,9.99999e-01,9.89700e-01,5.87364e-01,9.99999e-01
1.011457125e+00,5.89768e-01,9.99999e-01,9.93594e-01,5.93570e-01,9.99999e-01
1.016514411e+00,5.97107e-01,9.99999e-01,9.95647e-01,5.99717e-01,9.99999e-01
1.021596983e+00,6.03641e-01,9.99896e-01,9.96531e-01,6.05804e-01,9.99999e-01
1.026704968e+00,6.05497e-01,9.92323e-01,9.97293e-01,6.11832e-01,9.99999e-01
1.031838492e+00,5.72432e-01,9.28314e-01,9.98032e-01,6.17798e-01,9.99999e-01
1.036997685e+00,4.88886e-02,7.84545e-02,9.98831e-01,6.23703e-01,9.99999e-01
1.042182673e+00,1.12523e-02,1.78939e-02,9.98606e-01,6.29546e-01,9.99999e-01
1.047393587e+00,2.14306e-02,3.37848e-02,9.98152e-01,6.35327e-01,9.99999e-01
1.052630555e+00,3.28703e-05,5.13626e-05,9.97465e-01,6.41045e-01,9.99999e-01
1.057893707e+00,1.15085e-04,1.78388e-04,9.95773e-01,6.46700e-01,9.99999e-01
1.063183176e+00,1.04542e-03,1.60968e-03,9.93052e-01,6.52292e-01,9.99999e-01
1.068499092e+00,5.97208e-03,9.15737e-03,9.88391e-01,6.57820e-01,9.99999e-01
1.073841587e+00,3.28674e-02,5.00790e-02,9.86434e-01,6.63285e-01,9.99999e-01
1.079210795e+00,9.93804e-02,1.50821e-01,9.82637e-01,6.68685e-01,9.99999e-01
1.084606849e+00,2.28150e-01,3.46785e-01,9.73845e-01,6.74022e-01,9.99998e-01
1.090029883e+00,3.77085e-01,5.75443e-01,9.62688e-01,6.79295e-01,9.99998e-01
1.095480033e+00,4.70808e-01,7.61178e-01,9.01585e-01,6.84503e-01,9.99997e-01
1.100957433e+00,4.66440e-01,8.76487e-01,7.69531e-01,6.89648e-01,9.99994e-01
1.106462220e+00,3.43665e-01,9.46893e-01,5.20499e-01,6.94728e-01,9.99989e-01
1.111994531e+00,1.77736e-01,9.79965e-01,2.58523e-01,6.99744e-01,9.99979e-01
1.117554504e+00,8.18903e-02,9.95070e-01,1.16605e-01,7.04696e-01,9.99971e-01
1.123142276e+00,1.56343e-01,9.99675e-01,2.20355e-01,7.09585e-01,9.99966e-01
1.128757988e+00,2.59035e-01,9.99999e-01,3.62599e-01,7.14410e-01,9.99963e-01
1.134401778e+00,1.21910e-01,9.99999e-01,1.69522e-01,7.19171e-01,9.99959e-01
1.140073787e+00,3.88592e-01,9.99999e-01,5.36842e-01,7.23869e-01,9.99967e-01
1.145774156e+00,2.08110e-01,9.99999e-01,2.85675e-01,7.28505e-01,9.99972e-01
1.151503026e+00,1.83887e-01,9.99999e-01,2.50849e-01,7.33077e-01,9.99975e-01
1.157260541e+00,2.21336e-01,9.99999e-01,3.00086e-01,7.37587e-01,9.99981e-01
1.163046844e+00,3.02970e-01,9.99999e-01,4.08300e-01,7.42035e-01,9.99988e-01
1.168862078e+00,3.96539e-01,9.99999e-01,5.31257e-01,7.46421e-01,9.99993e-01
1.174706389e+00,5.07867e-01,9.99999e-01,6.76485e-01,7.50745e-01,9.99996e-01
1.180579921e+00,5.94675e-01,9.99999e-01,7.87640e-01,7.55008e-01,9.99997e-01
1.186482820e+00,6.63106e-01,9.99985e-01,8.73426e-01,7.59211e-01,9.99997e-01
1.192415234e+00,6.86928e-01,9.73321e-01,9.23980e-01,7.63353e-01,9.99998e-01
1.198377311e+00,3.90832e-01,5.38357e-01,9.35563e-01,7.67436e-01,9.99998e-01
1.204369197e+00,9.33747e-21,1.25526e-20,9.38998e-01,7.71459e-01,9.99998e-01
1.210391043e+00,1.05119e-81,1.40180e-81,9.41534e-01,7.75423e-01,9.99998e-01
1.216442998e+00,8.33413e-71,1.10388e-70,9.50034e-01,7.79328e-01,9.99999e-01
1.222525213e+00,9.49348e-70,1.23735e-69,9.60857e-01,7.83176e-01,9.99999e-01
1.228637839e+00,6.32065e-54,8.18384e-54,9.72654e-01,7.86966e-01,9.99999e-01
1.234781029e+00,7.29930e-34,9.31387e-34,9.79622e-01,7.90699e-01,9.99999e-01
1.240954934e+00,1.29845e-22,1.64789e-22,9.87068e-01,7.94375e-01,9.99999e-01
1.247159708e+00,2.46747e-11,3.11061e-11,9.89914e-01,7.97995e-01,9.99999e-01
1.253395507e+00,1.25199e-07,1.57196e-07,9.91043e-01,8.01560e-01,9.99999e-01
1.259662485e+00,1.03656e-04,1.29572e-04,9.91492e-01,8.05070e-01,9.99999e-01
1.265960797e+00,5.12552e-03,6.39880e-03,9.86434e-01,8.08525e-01,9.99999e-01
1.272290601e+00,8.25039e-02,1.03478e-01,9.78781e-01,8.11927e-01,9.99999e-01
1.278652054e+00,7.08871e-02,8.95956e-02,9.58279e-01,8.15275e-01,9.99998e-01
1.285045314e+00,2.98458e-04,3.76331e-04,9.25690e-01,8.18570e-01,9.99998e-01
1.291470541e+00,4.55491e-10,5.99266e-10,8.74167e-01,8.21814e-01,9.99996e-01
1.297927893e+00,8.63430e-05,1.13411e-04,8.39500e-01,8.25005e-01,9.99994e-01
1.304417533e+00,1.07570e-02,1.56140e-02,7.98782e-01,8.28146e-01,9.99991e-01
1.310939621e+00,2.67080e-03,3.72368e-03,7.73251e-01,8.31236e-01,9.99985e-01
1.317494319e+00,2.94899e-28,4.11778e-28,7.56774e-01,8.34277e-01,9.99975e-01
1.324081790e+00,7.70455e-19,1.11204e-18,6.61251e-01,8.37268e-01,9.99959e-01
1.330702199e+00,2.06163e-11,4.57236e-11,2.48900e-01,8.40210e-01,9.99932e-01
1.337355710e+00,1.47667e-11,2.50189e-10,2.10557e-02,8.43105e-01,9.99871e-01
1.344042489e+00,1.79482e-12,1.06102e-10,6.29859e-04,8.45952e-01,9.99725e-01
1.350762701e+00,9.07028e-19,2.42460e-11,5.94787e-09,8.48752e-01,9.99561e-01
1.357516515e+00,2.95793e-18,3.32551e-07,7.48433e-13,8.51505e-01,9.99456e-01
1.364304097e+00,3.65712e-12,3.24813e-05,3.15725e-08,8.54213e-01,9.99418e-01
1.371125618e+00,1.57835e-07,5.00949e-03,1.48671e-05,8.56876e-01,9.99413e-01
1.377981246e+00,9.07752e-07,1.10461e-02,4.88205e-05,8.59495e-01,9.99369e-01
1.384871152e+00,2.74126e-08,7.25316e-02,2.74745e-07,8.62069e-01,9.99387e-01
1.391795508e+00,4.62225e-09,8.86136e-02,3.39995e-08,8.64600e-01,9.99480e-01
1.398754485e+00,2.54332e-07,2.20467e-01,1.10828e-06,8.67088e-01,9.99553e-01
1.405748258e+00,4.05550e-07,3.30679e-01,1.15015e-06,8.69534e-01,9.99599e-01
1.412776999e+00,5.95058e-07,4.95419e-01,1.12362e-06,8.71939e-01,9.99678e-01
1.419840884e+00,1.27087e-06,4.48713e-01,2.37156e-06,8.74302e-01,9.99759e-01
1.426940089e+00,2.18407e-05,2.29891e-02,6.58780e-05,8.76625e-01,9.99850e-01
1.434074789e+00,0.00000e+00,0.00000e+00,4.78120e-04,8.78908e-01,9.99906e-01
1.441245163e+00,0.00000e+00,0.00000e+00,2.03771e-03,8.81151e-01,9.99927e-01
1.448451389e+00,0.00000e+00,0.00000e+00,1.36167e-02,8.83356e-01,9.99939e-01
1.455693646e+00,0.00000e+00,0.00000e+00,5.31111e-02,8.85523e-01,9.99950e-01
1.462972114e+00,0.00000e+00,0.00000e+00,7.42091e-02,8.87652e-01,9.99957e-01
1.470286975e+00,1.04244e-135,7.07338e-135,4.92098e-02,8.89744e-01,9.99961e-01
