#,Wave/freq,Total,CO2,H2O,Rayleigh,CIA
4.000000000e-01,1.16455e-06,9.99999e-01,9.99972e-01,1.16458e-06,9.99999e-01
4.020000000e-01,1.52578e-06,9.99999e-01,9.99982e-01,1.52581e-06,9.99999e-01
4.040100000e-01,1.98786e-06,9.99999e-01,9.99992e-01,1.98788e-06,9.99999e-01
4.060300500e-01,2.57638e-06,9.99999e-01,9.99997e-01,2.57639e-06,9.99999e-01
4.080602003e-01,3.32206e-06,9.99999e-01,9.99998e-01,3.32206e-06,9.99999e-01
4.101005013e-01,4.26209e-06,9.99999e-01,9.99999e-01,4.26209e-06,9.99999e-01
4.121510038e-01,5.44128e-06,9.99999e-01,9.99998e-01,5.44128e-06,9.99999e-01
4.142117588e-01,6.91323e-06,9.99999e-01,9.99992e-01,6.91328e-06,9.99999e-01
4.162828176e-01,8.74176e-06,9.99999e-01,9.99966e-01,8.74205e-06,9.99999e-01
4.183642317e-01,1.10032e-05,9.99999e-01,9.99979e-01,1.10035e-05,9.99999e-01
4.204560528e-01,1.37869e-05,9.99999e-01,9.99987e-01,1.37870e-05,9.99999e-01
4.225583331e-01,1.71979e-05,9.99999e-01,9.99994e-01,1.71980e-05,9.99999e-01
4.246711247e-01,2.13593e-05,9.99999e-01,9.99995e-01,2.13594e-05,9.99999e-01
4.267944804e-01,2.64143e-05,9.99999e-01,9.99994e-01,2.64145e-05,9.99999e-01
4.289284528e-01,3.25289e-05,9.99999e-01,9.99995e-01,3.25291e-05,9.99999e-01
4.310730950e-01,3.98947e-05,9.99999e-01,9.99997e-01,3.98947e-05,9.99999e-01
4.332284605e-01,4.87313e-05,9.99999e-01,9.99999e-01,4.87313e-05,9.99999e-01
4.353946028e-01,5.92904e-05,9.99999e-01,9.99999e-01,5.92904e-05,9.99999e-01
4.375715758e-01,7.18584e-05,9.99999e-01,9.99996e-01,7.18586e-05,9.99999e-01
4.397594337e-01,8.67583e-05,9.99999e-01,9.99970e-01,8.67608e-05,9.99999e-01
4.419582309e-01,1.04349e-04,9.99999e-01,9.99854e-01,1.04364e-04,9.99999e-01
4.441680220e-01,1.25068e-04,9.99999e-01,9.99883e-01,1.25082e-04,9.99999e-01
4.463888621e-01,1.49360e-04,9.99999e-01,9.99879e-01,1.49378e-04,9.99999e-01
4.486208064e-01,1.77754e-04,9.99999e-01,9.99924e-01,1.77768e-04,9.99999e-01
4.508639105e-01,2.10820e-04,9.99999e-01,9.99964e-01,2.10828e-04,9.99999e-01
4.531182300e-01,2.49191e-04,9.99999e-01,9.99985e-01,2.49195e-04,9.99999e-01
4.553838212e-01,2.93570e-04,9.99999e-01,9.99990e-01,2.93573e-04,9.99999e-01
4.576607403e-01,3.44735e-04,9.99999e-01,9.99995e-01,3.44737e-04,9.99999e-01
4.599490440e-01,4.03533e-04,9.99999e-01,9.99996e-01,4.03534e-04,9.99999e-01
4.622487892e-01,4.70893e-04,9.99999e-01,9.99998e-01,4.70894e-04,9.99999e-01
4.645600332e-01,5.47823e-04,9.99999e-01,9.99997e-01,5.47824e-04,9.99999e-01
4.668828333e-01,6.35398e-04,9.99999e-01,9.99964e-01,6.35420e-04,9.99999e-01
4.692172475e-01,7.34811e-04,9.99999e-01,9.99924e-01,7.34866e-04,9.99999e-01
4.715633337e-01,8.47397e-04,9.99999e-01,9.99950e-01,8.47439e-04,9.99999e-01
4.739211504e-01,9.74463e-04,9.99999e-01,9.99952e-01,9.74509e-04,9.99999e-01
4.762907561e-01,1.11752e-03,9.99999e-01,9.99974e-01,1.11754e-03,9.99999e-01
4.786722099e-01,1.27810e-03,9.99999e-01,9.99989e-01,1.27811e-03,9.99999e-01
4.810655710e-01,1.45787e-03,9.99999e-01,9.99996e-01,1.45788e-03,9.99999e-01
4.834708988e-01,1.65857e-03,9.99999e-01,9.99971e-01,1.65861e-03,9.99999e-01
4.858882533e-01,1.88208e-03,9.99999e-01,9.99946e-01,1.88218e-03,9.99999e-01
4.883176946e-01,2.13047e-03,9.99999e-01,9.99955e-01,2.13056e-03,9.99999e-01
4.907592831e-01,2.40572e-03,9.99999e-01,9.99959e-01,2.40582e-03,9.99999e-01
4.932130795e-01,2.71005e-03,9.99999e-01,9.99970e-01,2.71013e-03,9.99999e-01
4.956791449e-01,3.04570e-03,9.99999e-01,9.99984e-01,3.04575e-03,9.99999e-01
4.981575406e-01,3.41480e-03,9.99999e-01,9.99924e-01,3.41505e-03,9.99999e-01
5.006483283e-01,3.81975e-03,9.99999e-01,9.99805e-01,3.82049e-03,9.99999e-01
5.031515699e-01,4.26037e-03,9.99999e-01,9.99007e-01,4.26460e-03,9.99999e-01
5.056673278e-01,4.74751e-03,9.99999e-01,9.99474e-01,4.75000e-03,9.99999e-01
5.081956644e-01,5.27590e-03,9.99999e-01,9.99336e-01,5.27940e-03,9.99999e-01
5.107366428e-01,5.85295e-03,9.99999e-01,9.99551e-01,5.85557e-03,9.99999e-01
5.132903260e-01,6.47969e-03,9.99999e-01,9.99742e-01,6.48135e-03,9.99999e-01
5.158567776e-01,7.15885e-03,9.99999e-01,9.99890e-01,7.15963e-03,9.99999e-01
5.184360615e-01,7.89301e-03,9.99999e-01,9.99956e-01,7.89336e-03,9.99999e-01
5.210282418e-01,8.68538e-03,9.99999e-01,9.99983e-01,8.68552e-03,9.99999e-01
5.236333830e-01,9.53854e-03,9.99999e-01,9.99934e-01,9.53915e-03,9.99999e-01
5.262515499e-01,1.04569e-02,9.99999e-01,9.99958e-01,1.04573e-02,9.99999e-01
5.288828077e-01,1.14426e-02,9.99999e-01,9.99962e-01,1.14430e-02,9.99999e-01
5.315272217e-01,1.24990e-02,9.99999e-01,9.99966e-01,1.24994e-02,9.99999e-01
5.341848578e-01,1.36292e-02,9.99999e-01,9.99978e-01,1.36295e-02,9.99999e-01
5.368557821e-01,1.48353e-02,9.99999e-01,9.99924e-01,1.48364e-02,9.99999e-01
5.395400610e-01,1.61188e-02,9.99999e-01,9.99730e-01,1.61232e-02,9.99999e-01
5.422377613e-01,1.74865e-02,9.99999e-01,9.99646e-01,1.74927e-02,9.99999e-01
5.449489501e-01,1.89419e-02,9.99999e-01,9.99674e-01,1.89481e-02,9.99999e-01
5.476736949e-01,2.04862e-02,9.99999e-01,9.99708e-01,2.04922e-02,9.99999e-01
5.504120634e-01,2.21231e-02,9.99999e-01,9.99788e-01,2.21278e-02,9.99999e-01
5.531641237e-01,2.38552e-02,9.99999e-01,9.99893e-01,2.38578e-02,9.99999e-01
5.559299443e-01,2.56834e-02,9.99999e-01,9.99948e-01,2.56848e-02,9.99999e-01
5.587095940e-01,2.76105e-02,9.99999e-01,9.99967e-01,2.76114e-02,9.99999e-01
5.615031420e-01,2.96391e-02,9.99999e-01,9.99963e-01,2.96402e-02,9.99999e-01
5.643106577e-01,3.17722e-02,9.99999e-01,9.99959e-01,3.17735e-02,9.99999e-01
5.671322110e-01,3.39973e-02,9.99999e-01,9.99518e-01,3.40136e-02,9.99999e-01
5.699678720e-01,3.63435e-02,9.99999e-01,9.99471e-01,3.63627e-02,9.99999e-01
5.728177114e-01,3.88017e-02,9.99999e-01,9.99456e-01,3.88228e-02,9.99999e-01
5.756818000e-01,4.13751e-02,9.99999e-01,9.99499e-01,4.13957e-02,9.99999e-01
5.785602090e-01,4.40641e-02,9.99999e-01,9.99563e-01,4.40833e-02,9.99999e-01
5.814530100e-01,4.68666e-02,9.99999e-01,9.99562e-01,4.68871e-02,9.99999e-01
5.843602750e-01,4.97828e-02,9.99999e-01,9.99483e-01,4.98085e-02,9.99999e-01
5.872820764e-01,5.26133e-02,9.99999e-01,9.95545e-01,5.28487e-02,9.99999e-01
5.902184868e-01,5.57037e-02,9.99999e-01,9.94548e-01,5.60090e-02,9.99999e-01
5.931695792e-01,5.90626e-02,9.99999e-01,9.96160e-01,5.92902e-02,9.99999e-01
5.961354271e-01,6.24286e-02,9.99999e-01,9.95780e-01,6.26931e-02,9.99999e-01
5.991161043e-01,6.60141e-02,9.99999e-01,9.96917e-01,6.62182e-02,9.99999e-01
6.021116848e-01,6.97436e-02,9.99999e-01,9.98247e-01,6.98660e-02,9.99999e-01
6.051222432e-01,7.35714e-02,9.99999e-01,9.99112e-01,7.36368e-02,9.99999e-01
6.081478544e-01,7.75008e-02,9.99999e-01,9.99617e-01,7.75305e-02,9.99999e-01
6.111885937e-01,8.15338e-02,9.99999e-01,9.99837e-01,8.15470e-02,9.99999e-01
6.142445367e-01,8.56799e-02,9.99999e-01,9.99927e-01,8.56861e-02,9.99999e-01
6.173157594e-01,8.99437e-02,9.99999e-01,9.99959e-01,8.99473e-02,9.99999e-01
6.204023382e-01,9.43267e-02,9.99999e-01,9.99966e-01,9.43299e-02,9.99999e-01
6.235043498e-01,9.88188e-02,9.99999e-01,9.99854e-01,9.88331e-02,9.99999e-01
6.266218716e-01,1.03375e-01,9.99999e-01,9.99216e-01,1.03456e-01,9.99999e-01
6.297549810e-01,1.08166e-01,9.99999e-01,9.99712e-01,1.08197e-01,9.99999e-01
6.329037559e-01,1.12992e-01,9.99999e-01,9.99430e-01,1.13056e-01,9.99999e-01
6.360682746e-01,1.17973e-01,9.99999e-01,9.99517e-01,1.18030e-01,9.99999e-01
6.392486160e-01,1.23041e-01,9.99999e-01,9.99373e-01,1.23119e-01,9.99999e-01
6.424448591e-01,1.28223e-01,9.99999e-01,9.99249e-01,1.28319e-01,9.99999e-01
6.456570834e-01,1.33119e-01,9.99999e-01,9.96174e-01,1.33630e-01,9.99999e-01
6.488853688e-01,1.38583e-01,9.99999e-01,9.96642e-01,1.39050e-01,9.99999e-01
6.521297956e-01,1.44155e-01,9.99999e-01,9.97088e-01,1.44576e-01,9.99999e-01
6.553904446e-01,1.49774e-01,9.99999e-01,9.97126e-01,1.50205e-01,9.99999e-01
6.586673968e-01,1.55549e-01,9.99999e-01,9.97513e-01,1.55937e-01,9.99999e-01
6.619607338e-01,1.61534e-01,9.99999e-01,9.98562e-01,1.61767e-01,9.99999e-01
6.652705375e-01,1.67553e-01,9.99999e-01,9.99164e-01,1.67693e-01,9.99999e-01
6.685968902e-01,1.73646e-01,9.99999e-01,9.99612e-01,1.73713e-01,9.99999e-01
6.719398746e-01,1.79792e-01,9.99999e-01,9.99819e-01,1.79824e-01,9.99999e-01
6.752995740e-01,1.86005e-01,9.99999e-01,9.99902e-01,1.86023e-01,9.99999e-01
6.786760719e-01,1.92280e-01,9.99999e-01,9.99860e-01,1.92307e-01,9.99999e-01
6.820694522e-01,1.98625e-01,9.99999e-01,9.99761e-01,1.98673e-01,9.99999e-01
6.854797995e-01,2.05054e-01,9.99999e-01,9.99692e-01,2.05117e-01,9.99999e-01
6.889071985e-01,2.11482e-01,9.99999e-01,9.99268e-01,2.11637e-01,9.99999e-01
6.923517345e-01,2.15600e-01,9.99999e-01,9.87952e-01,2.18229e-01,9.99999e-01
6.958134932e-01,2.23447e-01,9.99999e-01,9.93581e-01,2.24890e-01,9.99999e-01
6.992925606e-01,2.30235e-01,9.99999e-01,9.94031e-01,2.31617e-01,9.99999e-01
7.027890234e-01,2.36635e-01,9.99999e-01,9.92568e-01,2.38406e-01,9.99999e-01
7.063029686e-01,2.43723e-01,9.99999e-01,9.93755e-01,2.45255e-01,9.99999e-01
7.098344834e-01,2.50648e-01,9.99999e-01,9.94007e-01,2.52159e-01,9.99999e-01
7.133836558e-01,2.57077e-01,9.99999e-01,9.92136e-01,2.59115e-01,9.99999e-01
7.169505741e-01,2.49622e-01,9.99999e-01,9.38006e-01,2.66120e-01,9.99998e-01
7.205353270e-01,2.64577e-01,9.99999e-01,9.68542e-01,2.73170e-01,9.99998e-01
7.241380036e-01,2.69296e-01,9.99999e-01,9.60871e-01,2.80263e-01,9.99998e-01
7.277586936e-01,2.77216e-01,9.99999e-01,9.64587e-01,2.87394e-01,9.99998e-01
7.313974871e-01,2.83400e-01,9.99999e-01,9.62113e-01,2.94560e-01,9.99998e-01
7.350544745e-01,2.95473e-01,9.99999e-01,9.79172e-01,3.01758e-01,9.99999e-01
7.387297469e-01,3.04233e-01,9.99999e-01,9.84620e-01,3.08985e-01,9.99999e-01
7.424233956e-01,3.13842e-01,9.99999e-01,9.92427e-01,3.16236e-01,9.99999e-01
7.461355126e-01,3.22027e-01,9.99999e-01,9.95413e-01,3.23510e-01,9.99999e-01
7.498661902e-01,3.30094e-01,9.99999e-01,9.97856e-01,3.30802e-01,9.99999e-01
7.536155211e-01,3.37756e-01,9.99999e-01,9.98951e-01,3.38110e-01,9.99999e-01
7.573835987e-01,3.45244e-01,9.99999e-01,9.99459e-01,3.45431e-01,9.99999e-01
7.611705167e-01,3.52642e-01,9.99999e-01,9.99664e-01,3.52760e-01,9.99999e-01
7.649763693e-01,3.60020e-01,9.99999e-01,9.99789e-01,3.60095e-01,9.99999e-01
7.688012511e-01,3.67380e-01,9.99999e-01,9.99853e-01,3.67434e-01,9.99999e-01
7.726452574e-01,3.74728e-01,9.99999e-01,9.99879e-01,3.74773e-01,9.99999e-01
7.765084837e-01,3.82045e-01,9.99999e-01,9.99830e-01,3.82109e-01,9.99999e-01
7.803910261e-01,3.73175e-01,9.58906e-01,9.99270e-01,3.89440e-01,9.99999e-01
7.842929812e-01,3.24544e-01,8.19939e-01,9.97455e-01,3.96762e-01,9.99999e-01
7.882144461e-01,3.25694e-01,8.10095e-01,9.94713e-01,4.04073e-01,9.99999e-01
7.921555184e-01,3.62421e-01,8.83508e-01,9.97081e-01,4.11371e-01,9.99999e-01
7.961162960e-01,3.83084e-01,9.19663e-01,9.94910e-01,4.18652e-01,9.99999e-01
8.000968774e-01,4.04643e-01,9.55687e-01,9.94085e-01,4.25915e-01,9.99999e-01
8.040973618e-01,4.20564e-01,9.76683e-01,9.94092e-01,4.33156e-01,9.99999e-01
8.081178486e-01,4.29923e-01,9.89279e-01,9.86823e-01,4.40374e-01,9.99999e-01
8.121584379e-01,4.22023e-01,9.96646e-01,9.46060e-01,4.47566e-01,9.99998e-01
8.162192301e-01,4.25136e-01,9.99258e-01,9.35598e-01,4.54730e-01,9.99998e-01
8.203003262e-01,4.47105e-01,9.99987e-01,9.68056e-01,4.61863e-01,9.99998e-01
8.244018279e-01,4.47598e-01,9.99999e-01,9.54439e-01,4.68965e-01,9.99998e-01
8.285238370e-01,4.57623e-01,9.99999e-01,9.61329e-01,4.76032e-01,9.99998e-01
8.326664562e-01,4.64098e-01,9.99999e-01,9.60741e-01,4.83063e-01,9.99998e-01
8.368297885e-01,4.76209e-01,9.99999e-01,9.71744e-01,4.90055e-01,9.99999e-01
8.410139374e-01,4.88614e-01,9.99999e-01,9.83109e-01,4.97008e-01,9.99999e-01
8.452190071e-01,4.99724e-01,9.99999e-01,9.91674e-01,5.03920e-01,9.99999e-01
8.494451021e-01,5.08327e-01,9.99999e-01,9.95182e-01,5.10788e-01,9.99999e-01
8.536923276e-01,5.16129e-01,9.99999e-01,9.97137e-01,5.17611e-01,9.99999e-01
8.579607893e-01,5.23466e-01,9.99999e-01,9.98242e-01,5.24388e-01,9.99999e-01
8.622505932e-01,5.30522e-01,9.99999e-01,9.98880e-01,5.31117e-01,9.99999e-01
8.665618462e-01,4.92297e-01,9.15998e-01,9.99310e-01,5.37797e-01,9.99999e-01
8.708946554e-01,3.30713e-01,6.07909e-01,9.99212e-01,5.44426e-01,9.99999e-01
8.752491287e-01,3.66974e-01,6.66686e-01,9.98945e-01,5.51004e-01,9.99999e-01
8.796253743e-01,4.44895e-01,7.99094e-01,9.98544e-01,5.57529e-01,9.99999e-01
8.840235012e-01,5.01125e-01,8.89970e-01,9.98335e-01,5.64001e-01,9.99999e-01
8.884436187e-01,5.41463e-01,9.54840e-01,9.94062e-01,5.70417e-01,9.99999e-01
8.928858368e-01,5.31290e-01,9.81513e-01,9.38289e-01,5.76777e-01,9.99998e-01
8.973502660e-01,5.18024e-01,9.95446e-01,8.92383e-01,5.83081e-01,9.99998e-01
9.018370173e-01,5.55524e-01,9.99495e-01,9.43098e-01,5.89327e-01,9.99997e-01
9.063462024e-01,5.59384e-01,9.87652e-01,9.50590e-01,5.95514e-01,9.99997e-01
9.108779334e-01,5.39835e-01,9.71051e-01,9.23586e-01,6.01643e-01,9.99997e-01
9.154323231e-01,5.51359e-01,9.93055e-01,9.13440e-01,6.07711e-01,9.99997e-01
9.200094847e-01,5.21551e-01,9.08133e-01,9.31385e-01,6.13719e-01,9.99996e-01
9.246095321e-01,4.83302e-01,8.66338e-01,8.97441e-01,6.19666e-01,9.99994e-01
9.292325798e-01,2.74782e-01,8.95082e-01,4.83913e-01,6.25552e-01,9.99989e-01
9.338787427e-01,2.23377e-01,8.97162e-01,3.88864e-01,6.31375e-01,9.99985e-01
9.385481364e-01,4.03753e-01,9.23271e-01,6.82372e-01,6.37136e-01,9.99985e-01
9.432408771e-01,3.64666e-01,9.52077e-01,5.93862e-01,6.42835e-01,9.99983e-01
9.479570815e-01,3.09907e-01,9.75205e-01,4.89261e-01,6.48470e-01,9.99985e-01
9.526968669e-01,3.75003e-01,9.87945e-01,5.79596e-01,6.54042e-01,9.99989e-01
9.574603512e-01,3.95393e-01,9.94824e-01,6.02348e-01,6.59550e-01,9.99991e-01
9.622476530e-01,4.38313e-01,9.98381e-01,6.60113e-01,6.64994e-01,9.99994e-01
9.670588912e-01,5.27404e-01,9.99513e-01,7.87090e-01,6.70375e-01,9.99996e-01
9.718941857e-01,5.81520e-01,9.99964e-01,8.60657e-01,6.75691e-01,9.99997e-01
9.767536566e-01,6.01206e-01,9.99999e-01,8.82901e-01,6.80944e-01,9.99998e-01
9.816374249e-01,6.25447e-01,9.99999e-01,9.11555e-01,6.86132e-01,9.99998e-01
9.865456120e-01,6.52371e-01,9.99999e-01,9.43747e-01,6.91256e-01,9.99999e-01
9.914783401e-01,6.71852e-01,9.99999e-01,9.64865e-01,6.96316e-01,9.99999e-01
9.964357318e-01,6.87782e-01,9.99999e-01,9.80705e-01,7.01313e-01,9.99999e-01
1.001417910e+00,6.98045e-01,9.99999e-01,9.88389e-01,7.06245e-01,9.99999e-01
1.006425000e+00,7.06407e-01,9.99999e-01,9.93381e-01,7.11113e-01,9.99999e-01
1.011457125e+00,7.12965e-01,9.99999e-01,9.95874e-01,7.15918e-01,9.99999e-01
1.016514411e+00,7.18644e-01,9.99999e-01,9.97202e-01,7.20659e-01,9.99999e-01
1.021596983e+00,7.23680e-01,9.99940e-01,9.97772e-01,7.25338e-01,9.99999e-01
1.026704968e+00,7.25173e-01,9.95176e-01,9.98263e-01,7.29953e-01,9.99999e-01
1.031838492e+00,6.97265e-01,9.50462e-01,9.98734e-01,7.34506e-01,9.99999e-01
1.036997685e+00,8.90368e-02,1.20554e-01,9.99249e-01,7.38996e-01,9.99999e-01
1.042182673e+00,4.82375e-02,6.49353e-02,9.99109e-01,7.43424e-01,9.99999e-01
1.047393587e+00,6.82799e-02,9.14032e-02,9.98816e-01,7.47791e-01,9.99999e-01
1.052630555e+00,7.42217e-04,9.87999e-04,9.98378e-01,7.52096e-01,9.99999e-01
1.057893707e+00,2.11514e-03,2.80130e-03,9.97299e-01,7.56340e-01,9.99999e-01
1.063183176e+00,9.70280e-03,1.27967e-02,9.95553e-01,7.60524e-01,9.99999e-01
1.068499092e+00,3.49833e-02,4.60272e-02,9.92552e-01,7.64647e-01,9.99999e-01
1.073841587e+00,1.07915e-01,1.41395e-01,9.91308e-01,7.68711e-01,9.99999e-01
1.079210795e+00,2.21642e-01,2.89706e-01,9.88832e-01,7.72715e-01,9.99999e-01
1.084606849e+00,3.84591e-01,5.03148e-01,9.83173e-01,7.76661e-01,9.99998e-01
1.090029883e+00,5.33686e-01,6.99896e-01,9.76068e-01,7.80548e-01,9.99998e-01
1.095480033e+00,6.16144e-01,8.38452e-01,9.35991e-01,7.84377e-01,9.99997e-01
1.100957433e+00,6.12831e-01,9.18563e-01,8.45527e-01,7.88149e-01,9.99996e-01
1.106462220e+00,5.01798e-01,9.65431e-01,6.55339e-01,7.91864e-01,9.99993e-01
1.111994531e+00,3.23710e-01,9.87044e-01,4.11780e-01,7.95522e-01,9.99986e-01
1.117554504e+00,1.91560e-01,9.96805e-01,2.40307e-01,7.99125e-01,9.99981e-01
1.123142276e+00,2.86071e-01,9.99788e-01,3.56435e-01,8.02672e-01,9.99978e-01
1.128757988e+00,4.12174e-01,9.99999e-01,5.11289e-01,8.06165e-01,9.99976e-01
1.134401778e+00,2.13057e-01,9.99999e-01,2.63169e-01,8.09603e-01,9.99973e-01
1.140073787e+00,5.42342e-01,9.99999e-01,6.67111e-01,8.12988e-01,9.99977e-01
1.145774156e+00,3.54227e-01,9.99999e-01,4.33939e-01,8.16320e-01,9.99981e-01
1.151503026e+00,3.25363e-01,9.99999e-01,3.96985e-01,8.19599e-01,9.99984e-01
1.157260541e+00,3.74713e-01,9.99999e-01,4.55403e-01,8.22826e-01,9.99988e-01
1.163046844e+00,4.60347e-01,9.99999e-01,5.57324e-01,8.26001e-01,9.99992e-01
1.168862078e+00,5.50803e-01,9.99999e-01,6.64320e-01,8.29126e-01,9.99995e-01
1.174706389e+00,6.46562e-01,9.99999e-01,7.76931e-01,8.32200e-01,9.99997e-01
1.180579921e+00,7.16037e-01,9.99999e-01,8.57298e-01,8.35225e-01,9.99998e-01
1.186482820e+00,7.68356e-01,9.99993e-01,9.16678e-01,8.38201e-01,9.99998e-01
1.192415234e+00,7.86195e-01,9.83087e-01,9.50529e-01,8.41128e-01,9.99998e-01
1.198377311e+00,4.51948e-01,5.54921e-01,9.58230e-01,8.44008e-01,9.99998e-01
1.204369197e+00,4.18174e-14,5.05463e-14,9.60407e-01,8.46840e-01,9.99998e-01
1.210391043e+00,3.78288e-53,4.54895e-53,9.62085e-01,8.49625e-01,9.99999e-01
1.216442998e+00,3.62840e-46,4.34428e-46,9.67578e-01,8.52364e-01,9.99999e-01
1.222525213e+00,1.72449e-45,2.04354e-45,9.74688e-01,8.55058e-01,9.99999e-01
1.228637839e+00,3.12859e-35,3.69234e-35,9.82371e-01,8.57707e-01,9.99999e-01
1.234781029e+00,1.67938e-22,1.96321e-22,9.86864e-01,8.60311e-01,9.99999e-01
1.240954934e+00,3.72581e-15,4.34092e-15,9.91684e-01,8.62872e-01,9.99999e-01
1.247159708e+00,6.69740e-10,7.77378e-10,9.93512e-01,8.65389e-01,9.99999e-01
1.253395507e+00,2.57884e-05,2.98402e-05,9.94247e-01,8.67864e-01,9.99999e-01
1.259662485e+00,1.43678e-03,1.65782e-03,9.94591e-01,8.70297e-01,9.99999e-01
1.265960797e+00,2.73349e-02,3.15257e-02,9.91318e-01,8.72688e-01,9.99999e-01
1.272290601e+00,1.74331e-01,2.01472e-01,9.87251e-01,8.75039e-01,9.99999e-01
1.278652054e+00,1.68224e-01,1.95737e-01,9.73227e-01,8.77349e-01,9.99998e-01
1.285045314e+00,2.73638e-03,3.17812e-03,9.58281e-01,8.79619e-01,9.99998e-01
1.291470541e+00,6.79933e-07,8.12585e-07,9.17699e-01,8.81851e-01,9.99997e-01
1.297927893e+00,1.19151e-03,1.42149e-03,8.93903e-01,8.84044e-01,9.99996e-01
1.304417533e+00,5.19400e-02,6.64333e-02,8.65259e-01,8.86198e-01,9.99994e-01
1.310939621e+00,1.31717e-02,1.63481e-02,8.48094e-01,8.88316e-01,9.99990e-01
1.317494319e+00,1.03278e-18,1.28371e-18,8.35195e-01,8.90396e-01,9.99983e-01
1.324081790e+00,9.15297e-13,1.16127e-12,7.65084e-01,8.92440e-01,9.99973e-01
1.330702199e+00,9.99235e-08,1.78124e-07,3.76713e-01,8.94448e-01,9.99956e-01
1.337355710e+00,5.52507e-08,3.48249e-07,7.32241e-02,8.96421e-01,9.99917e-01
1.344042489e+00,8.49611e-09,1.19721e-07,3.23796e-03,8.98360e-01,9.99823e-01
1.350762701e+00,1.15874e-12,1.00485e-07,2.44978e-06,9.00264e-01,9.99718e-01
1.357516515e+00,2.07417e-12,3.85079e-05,8.43138e-09,9.02134e-01,9.99651e-01
1.364304097e+00,2.11634e-08,1.14032e-03,7.70026e-06,9.03971e-01,9.99627e-01
1.371125618e+00,2.04868e-05,2.97763e-02,3.93944e-04,9.05775e-01,9.99623e-01
1.377981246e+00,8.38368e-05,5.40490e-02,1.17076e-03,9.07548e-01,9.99596e-01
1.384871152e+00,4.31816e-06,1.82975e-01,1.89657e-05,9.09288e-01,9.99600e-01
1.391795508e+00,2.61974e-06,2.07755e-01,9.91731e-06,9.10998e-01,9.99657e-01
1.398754485e+00,3.05169e-05,3.78135e-01,7.96123e-05,9.12677e-01,9.99713e-01
1.405748258e+00,4.02322e-05,4.88961e-01,7.89198e-05,9.14325e-01,9.99743e-01
1.412776999e+00,4.77944e-05,6.35730e-01,7.33783e-05,9.15944e-01,9.99793e-01
1.419840884e+00,9.59483e-05,5.75002e-01,1.43588e-04,9.17534e-01,9.99845e-01
1.426940089e+00,3.37625e-04,4.37148e-02,1.01000e-03,9.19095e-01,9.99904e-01
1.434074789e+00,0.00000e+00,0.00000e+00,5.01686e-03,9.20628e-01,9.99940e-01
1.441245163e+00,0.00000e+00,0.00000e+00,1.52244e-02,9.22133e-01,9.99953e-01
1.448451389e+00,0.00000e+00,0.00000e+00,5.28388e-02,9.23611e-01,9.99961e-01
1.455693646e+00,0.00000e+00,0.00000e+00,1.36329e-01,9.25062e-01,9.99967e-01
1.462972114e+00,2.83075e-209,8.88270e-209,1.77912e-01,9.26486e-01,9.99972e-01
1.470286975e+00,9.57812e-88,3.26588e-87,1.34142e-01,9.27885e-01,9.99975e-01
