#,Wave/freq,Total,CO2,H2O,Rayleigh,CIA
4.000000000e-01,1.53430e-03,9.99999e-01,9.99986e-01,1.53432e-03,9.99999e-01
4.020000000e-01,1.74403e-03,9.99999e-01,9.99991e-01,1.74405e-03,9.99999e-01
4.040100000e-01,1.97716e-03,9.99999e-01,9.99996e-01,1.97717e-03,9.99999e-01
4.060300500e-01,2.23591e-03,9.99999e-01,9.99998e-01,2.23591e-03,9.99999e-01
4.080602003e-01,2.52237e-03,9.99999e-01,9.99999e-01,2.52237e-03,9.99999e-01
4.101005013e-01,2.83877e-03,9.99999e-01,9.99999e-01,2.83877e-03,9.99999e-01
4.121510038e-01,3.18740e-03,9.99999e-01,9.99999e-01,3.18740e-03,9.99999e-01
4.142117588e-01,3.57066e-03,9.99999e-01,9.99996e-01,3.57067e-03,9.99999e-01
4.162828176e-01,3.99100e-03,9.99999e-01,9.99983e-01,3.99107e-03,9.99999e-01
4.183642317e-01,4.45112e-03,9.99999e-01,9.99990e-01,4.45116e-03,9.99999e-01
4.204560528e-01,4.95358e-03,9.99999e-01,9.99993e-01,4.95361e-03,9.99999e-01
4.225583331e-01,5.50113e-03,9.99999e-01,9.99997e-01,5.50114e-03,9.99999e-01
4.246711247e-01,6.09655e-03,9.99999e-01,9.99997e-01,6.09656e-03,9.99999e-01
4.267944804e-01,6.74270e-03,9.99999e-01,9.99996e-01,6.74271e-03,9.99999e-01
4.289284528e-01,7.44251e-03,9.99999e-01,9.99997e-01,7.44253e-03,9.99999e-01
4.310730950e-01,8.19896e-03,9.99999e-01,9.99998e-01,8.19897e-03,9.99999e-01
4.332284605e-01,9.01504e-03,9.99999e-01,9.99999e-01,9.01504e-03,9.99999e-01
4.353946028e-01,9.89378e-03,9.99999e-01,9.99999e-01,9.89378e-03,9.99999e-01
4.375715758e-01,1.08382e-02,9.99999e-01,9.99997e-01,1.08382e-02,9.99999e-01
4.397594337e-01,1.18513e-02,9.99999e-01,9.99985e-01,1.18515e-02,9.99999e-01
4.419582309e-01,1.29357e-02,9.99999e-01,9.99930e-01,1.29366e-02,9.99999e-01
4.441680220e-01,1.40959e-02,9.99999e-01,9.99944e-01,1.40967e-02,9.99999e-01
4.463888621e-01,1.53339e-02,9.99999e-01,9.99942e-01,1.53347e-02,9.99999e-01
4.486208064e-01,1.66532e-02,9.99999e-01,9.99964e-01,1.66538e-02,9.99999e-01
4.508639105e-01,1.80566e-02,9.99999e-01,9.99982e-01,1.80569e-02,9.99999e-01
4.531182300e-01,1.95468e-02,9.99999e-01,9.99992e-01,1.95470e-02,9.99999e-01
4.553838212e-01,2.11267e-02,9.99999e-01,9.99995e-01,2.11268e-02,9.99999e-01
4.576607403e-01,2.27993e-02,9.99999e-01,9.99997e-01,2.27994e-02,9.99999e-01
4.599490440e-01,2.45673e-02,9.99999e-01,9.99998e-01,2.45673e-02,9.99999e-01
4.622487892e-01,2.64334e-02,9.99999e-01,9.99999e-01,2.64334e-02,9.99999e-01
4.645600332e-01,2.84000e-02,9.99999e-01,9.99998e-01,2.84000e-02,9.99999e-01
4.668828333e-01,3.04693e-02,9.99999e-01,9.99982e-01,3.04698e-02,9.99999e-01
4.692172475e-01,3.26439e-02,9.99999e-01,9.99963e-01,3.26450e-02,9.99999e-01
4.715633337e-01,3.49271e-02,9.99999e-01,9.99976e-01,3.49279e-02,9.99999e-01
4.739211504e-01,3.73198e-02,9.99999e-01,9.99977e-01,3.73206e-02,9.99999e-01
4.762907561e-01,3.98246e-02,9.99999e-01,9.99987e-01,3.98251e-02,9.99999e-01
4.786722099e-01,4.24429e-02,9.99999e-01,9.99994e-01,4.24431e-02,9.99999e-01
4.810655710e-01,4.51763e-02,9.99999e-01,9.99998e-01,4.51763e-02,9.99999e-01
4.834708988e-01,4.80257e-02,9.99999e-01,9.99986e-01,4.80264e-02,9.99999e-01
4.858882533e-01,5.09933e-02,9.99999e-01,9.99974e-01,5.09946e-02,9.99999e-01
4.883176946e-01,5.40809e-02,9.99999e-01,9.99978e-01,5.40821e-02,9.99999e-01
4.907592831e-01,5.72889e-02,9.99999e-01,9.99980e-01,5.72900e-02,9.99999e-01
4.932130795e-01,6.06183e-02,9.99999e-01,9.99985e-01,6.06191e-02,9.99999e-01
4.956791449e-01,6.40698e-02,9.99999e-01,9.99992e-01,6.40702e-02,9.99999e-01
4.981575406e-01,6.76413e-02,9.99999e-01,9.99963e-01,6.76438e-02,9.99999e-01
5.006483283e-01,7.13335e-02,9.99999e-01,9.99907e-01,7.13401e-02,9.99999e-01
5.031515699e-01,7.51240e-02,9.99999e-01,9.99528e-01,7.51594e-02,9.99999e-01
5.056673278e-01,7.90819e-02,9.99999e-01,9.99750e-01,7.91016e-02,9.99999e-01
5.081956644e-01,8.31404e-02,9.99999e-01,9.99685e-01,8.31666e-02,9.99999e-01
5.107366428e-01,8.73354e-02,9.99999e-01,9.99787e-01,8.73539e-02,9.99999e-01
5.132903260e-01,9.16520e-02,9.99999e-01,9.99878e-01,9.16631e-02,9.99999e-01
5.158567776e-01,9.60886e-02,9.99999e-01,9.99948e-01,9.60935e-02,9.99999e-01
5.184360615e-01,1.00642e-01,9.99999e-01,9.99978e-01,1.00644e-01,9.99999e-01
5.210282418e-01,1.05313e-01,9.99999e-01,9.99991e-01,1.05314e-01,9.99999e-01
5.236333830e-01,1.10098e-01,9.99999e-01,9.99968e-01,1.10102e-01,9.99999e-01
5.262515499e-01,1.15004e-01,9.99999e-01,9.99980e-01,1.15006e-01,9.99999e-01
5.288828077e-01,1.20024e-01,9.99999e-01,9.99981e-01,1.20026e-01,9.99999e-01
5.315272217e-01,1.25157e-01,9.99999e-01,9.99983e-01,1.25159e-01,9.99999e-01
5.341848578e-01,1.30402e-01,9.99999e-01,9.99989e-01,1.30403e-01,9.99999e-01
5.368557821e-01,1.35752e-01,9.99999e-01,9.99963e-01,1.35757e-01,9.99999e-01
5.395400610e-01,1.41201e-01,9.99999e-01,9.99871e-01,1.41219e-01,9.99999e-01
5.422377613e-01,1.46762e-01,9.99999e-01,9.99832e-01,1.46786e-01,9.99999e-01
5.449489501e-01,1.52433e-01,9.99999e-01,9.99844e-01,1.52456e-01,9.99999e-01
5.476736949e-01,1.58205e-01,9.99999e-01,9.99861e-01,1.58227e-01,9.99999e-01
5.504120634e-01,1.64079e-01,9.99999e-01,9.99899e-01,1.64095e-01,9.99999e-01
5.531641237e-01,1.70051e-01,9.99999e-01,9.99949e-01,1.70059e-01,9.99999e-01
5.559299443e-01,1.76111e-01,9.99999e-01,9.99975e-01,1.76115e-01,9.99999e-01
5.587095940e-01,1.82259e-01,9.99999e-01,9.99984e-01,1.82261e-01,9.99999e-01
5.615031420e-01,1.88491e-01,9.99999e-01,9.99982e-01,1.88494e-01,9.99999e-01
5.643106577e-01,1.94807e-01,9.99999e-01,9.99980e-01,1.94811e-01,9.99999e-01
5.671322110e-01,2.01161e-01,9.99999e-01,9.99768e-01,2.01208e-01,9.99999e-01
5.699678720e-01,2.07630e-01,9.99999e-01,9.99750e-01,2.07682e-01,9.99999e-01
5.728177114e-01,2.14176e-01,9.99999e-01,9.99741e-01,2.14231e-01,9.99999e-01
5.756818000e-01,2.20798e-01,9.99999e-01,9.99762e-01,2.20851e-01,9.99999e-01
5.785602090e-01,2.27491e-01,9.99999e-01,9.99792e-01,2.27538e-01,9.99999e-01
5.814530100e-01,2.34242e-01,9.99999e-01,9.99792e-01,2.34290e-01,9.99999e-01
5.843602750e-01,2.41044e-01,9.99999e-01,9.99753e-01,2.41103e-01,9.99999e-01
5.872820764e-01,2.47447e-01,9.99999e-01,9.97874e-01,2.47974e-01,9.99999e-01
5.902184868e-01,2.54240e-01,9.99999e-01,9.97413e-01,2.54899e-01,9.99999e-01
5.931695792e-01,2.61397e-01,9.99999e-01,9.98174e-01,2.61875e-01,9.99999e-01
5.961354271e-01,2.68360e-01,9.99999e-01,9.97997e-01,2.68898e-01,9.99999e-01
5.991161043e-01,2.75562e-01,9.99999e-01,9.98538e-01,2.75966e-01,9.99999e-01
6.021116848e-01,2.82839e-01,9.99999e-01,9.99169e-01,2.83074e-01,9.99999e-01
6.051222432e-01,2.90097e-01,9.99999e-01,9.99579e-01,2.90219e-01,9.99999e-01
6.081478544e-01,2.97344e-01,9.99999e-01,9.99818e-01,2.97398e-01,9.99999e-01
6.111885937e-01,3.04585e-01,9.99999e-01,9.99922e-01,3.04608e-01,9.99999e-01
6.142445367e-01,3.11834e-01,9.99999e-01,9.99965e-01,3.11845e-01,9.99999e-01
6.173157594e-01,3.19100e-01,9.99999e-01,9.99980e-01,3.19106e-01,9.99999e-01
6.204023382e-01,3.26382e-01,9.99999e-01,9.99983e-01,3.26387e-01,9.99999e-01
6.235043498e-01,3.33663e-01,9.99999e-01,9.99930e-01,3.33686e-01,9.99999e-01
6.266218716e-01,3.40873e-01,9.99999e-01,9.99628e-01,3.40999e-01,9.99999e-01
6.297549810e-01,3.48276e-01,9.99999e-01,9.99863e-01,3.48323e-01,9.99999e-01
6.329037559e-01,3.55560e-01,9.99999e-01,9.99729e-01,3.55656e-01,9.99999e-01
6.360682746e-01,3.62910e-01,9.99999e-01,9.99770e-01,3.62993e-01,9.99999e-01
6.392486160e-01,3.70222e-01,9.99999e-01,9.99702e-01,3.70332e-01,9.99999e-01
6.424448591e-01,3.77520e-01,9.99999e-01,9.99603e-01,3.77670e-01,9.99999e-01
6.456570834e-01,3.84296e-01,9.99999e-01,9.98160e-01,3.85004e-01,9.99999e-01
6.488853688e-01,3.91800e-01,9.99999e-01,9.98644e-01,3.92332e-01,9.99999e-01
6.521297956e-01,3.99098e-01,9.99999e-01,9.98618e-01,3.99650e-01,9.99999e-01
6.553904446e-01,4.06401e-01,9.99999e-01,9.98634e-01,4.06956e-01,9.99999e-01
6.586673968e-01,4.13760e-01,9.99999e-01,9.98822e-01,4.14248e-01,9.99999e-01
6.619607338e-01,4.21235e-01,9.99999e-01,9.99319e-01,4.21522e-01,9.99999e-01
6.652705375e-01,4.28607e-01,9.99999e-01,9.99605e-01,4.28776e-01,9.99999e-01
6.685968902e-01,4.35929e-01,9.99999e-01,9.99816e-01,4.36009e-01,9.99999e-01
6.719398746e-01,4.43179e-01,9.99999e-01,9.99914e-01,4.43217e-01,9.99999e-01
6.752995740e-01,4.50377e-01,9.99999e-01,9.99953e-01,4.50398e-01,9.99999e-01
6.786760719e-01,4.57520e-01,9.99999e-01,9.99933e-01,4.57550e-01,9.99999e-01
6.820694522e-01,4.64619e-01,9.99999e-01,9.99886e-01,4.64671e-01,9.99999e-01
6.854797995e-01,4.71690e-01,9.99999e-01,9.99853e-01,4.71759e-01,9.99999e-01
6.889071985e-01,4.78644e-01,9.99999e-01,9.99648e-01,4.78812e-01,9.99999e-01
6.923517345e-01,4.83031e-01,9.99999e-01,9.94242e-01,4.85828e-01,9.99999e-01
6.958134932e-01,4.91312e-01,9.99999e-01,9.96969e-01,4.92805e-01,9.99999e-01
6.992925606e-01,4.98320e-01,9.99999e-01,9.97153e-01,4.99742e-01,9.99999e-01
7.027890234e-01,5.04848e-01,9.99999e-01,9.96470e-01,5.06636e-01,9.99999e-01
7.063029686e-01,5.11964e-01,9.99999e-01,9.97034e-01,5.13487e-01,9.99999e-01
7.098344834e-01,5.18812e-01,9.99999e-01,9.97154e-01,5.20292e-01,9.99999e-01
7.133836558e-01,5.25065e-01,9.99999e-01,9.96232e-01,5.27050e-01,9.99999e-01
7.169505741e-01,5.17673e-01,9.99999e-01,9.69860e-01,5.33760e-01,9.99999e-01
7.205353270e-01,5.32320e-01,9.99999e-01,9.85011e-01,5.40420e-01,9.99999e-01
7.241380036e-01,5.36726e-01,9.99999e-01,9.81164e-01,5.47030e-01,9.99999e-01
7.277586936e-01,5.44164e-01,9.99999e-01,9.82978e-01,5.53587e-01,9.99999e-01
7.313974871e-01,5.49932e-01,9.99999e-01,9.81862e-01,5.60091e-01,9.99999e-01
7.350544745e-01,5.60915e-01,9.99999e-01,9.90070e-01,5.66541e-01,9.99999e-01
7.387297469e-01,5.68745e-01,9.99999e-01,9.92686e-01,5.72935e-01,9.99999e-01
7.424233956e-01,5.77195e-01,9.99999e-01,9.96412e-01,5.79273e-01,9.99999e-01
7.461355126e-01,5.84282e-01,9.99999e-01,9.97827e-01,5.85554e-01,9.99999e-01
7.498661902e-01,5.91177e-01,9.99999e-01,9.98986e-01,5.91777e-01,9.99999e-01
7.536155211e-01,5.97645e-01,9.99999e-01,9.99503e-01,5.97941e-01,9.99999e-01
7.573835987e-01,6.03892e-01,9.99999e-01,9.99744e-01,6.04046e-01,9.99999e-01
7.611705167e-01,6.09994e-01,9.99999e-01,9.99840e-01,6.10091e-01,9.99999e-01
7.649763693e-01,6.16014e-01,9.99999e-01,9.99900e-01,6.16075e-01,9.99999e-01
7.688012511e-01,6.21955e-01,9.99999e-01,9.99930e-01,6.21998e-01,9.99999e-01
7.726452574e-01,6.27823e-01,9.99999e-01,9.99942e-01,6.27859e-01,9.99999e-01
7.765084837e-01,6.33606e-01,9.99999e-01,9.99919e-01,6.33657e-01,9.99999e-01
7.803910261e-01,6.25451e-01,9.78525e-01,9.99651e-01,6.39394e-01,9.99999e-01
7.842929812e-01,5.85373e-01,9.08528e-01,9.98786e-01,6.45067e-01,9.99999e-01
7.882144461e-01,5.85773e-01,9.02458e-01,9.97488e-01,6.50677e-01,9.99999e-01
7.921555184e-01,6.17687e-01,9.42557e-01,9.98618e-01,6.56224e-01,9.99999e-01
7.961162960e-01,6.34433e-01,9.61099e-01,9.97573e-01,6.61707e-01,9.99999e-01
8.000968774e-01,6.51121e-01,9.78753e-01,9.97189e-01,6.67126e-01,9.99999e-01
8.040973618e-01,6.63164e-01,9.88918e-01,9.97190e-01,6.72482e-01,9.99999e-01
8.081178486e-01,6.70075e-01,9.94911e-01,9.93693e-01,6.77773e-01,9.99999e-01
8.121584379e-01,6.64113e-01,9.98418e-01,9.73877e-01,6.83000e-01,9.99999e-01
8.162192301e-01,6.66514e-01,9.99650e-01,9.68875e-01,6.88163e-01,9.99999e-01
8.203003262e-01,6.82483e-01,9.99993e-01,9.84456e-01,6.93262e-01,9.99999e-01
8.244018279e-01,6.82931e-01,9.99999e-01,9.77996e-01,6.98297e-01,9.99999e-01
8.285238370e-01,6.90188e-01,9.99999e-01,9.81402e-01,7.03267e-01,9.99999e-01
8.326664562e-01,6.94826e-01,9.99999e-01,9.81151e-01,7.08174e-01,9.99999e-01
8.368297885e-01,7.03399e-01,9.99999e-01,9.86509e-01,7.13018e-01,9.99999e-01
8.410139374e-01,7.12031e-01,9.99999e-01,9.91966e-01,7.17798e-01,9.99999e-01
8.452190071e-01,7.19662e-01,9.99999e-01,9.96052e-01,7.22514e-01,9.99999e-01
8.494451021e-01,7.25505e-01,9.99999e-01,9.97713e-01,7.27167e-01,9.99999e-01
8.536923276e-01,7.30767e-01,9.99999e-01,9.98644e-01,7.31758e-01,9.99999e-01
8.579607893e-01,7.35673e-01,9.99999e-01,9.99166e-01,7.36286e-01,9.99999e-01
8.622505932e-01,7.40359e-01,9.99999e-01,9.99469e-01,7.40752e-01,9.99999e-01
8.665618462e-01,7.04685e-01,9.45988e-01,9.99672e-01,7.45156e-01,9.99999e-01
8.708946554e-01,5.86044e-01,7.82200e-01,9.99625e-01,7.49498e-01,9.99999e-01
8.752491287e-01,6.19005e-01,8.21604e-01,9.99499e-01,7.53779e-01,9.99999e-01
8.796253743e-01,6.80495e-01,8.98360e-01,9.99307e-01,7.57999e-01,9.99999e-01
8.840235012e-01,7.20553e-01,9.46151e-01,9.99208e-01,7.62159e-01,9.99999e-01
8.884436187e-01,7.47582e-01,9.78408e-01,9.97138e-01,7.66259e-01,9.99999e-01
8.928858368e-01,7.40635e-01,9.91215e-01,9.69964e-01,7.70299e-01,9.99999e-01
8.973502660e-01,7.31800e-01,9.97853e-01,9.47143e-01,7.74280e-01,9.99998e-01
9.018370173e-01,7.56666e-01,9.99762e-01,9.72551e-01,7.78202e-01,9.99998e-01
9.063462024e-01,7.58845e-01,9.94015e-01,9.76033e-01,7.82067e-01,9.99998e-01
9.108779334e-01,7.46233e-01,9.86182e-01,9.62759e-01,7.85873e-01,9.99998e-01
9.154323231e-01,7.53846e-01,9.96724e-01,9.57787e-01,7.89622e-01,9.99998e-01
9.200094847e-01,7.31611e-01,9.52873e-01,9.66718e-01,7.93315e-01,9.99998e-01
9.246095321e-01,7.06738e-01,9.34116e-01,9.48587e-01,7.96951e-01,9.99997e-01
9.292325798e-01,5.32702e-01,9.48090e-01,6.99183e-01,8.00532e-01,9.99994e-01
9.338787427e-01,4.81430e-01,9.49629e-01,6.28100e-01,8.04058e-01,9.99993e-01
9.385481364e-01,6.45662e-01,9.62805e-01,8.29231e-01,8.07529e-01,9.99992e-01
9.432408771e-01,6.10589e-01,9.77051e-01,7.69959e-01,8.10946e-01,9.99992e-01
9.479570815e-01,5.60037e-01,9.88180e-01,6.95666e-01,8.14310e-01,9.99993e-01
9.526968669e-01,6.20177e-01,9.94278e-01,7.62612e-01,8.17620e-01,9.99994e-01
9.574603512e-01,6.40444e-01,9.97549e-01,7.82029e-01,8.20879e-01,9.99995e-01
9.622476530e-01,6.74366e-01,9.99234e-01,8.18925e-01,8.24085e-01,9.99997e-01
9.670588912e-01,7.37321e-01,9.99770e-01,8.91500e-01,8.27241e-01,9.99997e-01
9.718941857e-01,7.73068e-01,9.99983e-01,9.31034e-01,8.30346e-01,9.99998e-01
9.767536566e-01,7.85429e-01,9.99999e-01,9.42438e-01,8.33401e-01,9.99998e-01
9.816374249e-01,8.00441e-01,9.99999e-01,9.57000e-01,8.36406e-01,9.99999e-01
9.865456120e-01,8.16639e-01,9.99999e-01,9.72927e-01,8.39362e-01,9.99999e-01
9.914783401e-01,8.28116e-01,9.99999e-01,9.83194e-01,8.42271e-01,9.99999e-01
9.964357318e-01,8.37368e-01,9.99999e-01,9.90813e-01,8.45131e-01,9.99999e-01
1.001417910e+00,8.43269e-01,9.99999e-01,9.94485e-01,8.47945e-01,9.99999e-01
1.006425000e+00,8.48038e-01,9.99999e-01,9.96856e-01,8.50712e-01,9.99999e-01
1.011457125e+00,8.51765e-01,9.99999e-01,9.98045e-01,8.53433e-01,9.99999e-01
1.016514411e+00,8.54974e-01,9.99999e-01,9.98673e-01,8.56109e-01,9.99999e-01
1.021596983e+00,8.57808e-01,9.99969e-01,9.98943e-01,8.58740e-01,9.99999e-01
1.026704968e+00,8.58617e-01,9.97674e-01,9.99176e-01,8.61327e-01,9.99999e-01
1.031838492e+00,8.36933e-01,9.69384e-01,9.99400e-01,8.63871e-01,9.99999e-01
1.036997685e+00,2.01802e-01,2.32996e-01,9.99644e-01,8.66371e-01,9.99999e-01
1.042182673e+00,2.19830e-01,2.53116e-01,9.99576e-01,8.68829e-01,9.99999e-01
1.047393587e+00,2.19302e-01,2.51838e-01,9.99438e-01,8.71246e-01,9.99999e-01
1.052630555e+00,2.01171e-02,2.30409e-02,9.99229e-01,8.73621e-01,9.99999e-01
1.057893707e+00,4.14335e-02,4.73463e-02,9.98715e-01,8.75956e-01,9.99999e-01
1.063183176e+00,9.50327e-02,1.08385e-01,9.97885e-01,8.78250e-01,9.99999e-01
1.068499092e+00,1.95703e-01,2.22964e-01,9.96457e-01,8.80505e-01,9.99999e-01
1.073841587e+00,3.40709e-01,3.87406e-01,9.95857e-01,8.82721e-01,9.99999e-01
1.079210795e+00,4.83760e-01,5.49433e-01,9.94685e-01,8.84899e-01,9.99999e-01
1.084606849e+00,6.34076e-01,7.20434e-01,9.91970e-01,8.87039e-01,9.99999e-01
1.090029883e+00,7.41834e-01,8.43853e-01,9.88512e-01,8.89142e-01,9.99999e-01
1.095480033e+00,7.94418e-01,9.19747e-01,9.68964e-01,8.91207e-01,9.99998e-01
1.100957433e+00,7.92044e-01,9.60547e-01,9.22890e-01,8.93237e-01,9.99998e-01
1.106462220e+00,7.17795e-01,9.83488e-01,8.14950e-01,8.95232e-01,9.99996e-01
1.111994531e+00,5.78489e-01,9.93849e-01,6.48584e-01,8.97191e-01,9.99993e-01
1.117554504e+00,4.44460e-01,9.98491e-01,4.94986e-01,8.99115e-01,9.99991e-01
1.123142276e+00,5.33815e-01,9.99900e-01,5.92507e-01,9.01006e-01,9.99989e-01
1.128757988e+00,6.48032e-01,9.99999e-01,7.17760e-01,9.02863e-01,9.99988e-01
1.134401778e+00,4.20367e-01,9.99999e-01,4.64660e-01,9.04687e-01,9.99987e-01
1.140073787e+00,7.44920e-01,9.99999e-01,8.21781e-01,9.06479e-01,9.99989e-01
1.145774156e+00,6.01052e-01,9.99999e-01,6.61782e-01,9.08239e-01,9.99991e-01
1.151503026e+00,5.73701e-01,9.99999e-01,6.30467e-01,9.09967e-01,9.99992e-01
1.157260541e+00,6.22771e-01,9.99999e-01,6.83117e-01,9.11664e-01,9.99994e-01
1.163046844e+00,6.89226e-01,9.99999e-01,7.54630e-01,9.13331e-01,9.99996e-01
1.168862078e+00,7.52966e-01,9.99999e-01,8.22943e-01,9.14968e-01,9.99997e-01
1.174706389e+00,8.12760e-01,9.99999e-01,8.86736e-01,9.16576e-01,9.99998e-01
1.180579921e+00,8.53375e-01,9.99999e-01,9.29446e-01,9.18154e-01,9.99998e-01
1.186482820e+00,8.82510e-01,9.99995e-01,9.59562e-01,9.19704e-01,9.99999e-01
1.192415234e+00,8.91904e-01,9.91690e-01,9.76224e-01,9.21226e-01,9.99999e-01
1.198377311e+00,5.22390e-01,5.75844e-01,9.79943e-01,9.22720e-01,9.99999e-01
1.204369197e+00,7.14700e-08,7.81934e-08,9.80992e-01,9.24187e-01,9.99999e-01
1.210391043e+00,2.16430e-26,2.36210e-26,9.81819e-01,9.25627e-01,9.99999e-01
1.216442998e+00,4.44272e-23,4.83879e-23,9.84496e-01,9.27042e-01,9.99999e-01
1.222525213e+00,9.43025e-23,1.02211e-22,9.87920e-01,9.28430e-01,9.99999e-01
1.228637839e+00,1.44607e-17,1.56454e-17,9.91601e-01,9.29793e-01,9.99999e-01
1.234781029e+00,7.52513e-12,8.10371e-12,9.93753e-01,9.31130e-01,9.99999e-01
1.240954934e+00,4.68156e-08,5.03388e-08,9.96048e-01,9.32444e-01,9.99999e-01
1.247159708e+00,8.46591e-05,9.08531e-05,9.96920e-01,9.33733e-01,9.99999e-01
1.253395507e+00,4.88701e-03,5.23806e-03,9.97268e-01,9.34998e-01,9.99999e-01
1.259662485e+00,4.68020e-02,5.00996e-02,9.97408e-01,9.36240e-01,9.99999e-01
1.265960797e+00,1.64005e-01,1.75575e-01,9.95854e-01,9.37460e-01,9.99999e-01
1.272290601e+00,4.29437e-01,4.60119e-01,9.93911e-01,9.38656e-01,9.99999e-01
1.278652054e+00,3.96966e-01,4.27014e-01,9.87159e-01,9.39831e-01,9.99999e-01
1.285045314e+00,2.26919e-02,2.43853e-02,9.79850e-01,9.40983e-01,9.99999e-01
1.291470541e+00,8.25827e-04,9.02112e-04,9.59867e-01,9.42115e-01,9.99998e-01
1.297927893e+00,2.08358e-02,2.27694e-02,9.47874e-01,9.43225e-01,9.99998e-01
1.304417533e+00,2.40278e-01,2.71280e-01,9.33283e-01,9.44314e-01,9.99996e-01
1.310939621e+00,6.60719e-02,7.33999e-02,9.24125e-01,9.45384e-01,9.99995e-01
1.317494319e+00,1.47445e-09,1.64269e-09,9.17699e-01,9.46433e-01,9.99992e-01
1.324081790e+00,6.52519e-07,7.34577e-07,8.79304e-01,9.47463e-01,9.99987e-01
1.330702199e+00,3.40929e-04,4.82251e-04,5.86658e-01,9.48473e-01,9.99979e-01
1.337355710e+00,1.57241e-04,3.92888e-04,2.61558e-01,9.49465e-01,9.99960e-01
1.344042489e+00,2.61385e-05,1.22910e-04,3.02453e-02,9.50438e-01,9.99916e-01
1.350762701e+00,8.03842e-07,3.41279e-04,9.32028e-04,9.51393e-01,9.99866e-01
1.357516515e+00,1.04003e-06,5.39006e-03,7.92148e-05,9.52330e-01,9.99834e-01
1.364304097e+00,1.02352e-04,3.71952e-02,1.84851e-03,9.53249e-01,9.99822e-01
1.371125618e+00,3.28015e-03,1.76371e-01,1.44053e-02,9.54151e-01,9.99821e-01
1.377981246e+00,7.50235e-03,2.47965e-01,2.77088e-02,9.55036e-01,9.99808e-01
1.384871152e+00,8.19888e-04,4.43943e-01,1.68566e-03,9.55904e-01,9.99810e-01
1.391795508e+00,1.31054e-03,4.72299e-01,2.57085e-03,9.56756e-01,9.99837e-01
1.398754485e+00,3.83978e-03,6.30337e-01,6.11263e-03,9.57592e-01,9.99864e-01
1.405748258e+00,4.14140e-03,7.11322e-01,5.74357e-03,9.58412e-01,9.99878e-01
1.412776999e+00,5.00502e-03,8.06619e-01,6.24500e-03,9.59216e-01,9.99901e-01
1.419840884e+00,7.15513e-03,7.40761e-01,8.71312e-03,9.60005e-01,9.99926e-01
1.426940089e+00,6.69479e-03,8.96835e-02,2.41761e-02,9.60780e-01,9.99954e-01
1.434074789e+00,0.00000e+00,0.00000e+00,5.80805e-02,9.61539e-01,9.99971e-01
1.441245163e+00,0.00000e+00,0.00000e+00,1.18158e-01,9.62284e-01,9.99977e-01
1.448451389e+00,0.00000e+00,0.00000e+00,2.16697e-01,9.63015e-01,9.99981e-01
1.455693646e+00,3.58173e-206,6.16553e-206,3.68726e-01,9.63732e-01,9.99984e-01
1.462972114e+00,1.91831e-100,3.29974e-100,4.26674e-01,9.64436e-01,9.99986e-01
1.470286975e+00,8.42789e-43,1.50804e-42,3.69203e-01,9.65126e-01,9.99988e-01
