#,Wave/freq,Total,CO2,H2O,Rayleigh,CIA
4.000000000e-01,2.47770e-25,9.99999e-01,9.99888e-01,2.47797e-25,9.99999e-01
4.020000000e-01,7.59626e-25,9.99999e-01,9.99930e-01,7.59678e-25,9.99999e-01
4.040100000e-01,2.27528e-24,9.99999e-01,9.99970e-01,2.27534e-24,9.99999e-01
4.060300500e-01,6.66885e-24,9.99999e-01,9.99992e-01,6.66890e-24,9.99999e-01
4.080602003e-01,1.91353e-23,9.99999e-01,9.99997e-01,1.91353e-23,9.99999e-01
4.101005013e-01,5.37745e-23,9.99999e-01,9.99999e-01,5.37745e-23,9.99999e-01
4.121510038e-01,1.48064e-22,9.99999e-01,9.99995e-01,1.48065e-22,9.99999e-01
4.142117588e-01,3.99602e-22,9.99999e-01,9.99969e-01,3.99614e-22,9.99999e-01
4.162828176e-01,1.05743e-21,9.99999e-01,9.99862e-01,1.05757e-21,9.99999e-01
4.183642317e-01,2.74535e-21,9.99999e-01,9.99917e-01,2.74557e-21,9.99999e-01
4.204560528e-01,6.99438e-21,9.99999e-01,9.99949e-01,6.99473e-21,9.99999e-01
4.225583331e-01,1.74936e-20,9.99999e-01,9.99980e-01,1.74939e-20,9.99999e-01
4.246711247e-01,4.29667e-20,9.99999e-01,9.99984e-01,4.29673e-20,9.99999e-01
4.267944804e-01,1.03675e-19,9.99999e-01,9.99977e-01,1.03677e-19,9.99999e-01
4.289284528e-01,2.45845e-19,9.99999e-01,9.99982e-01,2.45849e-19,9.99999e-01
4.310730950e-01,5.73121e-19,9.99999e-01,9.99992e-01,5.73125e-19,9.99999e-01
4.332284605e-01,1.31392e-18,9.99999e-01,9.99997e-01,1.31392e-18,9.99999e-01
4.353946028e-01,2.96327e-18,9.99999e-01,9.99998e-01,2.96328e-18,9.99999e-01
4.375715758e-01,6.57646e-18,9.99999e-01,9.99986e-01,6.57655e-18,9.99999e-01
4.397594337e-01,1.43659e-17,9.99999e-01,9.99879e-01,1.43676e-17,9.99999e-01
4.419582309e-01,3.08890e-17,9.99999e-01,9.99391e-01,3.09078e-17,9.99999e-01
4.441680220e-01,6.54594e-17,9.99999e-01,9.99520e-01,6.54908e-17,9.99999e-01
4.463888621e-01,1.36658e-16,9.99999e-01,9.99502e-01,1.36726e-16,9.99999e-01
4.486208064e-01,2.81237e-16,9.99999e-01,9.99689e-01,2.81324e-16,9.99999e-01
4.508639105e-01,5.70573e-16,9.99999e-01,9.99854e-01,5.70655e-16,9.99999e-01
4.531182300e-01,1.14143e-15,9.99999e-01,9.99942e-01,1.14149e-15,9.99999e-01
4.553838212e-01,2.25221e-15,9.99999e-01,9.99960e-01,2.25229e-15,9.99999e-01
4.576607403e-01,4.38470e-15,9.99999e-01,9.99981e-01,4.38477e-15,9.99999e-01
4.599490440e-01,8.42459e-15,9.99999e-01,9.99986e-01,8.42470e-15,9.99999e-01
4.622487892e-01,1.59793e-14,9.99999e-01,9.99997e-01,1.59794e-14,9.99999e-01
4.645600332e-01,2.99274e-14,9.99999e-01,9.99990e-01,2.99277e-14,9.99999e-01
4.668828333e-01,5.53530e-14,9.99999e-01,9.99853e-01,5.53611e-14,9.99999e-01
4.692172475e-01,1.01140e-13,9.99999e-01,9.99687e-01,1.01172e-13,9.99999e-01
4.715633337e-01,1.82664e-13,9.99999e-01,9.99795e-01,1.82701e-13,9.99999e-01
4.739211504e-01,3.26038e-13,9.99999e-01,9.99804e-01,3.26102e-13,9.99999e-01
4.762907561e-01,5.75376e-13,9.99999e-01,9.99898e-01,5.75434e-13,9.99999e-01
4.786722099e-01,1.00403e-12,9.99999e-01,9.99958e-01,1.00407e-12,9.99999e-01
4.810655710e-01,1.73283e-12,9.99999e-01,9.99987e-01,1.73285e-12,9.99999e-01
4.834708988e-01,2.95817e-12,9.99999e-01,9.99881e-01,2.95852e-12,9.99999e-01
4.858882533e-01,4.99693e-12,9.99999e-01,9.99778e-01,4.99804e-12,9.99999e-01
4.883176946e-01,8.35499e-12,9.99999e-01,9.99815e-01,8.35653e-12,9.99999e-01
4.907592831e-01,1.38284e-11,9.99999e-01,9.99832e-01,1.38307e-11,9.99999e-01
4.932130795e-01,2.26614e-11,9.99999e-01,9.99880e-01,2.26641e-11,9.99999e-01
4.956791449e-01,3.67765e-11,9.99999e-01,9.99936e-01,3.67788e-11,9.99999e-01
4.981575406e-01,5.90972e-11,9.99999e-01,9.99686e-01,5.91157e-11,9.99999e-01
5.006483283e-01,9.40558e-11,9.99999e-01,9.99190e-01,9.41319e-11,9.99999e-01
5.031515699e-01,1.47908e-10,9.99999e-01,9.95890e-01,1.48518e-10,9.99999e-01
5.056673278e-01,2.31722e-10,9.99999e-01,9.97825e-01,2.32227e-10,9.99999e-01
5.081956644e-01,3.58935e-10,9.99999e-01,9.97256e-01,3.59923e-10,9.99999e-01
5.107366428e-01,5.52003e-10,9.99999e-01,9.98145e-01,5.53028e-10,9.99999e-01
5.132903260e-01,8.41667e-10,9.99999e-01,9.98938e-01,8.42560e-10,9.99999e-01
5.158567776e-01,1.27247e-09,9.99999e-01,9.99551e-01,1.27304e-09,9.99999e-01
5.184360615e-01,1.90751e-09,9.99999e-01,9.99820e-01,1.90785e-09,9.99999e-01
5.210282418e-01,2.83626e-09,9.99999e-01,9.99932e-01,2.83645e-09,9.99999e-01
5.236333830e-01,4.18300e-09,9.99999e-01,9.99731e-01,4.18412e-09,9.99999e-01
5.262515499e-01,6.12386e-09,9.99999e-01,9.99831e-01,6.12489e-09,9.99999e-01
5.288828077e-01,8.89726e-09,9.99999e-01,9.99845e-01,8.89863e-09,9.99999e-01
5.315272217e-01,1.28317e-08,9.99999e-01,9.99863e-01,1.28335e-08,9.99999e-01
5.341848578e-01,1.83732e-08,9.99999e-01,9.99911e-01,1.83748e-08,9.99999e-01
5.368557821e-01,2.61149e-08,9.99999e-01,9.99687e-01,2.61231e-08,9.99999e-01
5.395400610e-01,3.68400e-08,9.99999e-01,9.98877e-01,3.68814e-08,9.99999e-01
5.422377613e-01,5.16412e-08,9.99999e-01,9.98539e-01,5.17167e-08,9.99999e-01
5.449489501e-01,7.19394e-08,9.99999e-01,9.98646e-01,7.20369e-08,9.99999e-01
5.476736949e-01,9.95664e-08,9.99999e-01,9.98796e-01,9.96864e-08,9.99999e-01
5.504120634e-01,1.36946e-07,9.99999e-01,9.99126e-01,1.37066e-07,9.99999e-01
5.531641237e-01,1.87198e-07,9.99999e-01,9.99560e-01,1.87281e-07,9.99999e-01
5.559299443e-01,2.54264e-07,9.99999e-01,9.99787e-01,2.54318e-07,9.99999e-01
5.587095940e-01,3.43226e-07,9.99999e-01,9.99866e-01,3.43272e-07,9.99999e-01
5.615031420e-01,4.60533e-07,9.99999e-01,9.99851e-01,4.60601e-07,9.99999e-01
5.643106577e-01,6.14353e-07,9.99999e-01,9.99833e-01,6.14455e-07,9.99999e-01
5.671322110e-01,8.13404e-07,9.99999e-01,9.97983e-01,8.15047e-07,9.99999e-01
5.699678720e-01,1.07277e-06,9.99999e-01,9.97825e-01,1.07511e-06,9.99999e-01
5.728177114e-01,1.40723e-06,9.99999e-01,9.97746e-01,1.41041e-06,9.99999e-01
5.756818000e-01,1.83658e-06,9.99999e-01,9.97929e-01,1.84039e-06,9.99999e-01
5.785602090e-01,2.38456e-06,9.99999e-01,9.98193e-01,2.38887e-06,9.99999e-01
5.814530100e-01,3.07928e-06,9.99999e-01,9.98187e-01,3.08487e-06,9.99999e-01
5.843602750e-01,3.95506e-06,9.99999e-01,9.97849e-01,3.96359e-06,9.99999e-01
5.872820764e-01,4.97440e-06,9.99999e-01,9.81636e-01,5.06745e-06,9.99999e-01
5.902184868e-01,6.30320e-06,9.99999e-01,9.77638e-01,6.44738e-06,9.99999e-01
5.931695792e-01,8.03517e-06,9.99999e-01,9.84202e-01,8.16414e-06,9.99999e-01
5.961354271e-01,1.01115e-05,9.99999e-01,9.82656e-01,1.02899e-05,9.99999e-01
5.991161043e-01,1.27463e-05,9.99999e-01,9.87307e-01,1.29101e-05,9.99999e-01
6.021116848e-01,1.60085e-05,9.99999e-01,9.92773e-01,1.61251e-05,9.99999e-01
6.051222432e-01,1.99789e-05,9.99999e-01,9.96336e-01,2.00523e-05,9.99999e-01
6.081478544e-01,2.47897e-05,9.99999e-01,9.98418e-01,2.48290e-05,9.99999e-01
6.111885937e-01,3.05935e-05,9.99999e-01,9.99329e-01,3.06140e-05,9.99999e-01
6.142445367e-01,3.75798e-05,9.99999e-01,9.99700e-01,3.75910e-05,9.99999e-01
6.173157594e-01,4.59638e-05,9.99999e-01,9.99834e-01,4.59714e-05,9.99999e-01
6.204023382e-01,5.59891e-05,9.99999e-01,9.99860e-01,5.59969e-05,9.99999e-01
6.235043498e-01,6.79022e-05,9.99999e-01,9.99391e-01,6.79436e-05,9.99999e-01
6.266218716e-01,8.18584e-05,9.99999e-01,9.96757e-01,8.21247e-05,9.99999e-01
6.297549810e-01,9.87770e-05,9.99999e-01,9.98810e-01,9.88947e-05,9.99999e-01
6.329037559e-01,1.18373e-04,9.99999e-01,9.97645e-01,1.18653e-04,9.99999e-01
6.360682746e-01,1.41563e-04,9.99999e-01,9.97998e-01,1.41847e-04,9.99999e-01
6.392486160e-01,1.68540e-04,9.99999e-01,9.97404e-01,1.68979e-04,9.99999e-01
6.424448591e-01,1.99911e-04,9.99999e-01,9.96542e-01,2.00605e-04,9.99999e-01
6.456570834e-01,2.33559e-04,9.99999e-01,9.84050e-01,2.37345e-04,9.99999e-01
6.488853688e-01,2.76592e-04,9.99999e-01,9.88244e-01,2.79882e-04,9.99999e-01
6.521297956e-01,3.25030e-04,9.99999e-01,9.88024e-01,3.28970e-04,9.99999e-01
6.553904446e-01,3.80862e-04,9.99999e-01,9.88136e-01,3.85434e-04,9.99999e-01
6.586673968e-01,4.45575e-04,9.99999e-01,9.89769e-01,4.50180e-04,9.99999e-01
6.619607338e-01,5.21084e-04,9.99999e-01,9.94070e-01,5.24192e-04,9.99999e-01
6.652705375e-01,6.06445e-04,9.99999e-01,9.96558e-01,6.08539e-04,9.99999e-01
6.685968902e-01,7.03253e-04,9.99999e-01,9.98400e-01,7.04380e-04,9.99999e-01
6.719398746e-01,8.12360e-04,9.99999e-01,9.99257e-01,8.12962e-04,9.99999e-01
6.752995740e-01,9.35255e-04,9.99999e-01,9.99598e-01,9.35630e-04,9.99999e-01
6.786760719e-01,1.07320e-03,9.99999e-01,9.99422e-01,1.07382e-03,9.99999e-01
6.820694522e-01,1.22786e-03,9.99999e-01,9.99010e-01,1.22908e-03,9.99999e-01
6.854797995e-01,1.40124e-03,9.99999e-01,9.98724e-01,1.40303e-03,9.99999e-01
6.889071985e-01,1.59253e-03,9.99999e-01,9.96938e-01,1.59742e-03,9.99999e-01
6.923517345e-01,1.72524e-03,9.99999e-01,9.51020e-01,1.81409e-03,9.99999e-01
6.958134932e-01,2.00156e-03,9.99999e-01,9.74008e-01,2.05498e-03,9.99998e-01
6.992925606e-01,2.26511e-03,9.99999e-01,9.75447e-01,2.32213e-03,9.99998e-01
7.027890234e-01,2.53822e-03,9.99999e-01,9.69647e-01,2.61768e-03,9.99998e-01
7.063029686e-01,2.86852e-03,9.99999e-01,9.74403e-01,2.94387e-03,9.99998e-01
7.098344834e-01,3.22184e-03,9.99999e-01,9.75416e-01,3.30304e-03,9.99998e-01
7.133836558e-01,3.57808e-03,9.99999e-01,9.67673e-01,3.69761e-03,9.99998e-01
7.169505741e-01,3.18803e-03,9.99999e-01,7.71902e-01,4.13010e-03,9.99996e-01
7.205353270e-01,4.04652e-03,9.99999e-01,8.79085e-01,4.60311e-03,9.99996e-01
7.241380036e-01,4.34893e-03,9.99999e-01,8.49515e-01,5.11932e-03,9.99995e-01
7.277586936e-01,4.90400e-03,9.99999e-01,8.63159e-01,5.68147e-03,9.99996e-01
7.313974871e-01,5.37290e-03,9.99999e-01,8.53874e-01,6.29239e-03,9.99997e-01
7.350544745e-01,6.37845e-03,9.99999e-01,9.17108e-01,6.95496e-03,9.99998e-01
7.387297469e-01,7.19719e-03,9.99999e-01,9.38098e-01,7.67211e-03,9.99998e-01
7.424233956e-01,8.18614e-03,9.99999e-01,9.69139e-01,8.44681e-03,9.99999e-01
7.461355126e-01,9.10750e-03,9.99999e-01,9.81189e-01,9.28209e-03,9.99999e-01
7.498661902e-01,1.00913e-02,9.99999e-01,9.91185e-01,1.01810e-02,9.99999e-01
7.536155211e-01,1.10983e-02,9.99999e-01,9.95672e-01,1.11466e-02,9.99999e-01
7.573835987e-01,1.21547e-02,9.99999e-01,9.97769e-01,1.21819e-02,9.99999e-01
7.611705167e-01,1.32716e-02,9.99999e-01,9.98613e-01,1.32900e-02,9.99999e-01
7.649763693e-01,1.44615e-02,9.99999e-01,9.99131e-01,1.44741e-02,9.99999e-01
7.688012511e-01,1.57276e-02,9.99999e-01,9.99395e-01,1.57371e-02,9.99999e-01
7.726452574e-01,1.70735e-02,9.99999e-01,9.99502e-01,1.70820e-02,9.99999e-01
7.765084837e-01,1.84989e-02,9.99999e-01,9.99296e-01,1.85119e-02,9.99999e-01
7.803910261e-01,1.74481e-02,8.73462e-01,9.96964e-01,2.00297e-02,9.99999e-01
7.842929812e-01,1.01657e-02,4.73928e-01,9.89448e-01,2.16381e-02,9.99999e-01
7.882144461e-01,1.05455e-02,4.60365e-01,9.78285e-01,2.33401e-02,9.99999e-01
7.921555184e-01,1.51150e-02,6.07808e-01,9.88012e-01,2.51384e-02,9.99999e-01
7.961162960e-01,1.88197e-02,7.10319e-01,9.79029e-01,2.70355e-02,9.99999e-01
8.000968774e-01,2.35316e-02,8.30359e-01,9.75709e-01,2.90340e-02,9.99999e-01
8.040973618e-01,2.75825e-02,9.07663e-01,9.75729e-01,3.11364e-02,9.99998e-01
8.081178486e-01,3.02004e-02,9.56492e-01,9.46502e-01,3.33450e-02,9.99998e-01
8.121584379e-01,2.80598e-02,9.86300e-01,7.97194e-01,3.56619e-02,9.99996e-01
8.162192301e-01,2.90162e-02,9.96957e-01,7.63907e-01,3.80892e-02,9.99995e-01
8.203003262e-01,3.57014e-02,9.99951e-01,8.78748e-01,4.06289e-02,9.99995e-01
8.244018279e-01,3.61660e-02,9.99999e-01,8.35581e-01,4.32826e-02,9.99995e-01
8.285238370e-01,3.91774e-02,9.99999e-01,8.50720e-01,4.60521e-02,9.99996e-01
8.326664562e-01,4.15663e-02,9.99999e-01,8.49353e-01,4.89389e-02,9.99997e-01
8.368297885e-01,4.61711e-02,9.99999e-01,8.88862e-01,5.19441e-02,9.99998e-01
8.410139374e-01,5.13366e-02,9.99999e-01,9.32221e-01,5.50691e-02,9.99999e-01
8.452190071e-01,5.63374e-02,9.99999e-01,9.66092e-01,5.83147e-02,9.99999e-01
8.494451021e-01,6.04608e-02,9.99999e-01,9.80204e-01,6.16818e-02,9.99999e-01
8.536923276e-01,6.44039e-02,9.99999e-01,9.88229e-01,6.51710e-02,9.99999e-01
8.579607893e-01,6.82839e-02,9.99999e-01,9.92746e-01,6.87828e-02,9.99999e-01
8.622505932e-01,7.21825e-02,9.99999e-01,9.95380e-01,7.25174e-02,9.99999e-01
8.665618462e-01,6.39129e-02,8.39040e-01,9.97145e-01,7.63750e-02,9.99999e-01
8.708946554e-01,1.34619e-02,1.68007e-01,9.96735e-01,8.03555e-02,9.99999e-01
8.752491287e-01,1.79904e-02,2.13849e-01,9.95633e-01,8.44587e-02,9.99999e-01
8.796253743e-01,3.66843e-02,4.15852e-01,9.93967e-01,8.86841e-02,9.99999e-01
8.840235012e-01,5.77192e-02,6.24409e-01,9.93110e-01,9.30312e-02,9.99999e-01
8.884436187e-01,7.88521e-02,8.28068e-01,9.75464e-01,9.74991e-02,9.99998e-01
8.928858368e-01,7.32814e-02,9.26095e-01,7.72407e-01,1.02087e-01,9.99995e-01
8.973502660e-01,6.66117e-02,9.81451e-01,6.34345e-01,1.06794e-01,9.99993e-01
9.018370173e-01,8.82542e-02,9.97935e-01,7.92079e-01,1.11618e-01,9.99992e-01
9.063462024e-01,9.10158e-02,9.51065e-01,8.14648e-01,1.16558e-01,9.99991e-01
9.108779334e-01,7.88339e-02,8.86478e-01,7.26204e-01,1.21614e-01,9.99990e-01
9.154323231e-01,8.56885e-02,9.71940e-01,6.93357e-01,1.26781e-01,9.99990e-01
9.200094847e-01,7.64529e-02,7.31262e-01,7.51702e-01,1.32060e-01,9.99987e-01
9.246095321e-01,5.21671e-02,5.58661e-01,6.57011e-01,1.37448e-01,9.99978e-01
9.292325798e-01,8.83357e-03,6.44365e-01,8.52877e-02,1.42943e-01,9.99956e-01
9.338787427e-01,3.91973e-03,6.46685e-01,3.65789e-02,1.48543e-01,9.99942e-01
9.385481364e-01,3.06371e-02,7.22291e-01,2.59152e-01,1.54244e-01,9.99941e-01
9.432408771e-01,2.30578e-02,8.17266e-01,1.70245e-01,1.60046e-01,9.99934e-01
9.479570815e-01,1.23030e-02,9.01556e-01,8.07731e-02,1.65944e-01,9.99942e-01
9.526968669e-01,2.31315e-02,9.51305e-01,1.39704e-01,1.71937e-01,9.99956e-01
9.574603512e-01,2.65298e-02,9.78828e-01,1.51446e-01,1.78022e-01,9.99967e-01
9.622476530e-01,3.77937e-02,9.93340e-01,2.06225e-01,1.84195e-01,9.99978e-01
9.670588912e-01,7.54073e-02,9.97998e-01,3.96553e-01,1.90454e-01,9.99986e-01
9.718941857e-01,1.07309e-01,9.99856e-01,5.45335e-01,1.96796e-01,9.99991e-01
9.767536566e-01,1.22679e-01,9.99999e-01,6.03684e-01,2.03218e-01,9.99993e-01
9.816374249e-01,1.43683e-01,9.99999e-01,6.85132e-01,2.09716e-01,9.99995e-01
9.865456120e-01,1.70523e-01,9.99999e-01,7.88410e-01,2.16287e-01,9.99997e-01
9.914783401e-01,1.92345e-01,9.99999e-01,8.62809e-01,2.22928e-01,9.99998e-01
9.964357318e-01,2.11893e-01,9.99999e-01,9.22732e-01,2.29636e-01,9.99999e-01
1.001417910e+00,2.25270e-01,9.99999e-01,9.52888e-01,2.36408e-01,9.99999e-01
1.006425000e+00,2.36641e-01,9.99999e-01,9.72875e-01,2.43239e-01,9.99999e-01
1.011457125e+00,2.45890e-01,9.99999e-01,9.83059e-01,2.50127e-01,9.99999e-01
1.016514411e+00,2.54106e-01,9.99999e-01,9.88474e-01,2.57068e-01,9.99999e-01
1.021596983e+00,2.61565e-01,9.99737e-01,9.90809e-01,2.64059e-01,9.99999e-01
1.026704968e+00,2.63814e-01,9.80120e-01,9.92827e-01,2.71097e-01,9.99999e-01
1.031838492e+00,2.40218e-01,8.67760e-01,9.94777e-01,2.78177e-01,9.99999e-01
1.036997685e+00,7.10517e-03,2.49623e-02,9.96897e-01,2.85297e-01,9.99999e-01
1.042182673e+00,6.35764e-05,2.17963e-04,9.96308e-01,2.92453e-01,9.99999e-01
1.047393587e+00,1.83144e-04,6.13610e-04,9.95102e-01,2.99642e-01,9.99999e-01
1.052630555e+00,1.10372e-10,3.61166e-10,9.93290e-01,3.06861e-01,9.99999e-01
1.057893707e+00,4.08705e-10,1.30791e-09,9.88832e-01,3.14106e-01,9.99999e-01
1.063183176e+00,1.37921e-07,4.33317e-07,9.81688e-01,3.21373e-01,9.99999e-01
1.068499092e+00,3.53224e-06,1.09227e-05,9.69521e-01,3.28661e-01,9.99999e-01
1.073841587e+00,1.72733e-04,5.25967e-04,9.64527e-01,3.35964e-01,9.99998e-01
1.079210795e+00,3.07291e-03,9.25067e-03,9.54643e-01,3.43281e-01,9.99998e-01
1.084606849e+00,2.16918e-02,6.55050e-02,9.32319e-01,3.50608e-01,9.99997e-01
1.090029883e+00,7.78973e-02,2.37475e-01,9.04814e-01,3.57942e-01,9.99995e-01
1.095480033e+00,1.38141e-01,4.89254e-01,7.61654e-01,3.65280e-01,9.99992e-01
1.100957433e+00,1.36022e-01,7.05937e-01,5.07801e-01,3.72619e-01,9.99987e-01
1.106462220e+00,6.67774e-02,8.65351e-01,1.98940e-01,3.79957e-01,9.99973e-01
1.111994531e+00,1.38999e-02,9.47663e-01,3.73687e-02,3.87289e-01,9.99947e-01
1.117554504e+00,2.55653e-03,9.86933e-01,6.51813e-03,3.94614e-01,9.99925e-01
1.123142276e+00,1.36745e-02,9.99134e-01,3.40268e-02,4.01929e-01,9.99912e-01
1.128757988e+00,3.52570e-02,9.99999e-01,8.61624e-02,4.09231e-01,9.99904e-01
1.134401778e+00,1.64743e-02,9.99999e-01,3.95566e-02,4.16517e-01,9.99892e-01
1.140073787e+00,8.91618e-02,9.99999e-01,2.10412e-01,4.23785e-01,9.99913e-01
1.145774156e+00,2.34262e-02,9.99999e-01,5.43529e-02,4.31033e-01,9.99926e-01
1.151503026e+00,1.70445e-02,9.99999e-01,3.88939e-02,4.38258e-01,9.99936e-01
1.157260541e+00,2.21701e-02,9.99999e-01,4.97715e-02,4.45458e-01,9.99952e-01
1.163046844e+00,4.79558e-02,9.99999e-01,1.05952e-01,4.52630e-01,9.99969e-01
1.168862078e+00,9.00049e-02,9.99999e-01,1.95762e-01,4.59773e-01,9.99984e-01
1.174706389e+00,1.69417e-01,9.99999e-01,3.62869e-01,4.66884e-01,9.99991e-01
1.180579921e+00,2.53913e-01,9.99999e-01,5.35726e-01,4.73962e-01,9.99994e-01
1.186482820e+00,3.36487e-01,9.99967e-01,6.99569e-01,4.81003e-01,9.99995e-01
1.192415234e+00,3.71598e-01,9.35376e-01,8.10953e-01,4.88007e-01,9.99995e-01
1.198377311e+00,2.04075e-01,4.77212e-01,8.38378e-01,4.94972e-01,9.99996e-01
1.204369197e+00,2.11754e-51,4.64763e-51,8.47123e-01,5.01896e-01,9.99996e-01
1.210391043e+00,2.73799e-213,5.88203e-213,8.52774e-01,5.08777e-01,9.99997e-01
1.216442998e+00,2.45153e-184,5.17265e-184,8.73180e-01,5.15613e-01,9.99998e-01
1.222525213e+00,1.56289e-181,3.15960e-181,8.99528e-01,5.22404e-01,9.99998e-01
1.228637839e+00,1.13411e-139,2.25187e-139,9.29079e-01,5.29147e-01,9.99999e-01
1.234781029e+00,3.23800e-86,6.18718e-86,9.46822e-01,5.35841e-01,9.99999e-01
1.240954934e+00,1.01441e-56,1.90912e-56,9.66043e-01,5.42486e-01,9.99999e-01
1.247159708e+00,2.23017e-26,4.12659e-26,9.73433e-01,5.49079e-01,9.99999e-01
1.253395507e+00,5.52141e-18,1.01001e-17,9.76395e-01,5.55620e-01,9.99999e-01
1.259662485e+00,2.80464e-10,5.06788e-10,9.77588e-01,5.62107e-01,9.99999e-01
1.265960797e+00,6.12375e-06,1.10020e-05,9.64409e-01,5.68540e-01,9.99998e-01
1.272290601e+00,1.34348e-03,2.42355e-03,9.48156e-01,5.74917e-01,9.99998e-01
1.278652054e+00,2.07832e-03,3.81313e-03,8.93998e-01,5.81237e-01,9.99997e-01
1.285045314e+00,1.01822e-07,1.88162e-07,8.39030e-01,5.87500e-01,9.99995e-01
1.291470541e+00,3.97009e-24,8.01259e-24,7.03506e-01,5.93705e-01,9.99992e-01
1.297927893e+00,1.23658e-09,2.53910e-09,6.34754e-01,5.99851e-01,9.99987e-01
1.304417533e+00,1.08623e-05,2.69930e-05,5.59037e-01,6.05937e-01,9.99977e-01
1.310939621e+00,3.63646e-06,8.64696e-06,5.15063e-01,6.11963e-01,9.99961e-01
1.317494319e+00,1.41682e-71,3.41871e-71,4.87320e-01,6.17928e-01,9.99934e-01
1.324081790e+00,1.79005e-46,4.71015e-46,3.51692e-01,6.23831e-01,9.99893e-01
1.330702199e+00,5.41376e-28,2.66257e-27,6.77891e-02,6.29673e-01,9.99822e-01
1.337355710e+00,1.10329e-27,1.57613e-24,1.42297e-04,6.35452e-01,9.99659e-01
1.344042489e+00,2.10805e-29,1.06315e-24,9.28528e-07,6.41169e-01,9.99271e-01
1.350762701e+00,1.64192e-46,1.09439e-27,1.33691e-20,6.46823e-01,9.98836e-01
1.357516515e+00,7.58898e-45,4.46670e-16,8.35665e-31,6.52413e-01,9.98559e-01
1.364304097e+00,4.70974e-29,5.97219e-12,8.28501e-19,6.57940e-01,9.98456e-01
1.371125618e+00,1.17680e-16,1.99898e-06,1.86796e-11,6.63403e-01,9.98442e-01
1.377981246e+00,2.45253e-15,1.05502e-05,5.72276e-11,6.68803e-01,9.98327e-01
1.384871152e+00,2.68548e-18,1.16477e-03,1.22205e-15,6.74138e-01,9.98344e-01
1.391795508e+00,2.96167e-21,2.13787e-03,4.37975e-19,6.79409e-01,9.98582e-01
1.398754485e+00,2.41655e-16,1.84941e-02,1.06195e-14,6.84616e-01,9.98815e-01
1.405748258e+00,7.55018e-16,5.64136e-02,1.17567e-14,6.89759e-01,9.98938e-01
1.412776999e+00,4.87437e-15,1.58003e-01,2.51102e-14,6.94838e-01,9.99146e-01
1.419840884e+00,7.49878e-15,1.67731e-01,3.84097e-14,6.99853e-01,9.99362e-01
1.426940089e+00,1.26626e-10,4.11056e-03,1.36271e-09,7.04804e-01,9.99605e-01
1.434074789e+00,0.00000e+00,0.00000e+00,2.05742e-08,7.09691e-01,9.99753e-01
1.441245163e+00,0.00000e+00,0.00000e+00,5.15254e-07,7.14514e-01,9.99808e-01
1.448451389e+00,0.00000e+00,0.00000e+00,6.19226e-05,7.19275e-01,9.99840e-01
1.455693646e+00,0.00000e+00,0.00000e+00,1.36881e-03,7.23971e-01,9.99868e-01
1.462972114e+00,0.00000e+00,0.00000e+00,2.02930e-03,7.28605e-01,9.99887e-01
1.470286975e+00,0.00000e+00,0.00000e+00,8.36556e-04,7.33176e-01,9.99899e-01
