#,Wave/freq,Total,CO2,H2O,Rayleigh,CIA
4.000000000e-01,3.45644e-08,9.99999e-01,9.99965e-01,3.45656e-08,9.99999e-01
4.020000000e-01,4.85471e-08,9.99999e-01,9.99978e-01,4.85481e-08,9.99999e-01
4.040100000e-01,6.77072e-08,9.99999e-01,9.99990e-01,6.77078e-08,9.99999e-01
4.060300500e-01,9.38102e-08,9.99999e-01,9.99997e-01,9.38104e-08,9.99999e-01
4.080602003e-01,1.29142e-07,9.99999e-01,9.99998e-01,1.29142e-07,9.99999e-01
4.101005013e-01,1.76661e-07,9.99999e-01,9.99999e-01,1.76661e-07,9.99999e-01
4.121510038e-01,2.40174e-07,9.99999e-01,9.99998e-01,2.40174e-07,9.99999e-01
4.142117588e-01,3.24543e-07,9.99999e-01,9.99990e-01,3.24546e-07,9.99999e-01
4.162828176e-01,4.35940e-07,9.99999e-01,9.99957e-01,4.35958e-07,9.99999e-01
4.183642317e-01,5.82198e-07,9.99999e-01,9.99974e-01,5.82213e-07,9.99999e-01
4.204560528e-01,7.73090e-07,9.99999e-01,9.99984e-01,7.73102e-07,9.99999e-01
4.225583331e-01,1.02084e-06,9.99999e-01,9.99993e-01,1.02084e-06,9.99999e-01
4.246711247e-01,1.34059e-06,9.99999e-01,9.99994e-01,1.34059e-06,9.99999e-01
4.267944804e-01,1.75103e-06,9.99999e-01,9.99992e-01,1.75105e-06,9.99999e-01
4.289284528e-01,2.27512e-06,9.99999e-01,9.99994e-01,2.27513e-06,9.99999e-01
4.310730950e-01,2.94082e-06,9.99999e-01,9.99997e-01,2.94083e-06,9.99999e-01
4.332284605e-01,3.78208e-06,9.99999e-01,9.99998e-01,3.78209e-06,9.99999e-01
4.353946028e-01,4.83988e-06,9.99999e-01,9.99999e-01,4.83988e-06,9.99999e-01
4.375715758e-01,6.16340e-06,9.99999e-01,9.99995e-01,6.16343e-06,9.99999e-01
4.397594337e-01,7.81124e-06,9.99999e-01,9.99962e-01,7.81153e-06,9.99999e-01
4.419582309e-01,9.85225e-06,9.99999e-01,9.99810e-01,9.85411e-06,9.99999e-01
4.441680220e-01,1.23721e-05,9.99999e-01,9.99855e-01,1.23739e-05,9.99999e-01
4.463888621e-01,1.54659e-05,9.99999e-01,9.99848e-01,1.54682e-05,9.99999e-01
4.486208064e-01,1.92496e-05,9.99999e-01,9.99906e-01,1.92514e-05,9.99999e-01
4.508639105e-01,2.38554e-05,9.99999e-01,9.99955e-01,2.38564e-05,9.99999e-01
4.531182300e-01,2.94375e-05,9.99999e-01,9.99982e-01,2.94380e-05,9.99999e-01
4.553838212e-01,3.61746e-05,9.99999e-01,9.99987e-01,3.61750e-05,9.99999e-01
4.576607403e-01,4.42730e-05,9.99999e-01,9.99994e-01,4.42732e-05,9.99999e-01
4.599490440e-01,5.39684e-05,9.99999e-01,9.99995e-01,5.39686e-05,9.99999e-01
4.622487892e-01,6.55302e-05,9.99999e-01,9.99998e-01,6.55302e-05,9.99999e-01
4.645600332e-01,7.92640e-05,9.99999e-01,9.99996e-01,7.92642e-05,9.99999e-01
4.668828333e-01,9.55127e-05,9.99999e-01,9.99954e-01,9.55170e-05,9.99999e-01
4.692172475e-01,1.14668e-04,9.99999e-01,9.99905e-01,1.14679e-04,9.99999e-01
4.715633337e-01,1.37180e-04,9.99999e-01,9.99937e-01,1.37189e-04,9.99999e-01
4.739211504e-01,1.63528e-04,9.99999e-01,9.99940e-01,1.63537e-04,9.99999e-01
4.762907561e-01,1.94265e-04,9.99999e-01,9.99969e-01,1.94271e-04,9.99999e-01
4.786722099e-01,2.29993e-04,9.99999e-01,9.99987e-01,2.29996e-04,9.99999e-01
4.810655710e-01,2.71384e-04,9.99999e-01,9.99995e-01,2.71385e-04,9.99999e-01
4.834708988e-01,3.19164e-04,9.99999e-01,9.99962e-01,3.19176e-04,9.99999e-01
4.858882533e-01,3.74159e-04,9.99999e-01,9.99932e-01,3.74184e-04,9.99999e-01
4.883176946e-01,4.37271e-04,9.99999e-01,9.99943e-01,4.37295e-04,9.99999e-01
4.907592831e-01,5.09455e-04,9.99999e-01,9.99949e-01,5.09481e-04,9.99999e-01
4.932130795e-01,5.91772e-04,9.99999e-01,9.99963e-01,5.91793e-04,9.99999e-01
4.956791449e-01,6.85361e-04,9.99999e-01,9.99980e-01,6.85374e-04,9.99999e-01
4.981575406e-01,7.91379e-04,9.99999e-01,9.99903e-01,7.91455e-04,9.99999e-01
5.006483283e-01,9.11132e-04,9.99999e-01,9.99750e-01,9.11360e-04,9.99999e-01
5.031515699e-01,1.04520e-03,9.99999e-01,9.98746e-01,1.04651e-03,9.99999e-01
5.056673278e-01,1.19764e-03,9.99999e-01,9.99340e-01,1.19843e-03,9.99999e-01
5.081956644e-01,1.36759e-03,9.99999e-01,9.99169e-01,1.36872e-03,9.99999e-01
5.107366428e-01,1.55825e-03,9.99999e-01,9.99439e-01,1.55912e-03,9.99999e-01
5.132903260e-01,1.77088e-03,9.99999e-01,9.99679e-01,1.77145e-03,9.99999e-01
5.158567776e-01,2.00734e-03,9.99999e-01,9.99864e-01,2.00761e-03,9.99999e-01
5.184360615e-01,2.26953e-03,9.99999e-01,9.99945e-01,2.26965e-03,9.99999e-01
5.210282418e-01,2.55963e-03,9.99999e-01,9.99979e-01,2.55968e-03,9.99999e-01
5.236333830e-01,2.87968e-03,9.99999e-01,9.99918e-01,2.87992e-03,9.99999e-01
5.262515499e-01,3.23252e-03,9.99999e-01,9.99948e-01,3.23269e-03,9.99999e-01
5.288828077e-01,3.62022e-03,9.99999e-01,9.99952e-01,3.62039e-03,9.99999e-01
5.315272217e-01,4.04538e-03,9.99999e-01,9.99958e-01,4.04554e-03,9.99999e-01
5.341848578e-01,4.51059e-03,9.99999e-01,9.99972e-01,4.51071e-03,9.99999e-01
5.368557821e-01,5.01808e-03,9.99999e-01,9.99904e-01,5.01856e-03,9.99999e-01
5.395400610e-01,5.56990e-03,9.99999e-01,9.99652e-01,5.57184e-03,9.99999e-01
5.422377613e-01,6.17062e-03,9.99999e-01,9.99558e-01,6.17334e-03,9.99999e-01
5.449489501e-01,6.82313e-03,9.99999e-01,9.99586e-01,6.82595e-03,9.99999e-01
5.476736949e-01,7.52985e-03,9.99999e-01,9.99636e-01,7.53258e-03,9.99999e-01
5.504120634e-01,8.29402e-03,9.99999e-01,9.99736e-01,8.29620e-03,9.99999e-01
5.531641237e-01,9.11862e-03,9.99999e-01,9.99867e-01,9.11983e-03,9.99999e-01
5.559299443e-01,1.00059e-02,9.99999e-01,9.99935e-01,1.00065e-02,9.99999e-01
5.587095940e-01,1.09588e-02,9.99999e-01,9.99959e-01,1.09593e-02,9.99999e-01
5.615031420e-01,1.19807e-02,9.99999e-01,9.99954e-01,1.19812e-02,9.99999e-01
5.643106577e-01,1.30747e-02,9.99999e-01,9.99947e-01,1.30754e-02,9.99999e-01
5.671322110e-01,1.42359e-02,9.99999e-01,9.99368e-01,1.42449e-02,9.99999e-01
5.699678720e-01,1.54827e-02,9.99999e-01,9.99348e-01,1.54928e-02,9.99999e-01
5.728177114e-01,1.68105e-02,9.99999e-01,9.99313e-01,1.68220e-02,9.99999e-01
5.756818000e-01,1.82242e-02,9.99999e-01,9.99371e-01,1.82357e-02,9.99999e-01
5.785602090e-01,1.97259e-02,9.99999e-01,9.99453e-01,1.97366e-02,9.99999e-01
5.814530100e-01,2.13161e-02,9.99999e-01,9.99449e-01,2.13278e-02,9.99999e-01
5.843602750e-01,2.29967e-02,9.99999e-01,9.99338e-01,2.30119e-02,9.99999e-01
5.872820764e-01,2.46509e-02,9.99999e-01,9.94315e-01,2.47918e-02,9.99999e-01
5.902184868e-01,2.64882e-02,9.99999e-01,9.93180e-01,2.66701e-02,9.99999e-01
5.931695792e-01,2.85108e-02,9.99999e-01,9.95163e-01,2.86494e-02,9.99999e-01
5.961354271e-01,3.05695e-02,9.99999e-01,9.94711e-01,3.07320e-02,9.99999e-01
5.991161043e-01,3.27935e-02,9.99999e-01,9.96145e-01,3.29204e-02,9.99999e-01
6.021116848e-01,3.51397e-02,9.99999e-01,9.97813e-01,3.52167e-02,9.99999e-01
6.051222432e-01,3.75814e-02,9.99999e-01,9.98893e-01,3.76230e-02,9.99999e-01
6.081478544e-01,4.01222e-02,9.99999e-01,9.99522e-01,4.01413e-02,9.99999e-01
6.111885937e-01,4.27649e-02,9.99999e-01,9.99798e-01,4.27735e-02,9.99999e-01
6.142445367e-01,4.55169e-02,9.99999e-01,9.99909e-01,4.55210e-02,9.99999e-01
6.173157594e-01,4.83832e-02,9.99999e-01,9.99949e-01,4.83856e-02,9.99999e-01
6.204023382e-01,5.13662e-02,9.99999e-01,9.99957e-01,5.13684e-02,9.99999e-01
6.235043498e-01,5.44604e-02,9.99999e-01,9.99810e-01,5.44707e-02,9.99999e-01
6.266218716e-01,5.76366e-02,9.99999e-01,9.99013e-01,5.76935e-02,9.99999e-01
6.297549810e-01,6.10155e-02,9.99999e-01,9.99637e-01,6.10376e-02,9.99999e-01
6.329037559e-01,6.44578e-02,9.99999e-01,9.99287e-01,6.45038e-02,9.99999e-01
6.360682746e-01,6.80509e-02,9.99999e-01,9.99390e-01,6.80924e-02,9.99999e-01
6.392486160e-01,7.17473e-02,9.99999e-01,9.99211e-01,7.18039e-02,9.99999e-01
6.424448591e-01,7.55578e-02,9.99999e-01,9.98935e-01,7.56383e-02,9.99999e-01
6.456570834e-01,7.92031e-02,9.99999e-01,9.95067e-01,7.95957e-02,9.99999e-01
6.488853688e-01,8.33770e-02,9.99999e-01,9.96429e-01,8.36757e-02,9.99999e-01
6.521297956e-01,8.75584e-02,9.99999e-01,9.96360e-01,8.78781e-02,9.99999e-01
6.553904446e-01,9.18666e-02,9.99999e-01,9.96358e-01,9.22023e-02,9.99999e-01
6.586673968e-01,9.63475e-02,9.99999e-01,9.96895e-01,9.66475e-02,9.99999e-01
6.619607338e-01,1.01038e-01,9.99999e-01,9.98269e-01,1.01213e-01,9.99999e-01
6.652705375e-01,1.05787e-01,9.99999e-01,9.98961e-01,1.05897e-01,9.99999e-01
6.685968902e-01,1.10651e-01,9.99999e-01,9.99558e-01,1.10700e-01,9.99999e-01
6.719398746e-01,1.15592e-01,9.99999e-01,9.99776e-01,1.15618e-01,9.99999e-01
6.752995740e-01,1.20638e-01,9.99999e-01,9.99881e-01,1.20652e-01,9.99999e-01
6.786760719e-01,1.25776e-01,9.99999e-01,9.99822e-01,1.25799e-01,9.99999e-01
6.820694522e-01,1.31017e-01,9.99999e-01,9.99695e-01,1.31057e-01,9.99999e-01
6.854797995e-01,1.36371e-01,9.99999e-01,9.99611e-01,1.36424e-01,9.99999e-01
6.889071985e-01,1.41764e-01,9.99999e-01,9.99044e-01,1.41899e-01,9.99999e-01
6.923517345e-01,1.45217e-01,9.99999e-01,9.84660e-01,1.47479e-01,9.99999e-01
6.958134932e-01,1.51963e-01,9.99999e-01,9.92172e-01,1.53162e-01,9.99999e-01
6.992925606e-01,1.57736e-01,9.99999e-01,9.92397e-01,1.58944e-01,9.99999e-01
7.027890234e-01,1.63292e-01,9.99999e-01,9.90699e-01,1.64825e-01,9.99999e-01
7.063029686e-01,1.69462e-01,9.99999e-01,9.92167e-01,1.70800e-01,9.99999e-01
7.098344834e-01,1.75538e-01,9.99999e-01,9.92483e-01,1.76868e-01,9.99999e-01
7.133836558e-01,1.81170e-01,9.99999e-01,9.89864e-01,1.83025e-01,9.99999e-01
7.169505741e-01,1.74491e-01,9.99999e-01,9.21927e-01,1.89268e-01,9.99998e-01
7.205353270e-01,1.88108e-01,9.99999e-01,9.61727e-01,1.95594e-01,9.99998e-01
7.241380036e-01,1.92064e-01,9.99999e-01,9.50809e-01,2.02001e-01,9.99998e-01
7.277586936e-01,1.99219e-01,9.99999e-01,9.55554e-01,2.08485e-01,9.99998e-01
7.313974871e-01,2.04955e-01,9.99999e-01,9.53089e-01,2.15043e-01,9.99998e-01
7.350544745e-01,2.15918e-01,9.99999e-01,9.74047e-01,2.21671e-01,9.99999e-01
7.387297469e-01,2.23993e-01,9.99999e-01,9.80848e-01,2.28367e-01,9.99999e-01
7.424233956e-01,2.32918e-01,9.99999e-01,9.90607e-01,2.35126e-01,9.99999e-01
7.461355126e-01,2.40565e-01,9.99999e-01,9.94289e-01,2.41947e-01,9.99999e-01
7.498661902e-01,2.48164e-01,9.99999e-01,9.97345e-01,2.48824e-01,9.99999e-01
7.536155211e-01,2.55422e-01,9.99999e-01,9.98693e-01,2.55756e-01,9.99999e-01
7.573835987e-01,2.62561e-01,9.99999e-01,9.99327e-01,2.62738e-01,9.99999e-01
7.611705167e-01,2.69654e-01,9.99999e-01,9.99581e-01,2.69766e-01,9.99999e-01
7.649763693e-01,2.76766e-01,9.99999e-01,9.99737e-01,2.76839e-01,9.99999e-01
7.688012511e-01,2.83900e-01,9.99999e-01,9.99816e-01,2.83952e-01,9.99999e-01
7.726452574e-01,2.91058e-01,9.99999e-01,9.99848e-01,2.91102e-01,9.99999e-01
7.765084837e-01,2.98220e-01,9.99999e-01,9.99783e-01,2.98285e-01,9.99999e-01
7.803910261e-01,2.88586e-01,9.45479e-01,9.99065e-01,3.05498e-01,9.99999e-01
7.842929812e-01,2.44191e-01,7.83181e-01,9.96741e-01,3.12738e-01,9.99999e-01
7.882144461e-01,2.44611e-01,7.69201e-01,9.93357e-01,3.20002e-01,9.99999e-01
7.921555184e-01,2.79058e-01,8.55630e-01,9.96373e-01,3.27285e-01,9.99999e-01
7.961162960e-01,2.99638e-01,9.01306e-01,9.93518e-01,3.34586e-01,9.99999e-01
8.000968774e-01,3.20737e-01,9.45095e-01,9.92562e-01,3.41901e-01,9.99999e-01
8.040973618e-01,3.36677e-01,9.71278e-01,9.92548e-01,3.49226e-01,9.99999e-01
8.081178486e-01,3.45894e-01,9.86653e-01,9.83173e-01,3.56559e-01,9.99999e-01
8.121584379e-01,3.37740e-01,9.95904e-01,9.31876e-01,3.63897e-01,9.99998e-01
8.162192301e-01,3.41421e-01,9.99093e-01,9.20496e-01,3.71236e-01,9.99998e-01
8.203003262e-01,3.63055e-01,9.99987e-01,9.59017e-01,3.78574e-01,9.99998e-01
8.244018279e-01,3.64579e-01,9.99999e-01,9.44733e-01,3.85907e-01,9.99998e-01
8.285238370e-01,3.74128e-01,9.99999e-01,9.51413e-01,3.93234e-01,9.99998e-01
8.326664562e-01,3.80972e-01,9.99999e-01,9.51121e-01,4.00551e-01,9.99998e-01
8.368297885e-01,3.93530e-01,9.99999e-01,9.64876e-01,4.07855e-01,9.99999e-01
8.410139374e-01,4.06423e-01,9.99999e-01,9.78990e-01,4.15145e-01,9.99999e-01
8.452190071e-01,4.18048e-01,9.99999e-01,9.89658e-01,4.22416e-01,9.99999e-01
8.494451021e-01,4.27075e-01,9.99999e-01,9.93964e-01,4.29668e-01,9.99999e-01
8.536923276e-01,4.35342e-01,9.99999e-01,9.96439e-01,4.36898e-01,9.99999e-01
8.579607893e-01,4.43126e-01,9.99999e-01,9.97799e-01,4.44103e-01,9.99999e-01
8.622505932e-01,4.50651e-01,9.99999e-01,9.98605e-01,4.51280e-01,9.99999e-01
8.665618462e-01,4.11316e-01,8.97965e-01,9.99133e-01,4.58429e-01,9.99999e-01
8.708946554e-01,2.51100e-01,5.39875e-01,9.99005e-01,4.65546e-01,9.99999e-01
8.752491287e-01,2.86160e-01,6.06233e-01,9.98671e-01,4.72630e-01,9.99999e-01
8.796253743e-01,3.62851e-01,7.57780e-01,9.98154e-01,4.79678e-01,9.99999e-01
8.840235012e-01,4.20253e-01,8.65271e-01,9.97893e-01,4.86690e-01,9.99999e-01
8.884436187e-01,4.62775e-01,9.44691e-01,9.92192e-01,4.93662e-01,9.99999e-01
8.928858368e-01,4.51080e-01,9.77155e-01,9.21850e-01,5.00594e-01,9.99998e-01
8.973502660e-01,4.37765e-01,9.94436e-01,8.67287e-01,5.07483e-01,9.99997e-01
9.018370173e-01,4.78296e-01,9.99387e-01,9.30487e-01,5.14328e-01,9.99997e-01
9.063462024e-01,4.81061e-01,9.83886e-01,9.37466e-01,5.21127e-01,9.99997e-01
9.108779334e-01,4.60770e-01,9.64116e-01,9.04706e-01,5.27879e-01,9.99996e-01
9.154323231e-01,4.73275e-01,9.91556e-01,8.92596e-01,5.34583e-01,9.99996e-01
9.200094847e-01,4.41677e-01,8.85358e-01,9.15140e-01,5.41237e-01,9.99995e-01
9.246095321e-01,4.00203e-01,8.36316e-01,8.69183e-01,5.47840e-01,9.99993e-01
9.292325798e-01,1.98318e-01,8.68672e-01,4.03031e-01,5.54391e-01,9.99985e-01
9.338787427e-01,1.57186e-01,8.73543e-01,3.14514e-01,5.60888e-01,9.99982e-01
9.385481364e-01,3.24352e-01,9.05140e-01,6.26238e-01,5.67331e-01,9.99981e-01
9.432408771e-01,2.83983e-01,9.40869e-01,5.23479e-01,5.73719e-01,9.99979e-01
9.479570815e-01,2.32502e-01,9.69141e-01,4.12555e-01,5.80050e-01,9.99982e-01
9.526968669e-01,2.95849e-01,9.85040e-01,5.11286e-01,5.86324e-01,9.99986e-01
9.574603512e-01,3.13948e-01,9.93580e-01,5.32907e-01,5.92539e-01,9.99989e-01
9.622476530e-01,3.57424e-01,9.97996e-01,5.98093e-01,5.98696e-01,9.99993e-01
9.670588912e-01,4.48782e-01,9.99400e-01,7.42452e-01,6.04794e-01,9.99995e-01
9.718941857e-01,5.06127e-01,9.99958e-01,8.28619e-01,6.10831e-01,9.99997e-01
9.767536566e-01,5.27615e-01,9.99999e-01,8.55397e-01,6.16808e-01,9.99997e-01
9.816374249e-01,5.54742e-01,9.99999e-01,8.90834e-01,6.22723e-01,9.99998e-01
9.865456120e-01,5.84759e-01,9.99999e-01,9.30291e-01,6.28576e-01,9.99998e-01
9.914783401e-01,6.06629e-01,9.99999e-01,9.56273e-01,6.34367e-01,9.99999e-01
9.964357318e-01,6.24703e-01,9.99999e-01,9.75952e-01,6.40096e-01,9.99999e-01
1.001417910e+00,6.36415e-01,9.99999e-01,9.85525e-01,6.45762e-01,9.99999e-01
1.006425000e+00,6.45961e-01,9.99999e-01,9.91704e-01,6.51364e-01,9.99999e-01
1.011457125e+00,6.53525e-01,9.99999e-01,9.94857e-01,6.56903e-01,9.99999e-01
1.016514411e+00,6.60061e-01,9.99999e-01,9.96501e-01,6.62378e-01,9.99999e-01
1.021596983e+00,6.65861e-01,9.99901e-01,9.97209e-01,6.67789e-01,9.99999e-01
1.026704968e+00,6.67399e-01,9.93635e-01,9.97821e-01,6.73137e-01,9.99999e-01
1.031838492e+00,6.32362e-01,9.33520e-01,9.98419e-01,6.78420e-01,9.99999e-01
1.036997685e+00,6.42057e-02,9.39856e-02,9.99059e-01,6.83639e-01,9.99999e-01
1.042182673e+00,2.46571e-02,3.58313e-02,9.98873e-01,6.88794e-01,9.99999e-01
1.047393587e+00,3.88788e-02,5.61027e-02,9.98509e-01,6.93885e-01,9.99999e-01
1.052630555e+00,1.68535e-04,2.41477e-04,9.97952e-01,6.98912e-01,9.99999e-01
1.057893707e+00,5.59633e-04,7.96720e-04,9.96578e-01,7.03875e-01,9.99999e-01
1.063183176e+00,3.47682e-03,4.92343e-03,9.94381e-01,7.08774e-01,9.99999e-01
1.068499092e+00,1.53893e-02,2.17231e-02,9.90622e-01,7.13610e-01,9.99999e-01
1.073841587e+00,6.28264e-02,8.82335e-02,9.89012e-01,7.18382e-01,9.99999e-01
1.079210795e+00,1.53694e-01,2.15161e-01,9.85988e-01,7.23091e-01,9.99999e-01
1.084606849e+00,3.03896e-01,4.25976e-01,9.78827e-01,7.27736e-01,9.99998e-01
1.090029883e+00,4.55623e-01,6.40832e-01,9.69536e-01,7.32319e-01,9.99998e-01
1.095480033e+00,5.44877e-01,8.03167e-01,9.19346e-01,7.36839e-01,9.99997e-01
1.100957433e+00,5.39912e-01,8.99572e-01,8.08180e-01,7.41298e-01,9.99995e-01
1.106462220e+00,4.18984e-01,9.57229e-01,5.85520e-01,7.45694e-01,9.99991e-01
1.111994531e+00,2.44342e-01,9.83921e-01,3.30516e-01,7.50028e-01,9.99983e-01
1.117554504e+00,1.28558e-01,9.96073e-01,1.70927e-01,7.54302e-01,9.99977e-01
1.123142276e+00,2.16898e-01,9.99743e-01,2.85981e-01,7.58515e-01,9.99972e-01
1.128757988e+00,3.31822e-01,9.99999e-01,4.35093e-01,7.62667e-01,9.99970e-01
1.134401778e+00,1.66069e-01,9.99999e-01,2.16592e-01,7.66760e-01,9.99967e-01
1.140073787e+00,4.64016e-01,9.99999e-01,6.02014e-01,7.70792e-01,9.99973e-01
1.145774156e+00,2.76771e-01,9.99999e-01,3.57239e-01,7.74766e-01,9.99977e-01
1.151503026e+00,2.49159e-01,9.99999e-01,3.19981e-01,7.78682e-01,9.99980e-01
1.157260541e+00,2.93784e-01,9.99999e-01,3.75429e-01,7.82539e-01,9.99985e-01
1.163046844e+00,3.80474e-01,9.99999e-01,4.83860e-01,7.86338e-01,9.99990e-01
1.168862078e+00,4.74500e-01,9.99999e-01,6.00574e-01,7.90080e-01,9.99994e-01
1.174706389e+00,5.79263e-01,9.99999e-01,7.29767e-01,7.93766e-01,9.99997e-01
1.180579921e+00,6.58023e-01,9.99999e-01,8.25215e-01,7.97396e-01,9.99997e-01
1.186482820e+00,7.18329e-01,9.99984e-01,8.96837e-01,8.00969e-01,9.99998e-01
1.192415234e+00,7.38266e-01,9.77586e-01,9.38334e-01,8.04488e-01,9.99998e-01
1.198377311e+00,4.21083e-01,5.45049e-01,9.47684e-01,8.07953e-01,9.99998e-01
1.204369197e+00,3.66548e-17,4.65224e-17,9.50513e-01,8.11363e-01,9.99998e-01
1.210391043e+00,2.82667e-66,3.56439e-66,9.52610e-01,8.14720e-01,9.99998e-01
1.216442998e+00,1.71365e-57,2.14912e-57,9.59631e-01,8.18025e-01,9.99999e-01
1.222525213e+00,1.21707e-56,1.50667e-56,9.68389e-01,8.21277e-01,9.99999e-01
1.228637839e+00,7.73762e-44,9.52860e-44,9.77927e-01,8.24477e-01,9.99999e-01
1.234781029e+00,1.00564e-27,1.22382e-27,9.83585e-01,8.27626e-01,9.99999e-01
1.240954934e+00,1.45240e-18,1.75999e-18,9.89580e-01,8.30725e-01,9.99999e-01
1.247159708e+00,1.43830e-09,1.73337e-09,9.91884e-01,8.33773e-01,9.99999e-01
1.253395507e+00,2.28134e-06,2.74064e-06,9.92780e-01,8.36773e-01,9.99999e-01
1.259662485e+00,5.41424e-04,6.48145e-04,9.93125e-01,8.39723e-01,9.99999e-01
1.265960797e+00,1.29407e-02,1.54793e-02,9.89061e-01,8.42626e-01,9.99999e-01
1.272290601e+00,1.32350e-01,1.58923e-01,9.82808e-01,8.45480e-01,9.99999e-01
1.278652054e+00,1.10270e-01,1.33300e-01,9.66135e-01,8.48288e-01,9.99998e-01
1.285045314e+00,7.99623e-04,9.64122e-04,9.39393e-01,8.51050e-01,9.99998e-01
1.291470541e+00,2.31702e-08,2.89640e-08,8.96810e-01,8.53765e-01,9.99997e-01
1.297927893e+00,1.06499e-03,1.33272e-03,8.56641e-01,8.56436e-01,9.99995e-01
1.304417533e+00,2.52751e-02,3.43074e-02,8.33852e-01,8.59061e-01,9.99992e-01
1.310939621e+00,4.23768e-03,5.53766e-03,7.94783e-01,8.61643e-01,9.99987e-01
1.317494319e+00,2.38762e-23,3.13788e-23,7.98438e-01,8.64181e-01,9.99979e-01
1.324081790e+00,1.86381e-11,2.49939e-11,7.17993e-01,8.66676e-01,9.99967e-01
1.330702199e+00,1.94222e-09,3.94399e-09,2.99800e-01,8.69129e-01,9.99945e-01
1.337355710e+00,1.26941e-09,1.27130e-08,4.01982e-02,8.71541e-01,9.99896e-01
1.344042489e+00,1.73526e-10,4.67265e-09,1.43040e-03,8.73911e-01,9.99778e-01
1.350762701e+00,1.75765e-15,2.23521e-09,1.47626e-07,8.76240e-01,9.99646e-01
1.357516515e+00,4.16815e-15,4.41949e-06,1.09467e-10,8.78530e-01,9.99562e-01
1.364304097e+00,3.97479e-10,2.24754e-04,6.22317e-07,8.80780e-01,9.99531e-01
1.371125618e+00,2.18243e-06,1.33067e-02,8.69695e-05,8.82991e-01,9.99526e-01
1.377981246e+00,1.01435e-05,2.61885e-02,2.61209e-04,8.85165e-01,9.99491e-01
1.384871152e+00,4.15675e-07,1.20059e-01,2.66567e-06,8.87300e-01,9.99506e-01
1.391795508e+00,1.41559e-07,1.41402e-01,7.24658e-07,8.89398e-01,9.99581e-01
1.398754485e+00,3.50746e-06,2.96259e-01,1.16258e-05,8.91459e-01,9.99640e-01
1.405748258e+00,4.56160e-06,4.10333e-01,1.05883e-05,8.93485e-01,9.99677e-01
1.412776999e+00,6.25161e-06,5.68868e-01,1.05456e-05,8.95475e-01,9.99740e-01
1.419840884e+00,1.29755e-05,5.04668e-01,2.15028e-05,8.97430e-01,9.99806e-01
1.426940089e+00,9.46104e-05,3.07524e-02,2.85536e-04,8.99350e-01,9.99879e-01
1.434074789e+00,0.00000e+00,0.00000e+00,1.71629e-03,9.01236e-01,9.99924e-01
1.441245163e+00,0.00000e+00,0.00000e+00,5.96286e-03,9.03090e-01,9.99941e-01
1.448451389e+00,0.00000e+00,0.00000e+00,2.81905e-02,9.04910e-01,9.99951e-01
1.455693646e+00,0.00000e+00,0.00000e+00,8.88527e-02,9.06697e-01,9.99959e-01
1.462972114e+00,1.16515e-262,4.91000e-262,1.18184e-01,9.08453e-01,9.99965e-01
1.470286975e+00,8.60293e-110,4.02466e-109,8.42619e-02,9.10178e-01,9.99969e-01
