#,Wave/freq,Total,CO2,H2O,Rayleigh,CIA
4.000000000e-01,7.03431e-10,9.99999e-01,9.99958e-01,7.03460e-10,9.99999e-01
4.020000000e-01,1.06710e-09,9.99999e-01,9.99973e-01,1.06712e-09,9.99999e-01
4.040100000e-01,1.60482e-09,9.99999e-01,9.99988e-01,1.60483e-09,9.99999e-01
4.060300500e-01,2.39411e-09,9.99999e-01,9.99997e-01,2.39411e-09,9.99999e-01
4.080602003e-01,3.54346e-09,9.99999e-01,9.99998e-01,3.54346e-09,9.99999e-01
4.101005013e-01,5.20412e-09,9.99999e-01,9.99999e-01,5.20412e-09,9.99999e-01
4.121510038e-01,7.58524e-09,9.99999e-01,9.99997e-01,7.58526e-09,9.99999e-01
4.142117588e-01,1.09738e-08,9.99999e-01,9.99988e-01,1.09739e-08,9.99999e-01
4.162828176e-01,1.57602e-08,9.99999e-01,9.99948e-01,1.57610e-08,9.99999e-01
4.183642317e-01,2.24744e-08,9.99999e-01,9.99969e-01,2.24750e-08,9.99999e-01
4.204560528e-01,3.18248e-08,9.99999e-01,9.99980e-01,3.18254e-08,9.99999e-01
4.225583331e-01,4.47568e-08,9.99999e-01,9.99992e-01,4.47571e-08,9.99999e-01
4.246711247e-01,6.25207e-08,9.99999e-01,9.99993e-01,6.25210e-08,9.99999e-01
4.267944804e-01,8.67598e-08,9.99999e-01,9.99991e-01,8.67605e-08,9.99999e-01
4.289284528e-01,1.19620e-07,9.99999e-01,9.99993e-01,1.19621e-07,9.99999e-01
4.310730950e-01,1.63884e-07,9.99999e-01,9.99996e-01,1.63885e-07,9.99999e-01
4.332284605e-01,2.23135e-07,9.99999e-01,9.99998e-01,2.23135e-07,9.99999e-01
4.353946028e-01,3.01960e-07,9.99999e-01,9.99999e-01,3.01961e-07,9.99999e-01
4.375715758e-01,4.06196e-07,9.99999e-01,9.99994e-01,4.06198e-07,9.99999e-01
4.397594337e-01,5.43202e-07,9.99999e-01,9.99954e-01,5.43226e-07,9.99999e-01
4.419582309e-01,7.22157e-07,9.99999e-01,9.99771e-01,7.22321e-07,9.99999e-01
4.441680220e-01,9.54901e-07,9.99999e-01,9.99821e-01,9.55071e-07,9.99999e-01
4.463888621e-01,1.25564e-06,9.99999e-01,9.99814e-01,1.25587e-06,9.99999e-01
4.486208064e-01,1.64231e-06,9.99999e-01,9.99884e-01,1.64250e-06,9.99999e-01
4.508639105e-01,2.13668e-06,9.99999e-01,9.99945e-01,2.13680e-06,9.99999e-01
4.531182300e-01,2.76538e-06,9.99999e-01,9.99978e-01,2.76544e-06,9.99999e-01
4.553838212e-01,3.56080e-06,9.99999e-01,9.99985e-01,3.56085e-06,9.99999e-01
4.576607403e-01,4.56216e-06,9.99999e-01,9.99992e-01,4.56219e-06,9.99999e-01
4.599490440e-01,5.81656e-06,9.99999e-01,9.99994e-01,5.81659e-06,9.99999e-01
4.622487892e-01,7.38038e-06,9.99999e-01,9.99998e-01,7.38039e-06,9.99999e-01
4.645600332e-01,9.32064e-06,9.99999e-01,9.99996e-01,9.32067e-06,9.99999e-01
4.668828333e-01,1.17163e-05,9.99999e-01,9.99945e-01,1.17169e-05,9.99999e-01
4.692172475e-01,1.46611e-05,9.99999e-01,9.99883e-01,1.46628e-05,9.99999e-01
4.715633337e-01,1.82668e-05,9.99999e-01,9.99923e-01,1.82682e-05,9.99999e-01
4.739211504e-01,2.26599e-05,9.99999e-01,9.99926e-01,2.26615e-05,9.99999e-01
4.762907561e-01,2.79909e-05,9.99999e-01,9.99961e-01,2.79920e-05,9.99999e-01
4.786722099e-01,3.44317e-05,9.99999e-01,9.99984e-01,3.44323e-05,9.99999e-01
4.810655710e-01,4.21813e-05,9.99999e-01,9.99994e-01,4.21815e-05,9.99999e-01
4.834708988e-01,5.14656e-05,9.99999e-01,9.99955e-01,5.14679e-05,9.99999e-01
4.858882533e-01,6.25473e-05,9.99999e-01,9.99917e-01,6.25524e-05,9.99999e-01
4.883176946e-01,7.57267e-05,9.99999e-01,9.99930e-01,7.57319e-05,9.99999e-01
4.907592831e-01,9.13369e-05,9.99999e-01,9.99937e-01,9.13425e-05,9.99999e-01
4.932130795e-01,1.09759e-04,9.99999e-01,9.99955e-01,1.09764e-04,9.99999e-01
4.956791449e-01,1.31420e-04,9.99999e-01,9.99976e-01,1.31423e-04,9.99999e-01
4.981575406e-01,1.56778e-04,9.99999e-01,9.99882e-01,1.56797e-04,9.99999e-01
5.006483283e-01,1.86362e-04,9.99999e-01,9.99697e-01,1.86418e-04,9.99999e-01
5.031515699e-01,2.20541e-04,9.99999e-01,9.98466e-01,2.20879e-04,9.99999e-01
5.056673278e-01,2.60625e-04,9.99999e-01,9.99190e-01,2.60836e-04,9.99999e-01
5.081956644e-01,3.06697e-04,9.99999e-01,9.98978e-01,3.07010e-04,9.99999e-01
5.107366428e-01,3.59949e-04,9.99999e-01,9.99310e-01,3.60197e-04,9.99999e-01
5.132903260e-01,4.21101e-04,9.99999e-01,9.99605e-01,4.21267e-04,9.99999e-01
5.158567776e-01,4.91087e-04,9.99999e-01,9.99833e-01,4.91168e-04,9.99999e-01
5.184360615e-01,5.70897e-04,9.99999e-01,9.99932e-01,5.70935e-04,9.99999e-01
5.210282418e-01,6.61670e-04,9.99999e-01,9.99974e-01,6.61686e-04,9.99999e-01
5.236333830e-01,7.64555e-04,9.99999e-01,9.99899e-01,7.64631e-04,9.99999e-01
5.262515499e-01,8.81017e-04,9.99999e-01,9.99937e-01,8.81073e-04,9.99999e-01
5.288828077e-01,1.01235e-03,9.99999e-01,9.99942e-01,1.01241e-03,9.99999e-01
5.315272217e-01,1.16007e-03,9.99999e-01,9.99949e-01,1.16013e-03,9.99999e-01
5.341848578e-01,1.32579e-03,9.99999e-01,9.99966e-01,1.32584e-03,9.99999e-01
5.368557821e-01,1.51105e-03,9.99999e-01,9.99883e-01,1.51122e-03,9.99999e-01
5.395400610e-01,1.71736e-03,9.99999e-01,9.99579e-01,1.71808e-03,9.99999e-01
5.422377613e-01,1.94725e-03,9.99999e-01,9.99456e-01,1.94831e-03,9.99999e-01
5.449489501e-01,2.20280e-03,9.99999e-01,9.99494e-01,2.20391e-03,9.99999e-01
5.476736949e-01,2.48587e-03,9.99999e-01,9.99552e-01,2.48698e-03,9.99999e-01
5.504120634e-01,2.79881e-03,9.99999e-01,9.99675e-01,2.79972e-03,9.99999e-01
5.531641237e-01,3.14390e-03,9.99999e-01,9.99836e-01,3.14442e-03,9.99999e-01
5.559299443e-01,3.52319e-03,9.99999e-01,9.99920e-01,3.52347e-03,9.99999e-01
5.587095940e-01,3.93915e-03,9.99999e-01,9.99950e-01,3.93934e-03,9.99999e-01
5.615031420e-01,4.39436e-03,9.99999e-01,9.99944e-01,4.39460e-03,9.99999e-01
5.643106577e-01,4.89160e-03,9.99999e-01,9.99937e-01,4.89190e-03,9.99999e-01
5.671322110e-01,5.42984e-03,9.99999e-01,9.99241e-01,5.43396e-03,9.99999e-01
5.699678720e-01,6.01871e-03,9.99999e-01,9.99192e-01,6.02356e-03,9.99999e-01
5.728177114e-01,6.65798e-03,9.99999e-01,9.99160e-01,6.66357e-03,9.99999e-01
5.756818000e-01,7.35122e-03,9.99999e-01,9.99229e-01,7.35689e-03,9.99999e-01
5.785602090e-01,8.10103e-03,9.99999e-01,9.99327e-01,8.10648e-03,9.99999e-01
5.814530100e-01,8.90933e-03,9.99999e-01,9.99324e-01,8.91534e-03,9.99999e-01
5.843602750e-01,9.77864e-03,9.99999e-01,9.99195e-01,9.78651e-03,9.99999e-01
5.872820764e-01,1.06489e-02,9.99999e-01,9.93087e-01,1.07230e-02,9.99999e-01
5.902184868e-01,1.16298e-02,9.99999e-01,9.91623e-01,1.17280e-02,9.99999e-01
5.931695792e-01,1.27287e-02,9.99999e-01,9.94079e-01,1.28045e-02,9.99999e-01
5.961354271e-01,1.38649e-02,9.99999e-01,9.93508e-01,1.39555e-02,9.99999e-01
5.991161043e-01,1.51123e-02,9.99999e-01,9.95261e-01,1.51842e-02,9.99999e-01
6.021116848e-01,1.64492e-02,9.99999e-01,9.97308e-01,1.64935e-02,9.99999e-01
6.051222432e-01,1.78622e-02,9.99999e-01,9.98637e-01,1.78865e-02,9.99999e-01
6.081478544e-01,1.93548e-02,9.99999e-01,9.99411e-01,1.93661e-02,9.99999e-01
6.111885937e-01,2.09300e-02,9.99999e-01,9.99750e-01,2.09353e-02,9.99999e-01
6.142445367e-01,2.25942e-02,9.99999e-01,9.99888e-01,2.25967e-02,9.99999e-01
6.173157594e-01,2.43517e-02,9.99999e-01,9.99938e-01,2.43532e-02,9.99999e-01
6.204023382e-01,2.62062e-02,9.99999e-01,9.99947e-01,2.62075e-02,9.99999e-01
6.235043498e-01,2.81558e-02,9.99999e-01,9.99771e-01,2.81622e-02,9.99999e-01
6.266218716e-01,3.01831e-02,9.99999e-01,9.98791e-01,3.02196e-02,9.99999e-01
6.297549810e-01,3.23679e-02,9.99999e-01,9.99556e-01,3.23823e-02,9.99999e-01
6.329037559e-01,3.46220e-02,9.99999e-01,9.99123e-01,3.46523e-02,9.99999e-01
6.360682746e-01,3.70043e-02,9.99999e-01,9.99253e-01,3.70319e-02,9.99999e-01
6.392486160e-01,3.94848e-02,9.99999e-01,9.99033e-01,3.95230e-02,9.99999e-01
6.424448591e-01,4.20731e-02,9.99999e-01,9.98706e-01,4.21275e-02,9.99999e-01
6.456570834e-01,4.45784e-02,9.99999e-01,9.94007e-01,4.48471e-02,9.99999e-01
6.488853688e-01,4.74739e-02,9.99999e-01,9.95608e-01,4.76832e-02,9.99999e-01
6.521297956e-01,5.04108e-02,9.99999e-01,9.95524e-01,5.06374e-02,9.99999e-01
6.553904446e-01,5.34715e-02,9.99999e-01,9.95544e-01,5.37108e-02,9.99999e-01
6.586673968e-01,5.66872e-02,9.99999e-01,9.96182e-01,5.69044e-02,9.99999e-01
6.619607338e-01,6.00862e-02,9.99999e-01,9.97791e-01,6.02192e-02,9.99999e-01
6.652705375e-01,6.35744e-02,9.99999e-01,9.98721e-01,6.36558e-02,9.99999e-01
6.685968902e-01,6.71749e-02,9.99999e-01,9.99405e-01,6.72148e-02,9.99999e-01
6.719398746e-01,7.08771e-02,9.99999e-01,9.99724e-01,7.08966e-02,9.99999e-01
6.752995740e-01,7.46902e-02,9.99999e-01,9.99850e-01,7.47014e-02,9.99999e-01
6.786760719e-01,7.86121e-02,9.99999e-01,9.99784e-01,7.86291e-02,9.99999e-01
6.820694522e-01,8.26491e-02,9.99999e-01,9.99631e-01,8.26795e-02,9.99999e-01
6.854797995e-01,8.68112e-02,9.99999e-01,9.99524e-01,8.68524e-02,9.99999e-01
6.889071985e-01,9.10425e-02,9.99999e-01,9.98849e-01,9.11473e-02,9.99999e-01
6.923517345e-01,9.37824e-02,9.99999e-01,9.81363e-01,9.55634e-02,9.99999e-01
6.958134932e-01,9.91254e-02,9.99999e-01,9.90265e-01,1.00100e-01,9.99999e-01
6.992925606e-01,1.03787e-01,9.99999e-01,9.90749e-01,1.04756e-01,9.99999e-01
7.027890234e-01,1.08279e-01,9.99999e-01,9.88585e-01,1.09529e-01,9.99999e-01
7.063029686e-01,1.13321e-01,9.99999e-01,9.90394e-01,1.14420e-01,9.99999e-01
7.098344834e-01,1.18325e-01,9.99999e-01,9.90781e-01,1.19426e-01,9.99999e-01
7.133836558e-01,1.23019e-01,9.99999e-01,9.87742e-01,1.24546e-01,9.99999e-01
7.169505741e-01,1.17561e-01,9.99999e-01,9.05868e-01,1.29777e-01,9.99998e-01
7.205353270e-01,1.28727e-01,9.99999e-01,9.52694e-01,1.35119e-01,9.99998e-01
7.241380036e-01,1.32173e-01,9.99999e-01,9.40278e-01,1.40568e-01,9.99998e-01
7.277586936e-01,1.38225e-01,9.99999e-01,9.45953e-01,1.46122e-01,9.99998e-01
7.313974871e-01,1.43060e-01,9.99999e-01,9.42542e-01,1.51780e-01,9.99998e-01
7.350544745e-01,1.52527e-01,9.99999e-01,9.68184e-01,1.57539e-01,9.99999e-01
7.387297469e-01,1.59553e-01,9.99999e-01,9.76477e-01,1.63396e-01,9.99999e-01
7.424233956e-01,1.67388e-01,9.99999e-01,9.88420e-01,1.69349e-01,9.99999e-01
7.461355126e-01,1.74161e-01,9.99999e-01,9.92967e-01,1.75395e-01,9.99999e-01
7.498661902e-01,1.80935e-01,9.99999e-01,9.96720e-01,1.81530e-01,9.99999e-01
7.536155211e-01,1.87451e-01,9.99999e-01,9.98390e-01,1.87753e-01,9.99999e-01
7.573835987e-01,1.93899e-01,9.99999e-01,9.99170e-01,1.94059e-01,9.99999e-01
7.611705167e-01,2.00344e-01,9.99999e-01,9.99484e-01,2.00447e-01,9.99999e-01
7.649763693e-01,2.06846e-01,9.99999e-01,9.99676e-01,2.06913e-01,9.99999e-01
7.688012511e-01,2.13405e-01,9.99999e-01,9.99774e-01,2.13453e-01,9.99999e-01
7.726452574e-01,2.20024e-01,9.99999e-01,9.99814e-01,2.20064e-01,9.99999e-01
7.765084837e-01,2.26685e-01,9.99999e-01,9.99736e-01,2.26744e-01,9.99999e-01
7.803910261e-01,2.18814e-01,9.38152e-01,9.98864e-01,2.33489e-01,9.99999e-01
7.842929812e-01,1.77651e-01,7.41982e-01,9.96042e-01,2.40295e-01,9.99999e-01
7.882144461e-01,1.78601e-01,7.28116e-01,9.91859e-01,2.47159e-01,9.99999e-01
7.921555184e-01,2.09156e-01,8.26728e-01,9.95528e-01,2.54078e-01,9.99999e-01
7.961162960e-01,2.27876e-01,8.79742e-01,9.92112e-01,2.61048e-01,9.99999e-01
8.000968774e-01,2.47802e-01,9.32858e-01,9.90888e-01,2.68065e-01,9.99999e-01
8.040973618e-01,2.62981e-01,9.64605e-01,9.90887e-01,2.75128e-01,9.99999e-01
8.081178486e-01,2.71948e-01,9.83588e-01,9.79585e-01,2.82231e-01,9.99999e-01
8.121584379e-01,2.64246e-01,9.94903e-01,9.17754e-01,2.89372e-01,9.99998e-01
8.162192301e-01,2.67541e-01,9.98872e-01,9.03167e-01,2.96548e-01,9.99998e-01
8.203003262e-01,2.88842e-01,9.99982e-01,9.50921e-01,3.03754e-01,9.99998e-01
8.244018279e-01,2.89912e-01,9.99999e-01,9.32231e-01,3.10988e-01,9.99997e-01
8.285238370e-01,2.99456e-01,9.99999e-01,9.40958e-01,3.18246e-01,9.99998e-01
8.326664562e-01,3.06111e-01,9.99999e-01,9.40360e-01,3.25525e-01,9.99998e-01
8.368297885e-01,3.18496e-01,9.99999e-01,9.56954e-01,3.32822e-01,9.99999e-01
8.410139374e-01,3.31356e-01,9.99999e-01,9.74191e-01,3.40134e-01,9.99999e-01
8.452190071e-01,3.43030e-01,9.99999e-01,9.87259e-01,3.47457e-01,9.99999e-01
8.494451021e-01,3.52160e-01,9.99999e-01,9.92590e-01,3.54788e-01,9.99999e-01
8.536923276e-01,3.60536e-01,9.99999e-01,9.95612e-01,3.62125e-01,9.99999e-01
8.579607893e-01,3.68465e-01,9.99999e-01,9.97296e-01,3.69464e-01,9.99999e-01
8.622505932e-01,3.76155e-01,9.99999e-01,9.98281e-01,3.76802e-01,9.99999e-01
8.665618462e-01,3.42104e-01,8.91471e-01,9.98936e-01,3.84137e-01,9.99999e-01
8.708946554e-01,1.85906e-01,4.75440e-01,9.98782e-01,3.91466e-01,9.99999e-01
8.752491287e-01,2.16294e-01,5.43219e-01,9.98372e-01,3.98785e-01,9.99999e-01
8.796253743e-01,2.88333e-01,7.11530e-01,9.97746e-01,4.06093e-01,9.99999e-01
8.840235012e-01,3.45060e-01,8.36806e-01,9.97426e-01,4.13386e-01,9.99999e-01
8.884436187e-01,3.88455e-01,9.31976e-01,9.90656e-01,4.20663e-01,9.99999e-01
8.928858368e-01,3.76980e-01,9.71836e-01,9.06041e-01,4.27920e-01,9.99998e-01
8.973502660e-01,3.63126e-01,9.93086e-01,8.40052e-01,4.35155e-01,9.99997e-01
9.018370173e-01,4.04419e-01,9.99235e-01,9.14878e-01,4.42366e-01,9.99997e-01
9.063462024e-01,4.08145e-01,9.80737e-01,9.24619e-01,4.49550e-01,9.99996e-01
9.108779334e-01,3.86793e-01,9.55976e-01,8.84968e-01,4.56706e-01,9.99996e-01
9.154323231e-01,3.99556e-01,9.89484e-01,8.70196e-01,4.63831e-01,9.99996e-01
9.200094847e-01,3.69676e-01,8.66198e-01,8.96954e-01,4.70923e-01,9.99995e-01
9.246095321e-01,3.26876e-01,8.02767e-01,8.46041e-01,4.77980e-01,9.99991e-01
9.292325798e-01,1.41946e-01,8.43188e-01,3.37155e-01,4.85001e-01,9.99983e-01
9.338787427e-01,1.05855e-01,8.47125e-01,2.47079e-01,4.91983e-01,9.99978e-01
9.385481364e-01,2.53341e-01,8.84765e-01,5.66860e-01,4.98924e-01,9.99977e-01
9.432408771e-01,2.18525e-01,9.27597e-01,4.62457e-01,5.05823e-01,9.99975e-01
9.479570815e-01,1.71991e-01,9.62160e-01,3.47456e-01,5.12679e-01,9.99978e-01
9.526968669e-01,2.27396e-01,9.81583e-01,4.44756e-01,5.19490e-01,9.99983e-01
9.574603512e-01,2.43369e-01,9.92080e-01,4.65700e-01,5.26254e-01,9.99987e-01
9.622476530e-01,2.83805e-01,9.97523e-01,5.33674e-01,5.32969e-01,9.99991e-01
9.670588912e-01,3.74829e-01,9.99257e-01,6.95066e-01,5.39635e-01,9.99994e-01
9.718941857e-01,4.33894e-01,9.99947e-01,7.94350e-01,5.46251e-01,9.99996e-01
9.767536566e-01,4.56576e-01,9.99999e-01,8.25913e-01,5.52814e-01,9.99997e-01
9.816374249e-01,4.85248e-01,9.99999e-01,8.67561e-01,5.59325e-01,9.99998e-01
9.865456120e-01,5.17664e-01,9.99999e-01,9.14954e-01,5.65781e-01,9.99998e-01
9.914783401e-01,5.41568e-01,9.99999e-01,9.46496e-01,5.72182e-01,9.99999e-01
9.964357318e-01,5.61460e-01,9.99999e-01,9.70499e-01,5.78527e-01,9.99999e-01
1.001417910e+00,5.74412e-01,9.99999e-01,9.82211e-01,5.84814e-01,9.99999e-01
1.006425000e+00,5.85029e-01,9.99999e-01,9.89821e-01,5.91044e-01,9.99999e-01
1.011457125e+00,5.93436e-01,9.99999e-01,9.93671e-01,5.97215e-01,9.99999e-01
1.016514411e+00,6.00733e-01,9.99999e-01,9.95699e-01,6.03327e-01,9.99999e-01
1.021596983e+00,6.07228e-01,9.99896e-01,9.96572e-01,6.09379e-01,9.99999e-01
1.026704968e+00,6.09066e-01,9.92401e-01,9.97325e-01,6.15370e-01,9.99999e-01
1.031838492e+00,5.75866e-01,9.28598e-01,9.98055e-01,6.21300e-01,9.99999e-01
1.036997685e+00,4.96526e-02,7.92392e-02,9.98844e-01,6.27169e-01,9.99999e-01
1.042182673e+00,1.17846e-02,1.86388e-02,9.98622e-01,6.32975e-01,9.99999e-01
1.047393587e+00,2.22048e-02,3.48189e-02,9.98174e-01,6.38719e-01,9.99999e-01
1.052630555e+00,3.62033e-05,5.62751e-05,9.97495e-01,6.44400e-01,9.99999e-01
1.057893707e+00,1.26480e-04,1.95046e-04,9.95821e-01,6.50017e-01,9.99999e-01
1.063183176e+00,1.12277e-03,1.72006e-03,9.93133e-01,6.55572e-01,9.99999e-01
1.068499092e+00,6.32021e-03,9.64290e-03,9.88525e-01,6.61062e-01,9.99999e-01
1.073841587e+00,3.41715e-02,5.18104e-02,9.86589e-01,6.66489e-01,9.99999e-01
1.079210795e+00,1.02011e-01,1.54062e-01,9.82839e-01,6.71852e-01,9.99999e-01
1.084606849e+00,2.32125e-01,3.51107e-01,9.74145e-01,6.77151e-01,9.99998e-01
1.090029883e+00,3.81413e-01,5.79190e-01,9.63099e-01,6.82385e-01,9.99998e-01
1.095480033e+00,4.74977e-01,7.63650e-01,9.02647e-01,6.87556e-01,9.99997e-01
1.100957433e+00,4.70568e-01,8.77866e-01,7.71797e-01,6.92662e-01,9.99995e-01
1.106462220e+00,3.47769e-01,9.47515e-01,5.24164e-01,6.97705e-01,9.99989e-01
1.111994531e+00,1.81153e-01,9.80204e-01,2.62341e-01,7.02683e-01,9.99980e-01
1.117554504e+00,8.41203e-02,9.95131e-01,1.19286e-01,7.07598e-01,9.99972e-01
1.123142276e+00,1.59417e-01,9.99679e-01,2.23784e-01,7.12448e-01,9.99966e-01
1.128757988e+00,2.62907e-01,9.99999e-01,3.66568e-01,7.17236e-01,9.99964e-01
1.134401778e+00,1.24122e-01,9.99999e-01,1.71930e-01,7.21960e-01,9.99959e-01
1.140073787e+00,3.92756e-01,9.99999e-01,5.40541e-01,7.26620e-01,9.99967e-01
1.145774156e+00,2.11680e-01,9.99999e-01,2.89497e-01,7.31218e-01,9.99972e-01
1.151503026e+00,1.87249e-01,9.99999e-01,2.54505e-01,7.35754e-01,9.99976e-01
1.157260541e+00,2.25129e-01,9.99999e-01,3.04140e-01,7.40227e-01,9.99981e-01
1.163046844e+00,3.07147e-01,9.99999e-01,4.12482e-01,7.44638e-01,9.99988e-01
1.168862078e+00,4.00853e-01,9.99999e-01,5.35196e-01,7.48988e-01,9.99993e-01
1.174706389e+00,5.11913e-01,9.99999e-01,6.79584e-01,7.53276e-01,9.99996e-01
1.180579921e+00,5.98321e-01,9.99999e-01,7.89860e-01,7.57503e-01,9.99997e-01
1.186482820e+00,6.66317e-01,9.99985e-01,8.74822e-01,7.61670e-01,9.99997e-01
1.192415234e+00,6.89921e-01,9.73572e-01,9.24840e-01,7.65777e-01,9.99998e-01
1.198377311e+00,3.92592e-01,5.38753e-01,9.36289e-01,7.69824e-01,9.99998e-01
1.204369197e+00,1.53850e-20,2.06109e-20,9.39689e-01,7.73812e-01,9.99998e-01
1.210391043e+00,8.97379e-81,1.19265e-80,9.42199e-01,7.77742e-01,9.99998e-01
1.216442998e+00,5.30117e-70,6.99840e-70,9.50611e-01,7.81613e-01,9.99999e-01
1.222525213e+00,5.86912e-69,7.62589e-69,9.61311e-01,7.85426e-01,9.99999e-01
1.228637839e+00,2.56514e-53,3.31125e-53,9.72972e-01,7.89182e-01,9.99999e-01
1.234781029e+00,1.71319e-33,2.17977e-33,9.79861e-01,7.92881e-01,9.99999e-01
1.240954934e+00,2.27637e-22,2.88094e-22,9.87219e-01,7.96524e-01,9.99999e-01
1.247159708e+00,3.15315e-11,3.96421e-11,9.90033e-01,8.00112e-01,9.99999e-01
1.253395507e+00,1.49036e-07,1.86628e-07,9.91147e-01,8.03644e-01,9.99999e-01
1.259662485e+00,1.14402e-04,1.42632e-04,9.91590e-01,8.07121e-01,9.99999e-01
1.265960797e+00,5.41534e-03,6.74320e-03,9.86593e-01,8.10545e-01,9.99999e-01
1.272290601e+00,8.48769e-02,1.06175e-01,9.79024e-01,8.13915e-01,9.99999e-01
1.278652054e+00,7.27756e-02,9.17360e-02,9.58750e-01,8.17232e-01,9.99998e-01
1.285045314e+00,3.16541e-04,3.98055e-04,9.26509e-01,8.20496e-01,9.99998e-01
1.291470541e+00,5.76660e-10,7.56344e-10,8.75513e-01,8.23709e-01,9.99996e-01
1.297927893e+00,9.40041e-05,1.23087e-04,8.41167e-01,8.26870e-01,9.99994e-01
1.304417533e+00,1.13257e-02,1.63741e-02,8.00851e-01,8.29981e-01,9.99991e-01
1.310939621e+00,2.79980e-03,3.88862e-03,7.75478e-01,8.33042e-01,9.99985e-01
1.317494319e+00,6.00916e-28,8.35881e-28,7.59230e-01,8.36053e-01,9.99975e-01
1.324081790e+00,1.21365e-18,1.74440e-18,6.64333e-01,8.39015e-01,9.99960e-01
1.330702199e+00,2.71141e-11,5.97888e-11,2.51622e-01,8.41929e-01,9.99933e-01
1.337355710e+00,1.93017e-11,3.16841e-10,2.18776e-02,8.44796e-01,9.99872e-01
1.344042489e+00,2.36509e-12,1.33314e-10,6.60937e-04,8.47615e-01,9.99728e-01
1.350762701e+00,1.43094e-18,3.18244e-11,7.21393e-09,8.50387e-01,9.99566e-01
1.357516515e+00,4.57506e-18,3.87724e-07,1.00923e-12,8.53114e-01,9.99463e-01
1.364304097e+00,4.84598e-12,3.64737e-05,3.77484e-08,8.55795e-01,9.99424e-01
1.371125618e+00,1.84492e-07,5.31103e-03,1.64969e-05,8.58431e-01,9.99419e-01
1.377981246e+00,1.04891e-06,1.16345e-02,5.39720e-05,8.61024e-01,9.99377e-01
1.384871152e+00,3.22848e-08,7.47614e-02,3.14964e-07,8.63572e-01,9.99394e-01
1.391795508e+00,5.67552e-09,9.11411e-02,4.08499e-08,8.66078e-01,9.99486e-01
1.398754485e+00,2.97519e-07,2.24430e-01,1.27545e-06,8.68541e-01,9.99558e-01
1.405748258e+00,4.68781e-07,3.35009e-01,1.31348e-06,8.70962e-01,9.99604e-01
1.412776999e+00,6.83927e-07,4.99575e-01,1.28265e-06,8.73342e-01,9.99682e-01
1.419840884e+00,1.46060e-06,4.51838e-01,2.70618e-06,8.75682e-01,9.99762e-01
1.426940089e+00,2.38317e-05,2.33733e-02,7.17351e-05,8.77981e-01,9.99852e-01
1.434074789e+00,0.00000e+00,0.00000e+00,5.15921e-04,8.80240e-01,9.99908e-01
1.441245163e+00,0.00000e+00,0.00000e+00,2.17205e-03,8.82461e-01,9.99928e-01
1.448451389e+00,0.00000e+00,0.00000e+00,1.42179e-02,8.84643e-01,9.99940e-01
1.455693646e+00,0.00000e+00,0.00000e+00,5.47518e-02,8.86788e-01,9.99950e-01
1.462972114e+00,1.24999e-321,7.29735e-321,7.62920e-02,8.88895e-01,9.99957e-01
1.470286975e+00,3.81863e-134,2.53360e-133,5.08097e-02,8.90965e-01,9.99962e-01
