#,Wave/freq,Total,CO2,H2O,Rayleigh,CIA
4.000000000e-01,1.04521e-19,9.99999e-01,9.99914e-01,1.04530e-19,9.99999e-01
4.020000000e-01,2.48032e-19,9.99999e-01,9.99946e-01,2.48045e-19,9.99999e-01
4.040100000e-01,5.78129e-19,9.99999e-01,9.99977e-01,5.78142e-19,9.99999e-01
4.060300500e-01,1.32519e-18,9.99999e-01,9.99994e-01,1.32519e-18,9.99999e-01
4.080602003e-01,2.98819e-18,9.99999e-01,9.99997e-01,2.98820e-18,9.99999e-01
4.101005013e-01,6.63076e-18,9.99999e-01,9.99999e-01,6.63076e-18,9.99999e-01
4.121510038e-01,1.44837e-17,9.99999e-01,9.99996e-01,1.44837e-17,9.99999e-01
4.142117588e-01,3.11518e-17,9.99999e-01,9.99975e-01,3.11526e-17,9.99999e-01
4.162828176e-01,6.59922e-17,9.99999e-01,9.99893e-01,6.59992e-17,9.99999e-01
4.183642317e-01,1.37758e-16,9.99999e-01,9.99936e-01,1.37766e-16,9.99999e-01
4.204560528e-01,2.83411e-16,9.99999e-01,9.99961e-01,2.83422e-16,9.99999e-01
4.225583331e-01,5.74819e-16,9.99999e-01,9.99985e-01,5.74827e-16,9.99999e-01
4.246711247e-01,1.14966e-15,9.99999e-01,9.99987e-01,1.14967e-15,9.99999e-01
4.267944804e-01,2.26807e-15,9.99999e-01,9.99982e-01,2.26811e-15,9.99999e-01
4.289284528e-01,4.41490e-15,9.99999e-01,9.99986e-01,4.41496e-15,9.99999e-01
4.310730950e-01,8.48149e-15,9.99999e-01,9.99994e-01,8.48154e-15,9.99999e-01
4.332284605e-01,1.60850e-14,9.99999e-01,9.99998e-01,1.60850e-14,9.99999e-01
4.353946028e-01,3.01217e-14,9.99999e-01,9.99998e-01,3.01217e-14,9.99999e-01
4.375715758e-01,5.57122e-14,9.99999e-01,9.99988e-01,5.57128e-14,9.99999e-01
4.397594337e-01,1.01792e-13,9.99999e-01,9.99904e-01,1.01802e-13,9.99999e-01
4.419582309e-01,1.83728e-13,9.99999e-01,9.99517e-01,1.83816e-13,9.99999e-01
4.441680220e-01,3.27933e-13,9.99999e-01,9.99634e-01,3.28053e-13,9.99999e-01
4.463888621e-01,5.78587e-13,9.99999e-01,9.99615e-01,5.78809e-13,9.99999e-01
4.486208064e-01,1.00961e-12,9.99999e-01,9.99762e-01,1.00985e-12,9.99999e-01
4.508639105e-01,1.74242e-12,9.99999e-01,9.99888e-01,1.74261e-12,9.99999e-01
4.531182300e-01,2.97473e-12,9.99999e-01,9.99955e-01,2.97486e-12,9.99999e-01
4.553838212e-01,5.02495e-12,9.99999e-01,9.99969e-01,5.02510e-12,9.99999e-01
4.576607403e-01,8.40076e-12,9.99999e-01,9.99985e-01,8.40088e-12,9.99999e-01
4.599490440e-01,1.39025e-11,9.99999e-01,9.99989e-01,1.39026e-11,9.99999e-01
4.622487892e-01,2.27796e-11,9.99999e-01,9.99997e-01,2.27797e-11,9.99999e-01
4.645600332e-01,3.69623e-11,9.99999e-01,9.99992e-01,3.69626e-11,9.99999e-01
4.668828333e-01,5.93985e-11,9.99999e-01,9.99885e-01,5.94052e-11,9.99999e-01
4.692172475e-01,9.45611e-11,9.99999e-01,9.99759e-01,9.45839e-11,9.99999e-01
4.715633337e-01,1.49194e-10,9.99999e-01,9.99842e-01,1.49217e-10,9.99999e-01
4.739211504e-01,2.33263e-10,9.99999e-01,9.99849e-01,2.33298e-10,9.99999e-01
4.762907561e-01,3.61522e-10,9.99999e-01,9.99922e-01,3.61550e-10,9.99999e-01
4.786722099e-01,5.55462e-10,9.99999e-01,9.99967e-01,5.55480e-10,9.99999e-01
4.810655710e-01,8.46213e-10,9.99999e-01,9.99989e-01,8.46221e-10,9.99999e-01
4.834708988e-01,1.27834e-09,9.99999e-01,9.99904e-01,1.27846e-09,9.99999e-01
4.858882533e-01,1.91549e-09,9.99999e-01,9.99829e-01,1.91581e-09,9.99999e-01
4.883176946e-01,2.84765e-09,9.99999e-01,9.99856e-01,2.84806e-09,9.99999e-01
4.907592831e-01,4.20036e-09,9.99999e-01,9.99871e-01,4.20090e-09,9.99999e-01
4.932130795e-01,6.14841e-09,9.99999e-01,9.99908e-01,6.14897e-09,9.99999e-01
4.956791449e-01,8.93249e-09,9.99999e-01,9.99951e-01,8.93292e-09,9.99999e-01
4.981575406e-01,1.28788e-08,9.99999e-01,9.99756e-01,1.28819e-08,9.99999e-01
5.006483283e-01,1.84312e-08,9.99999e-01,9.99363e-01,1.84429e-08,9.99999e-01
5.031515699e-01,2.61344e-08,9.99999e-01,9.96814e-01,2.62179e-08,9.99999e-01
5.056673278e-01,3.69506e-08,9.99999e-01,9.98325e-01,3.70126e-08,9.99999e-01
5.081956644e-01,5.17876e-08,9.99999e-01,9.97889e-01,5.18971e-08,9.99999e-01
5.107366428e-01,7.21802e-08,9.99999e-01,9.98575e-01,7.22831e-08,9.99999e-01
5.132903260e-01,9.99392e-08,9.99999e-01,9.99187e-01,1.00020e-07,9.99999e-01
5.158567776e-01,1.37469e-07,9.99999e-01,9.99657e-01,1.37516e-07,9.99999e-01
5.184360615e-01,1.87858e-07,9.99999e-01,9.99862e-01,1.87884e-07,9.99999e-01
5.210282418e-01,2.55108e-07,9.99999e-01,9.99947e-01,2.55121e-07,9.99999e-01
5.236333830e-01,3.44262e-07,9.99999e-01,9.99792e-01,3.44333e-07,9.99999e-01
5.262515499e-01,4.61938e-07,9.99999e-01,9.99870e-01,4.61998e-07,9.99999e-01
5.288828077e-01,6.16207e-07,9.99999e-01,9.99879e-01,6.16281e-07,9.99999e-01
5.315272217e-01,8.17337e-07,9.99999e-01,9.99895e-01,8.17422e-07,9.99999e-01
5.341848578e-01,1.07810e-06,9.99999e-01,9.99930e-01,1.07818e-06,9.99999e-01
5.368557821e-01,1.41401e-06,9.99999e-01,9.99756e-01,1.41436e-06,9.99999e-01
5.395400610e-01,1.84381e-06,9.99999e-01,9.99114e-01,1.84544e-06,9.99999e-01
5.422377613e-01,2.39261e-06,9.99999e-01,9.98878e-01,2.39530e-06,9.99999e-01
5.449489501e-01,3.08975e-06,9.99999e-01,9.98946e-01,3.09301e-06,9.99999e-01
5.476736949e-01,3.97017e-06,9.99999e-01,9.99077e-01,3.97383e-06,9.99999e-01
5.504120634e-01,5.07689e-06,9.99999e-01,9.99329e-01,5.08029e-06,9.99999e-01
5.531641237e-01,6.46121e-06,9.99999e-01,9.99662e-01,6.46339e-06,9.99999e-01
5.559299443e-01,8.18269e-06,9.99999e-01,9.99837e-01,8.18402e-06,9.99999e-01
5.587095940e-01,1.03134e-05,9.99999e-01,9.99897e-01,1.03145e-05,9.99999e-01
5.615031420e-01,1.29388e-05,9.99999e-01,9.99885e-01,1.29403e-05,9.99999e-01
5.643106577e-01,1.61599e-05,9.99999e-01,9.99868e-01,1.61620e-05,9.99999e-01
5.671322110e-01,2.00651e-05,9.99999e-01,9.98389e-01,2.00974e-05,9.99999e-01
5.699678720e-01,2.48426e-05,9.99999e-01,9.98348e-01,2.48837e-05,9.99999e-01
5.728177114e-01,3.06265e-05,9.99999e-01,9.98253e-01,3.06801e-05,9.99999e-01
5.756818000e-01,3.76104e-05,9.99999e-01,9.98402e-01,3.76706e-05,9.99999e-01
5.785602090e-01,4.60028e-05,9.99999e-01,9.98610e-01,4.60667e-05,9.99999e-01
5.814530100e-01,5.60323e-05,9.99999e-01,9.98600e-01,5.61108e-05,9.99999e-01
5.843602750e-01,6.79643e-05,9.99999e-01,9.98315e-01,6.80790e-05,9.99999e-01
5.872820764e-01,8.11008e-05,9.99999e-01,9.85606e-01,8.22851e-05,9.99999e-01
5.902184868e-01,9.73761e-05,9.99999e-01,9.82762e-01,9.90841e-05,9.99999e-01
5.931695792e-01,1.17420e-04,9.99999e-01,9.87758e-01,1.18876e-04,9.99999e-01
5.961354271e-01,1.40206e-04,9.99999e-01,9.86617e-01,1.42108e-04,9.99999e-01
5.991161043e-01,1.67630e-04,9.99999e-01,9.90233e-01,1.69284e-04,9.99999e-01
6.021116848e-01,1.99846e-04,9.99999e-01,9.94455e-01,2.00960e-04,9.99999e-01
6.051222432e-01,2.37089e-04,9.99999e-01,9.97192e-01,2.37756e-04,9.99999e-01
6.081478544e-01,2.80017e-04,9.99999e-01,9.98786e-01,2.80357e-04,9.99999e-01
6.111885937e-01,3.29349e-04,9.99999e-01,9.99488e-01,3.29517e-04,9.99999e-01
6.142445367e-01,3.85975e-04,9.99999e-01,9.99770e-01,3.86064e-04,9.99999e-01
6.173157594e-01,4.50844e-04,9.99999e-01,9.99873e-01,4.50901e-04,9.99999e-01
6.204023382e-01,5.24958e-04,9.99999e-01,9.99891e-01,5.25014e-04,9.99999e-01
6.235043498e-01,6.09180e-04,9.99999e-01,9.99515e-01,6.09475e-04,9.99999e-01
6.266218716e-01,7.03674e-04,9.99999e-01,9.97493e-01,7.05441e-04,9.99999e-01
6.297549810e-01,8.13415e-04,9.99999e-01,9.99080e-01,8.14164e-04,9.99999e-01
6.329037559e-01,9.35290e-04,9.99999e-01,9.98189e-01,9.36985e-04,9.99999e-01
6.360682746e-01,1.07368e-03,9.99999e-01,9.98448e-01,1.07535e-03,9.99999e-01
6.392486160e-01,1.22832e-03,9.99999e-01,9.97996e-01,1.23079e-03,9.99999e-01
6.424448591e-01,1.40114e-03,9.99999e-01,9.97290e-01,1.40494e-03,9.99999e-01
6.456570834e-01,1.57954e-03,9.99999e-01,9.87484e-01,1.59956e-03,9.99999e-01
6.488853688e-01,1.80005e-03,9.99999e-01,9.90959e-01,1.81647e-03,9.99999e-01
6.521297956e-01,2.03867e-03,9.99999e-01,9.90791e-01,2.05762e-03,9.99999e-01
6.553904446e-01,2.30358e-03,9.99999e-01,9.90763e-01,2.32505e-03,9.99999e-01
6.586673968e-01,2.60029e-03,9.99999e-01,9.92133e-01,2.62091e-03,9.99999e-01
6.619607338e-01,2.93449e-03,9.99999e-01,9.95609e-01,2.94743e-03,9.99999e-01
6.652705375e-01,3.29824e-03,9.99999e-01,9.97362e-01,3.30696e-03,9.99999e-01
6.685968902e-01,3.69777e-03,9.99999e-01,9.98879e-01,3.70191e-03,9.99999e-01
6.719398746e-01,4.13246e-03,9.99999e-01,9.99432e-01,4.13481e-03,9.99999e-01
6.752995740e-01,4.60687e-03,9.99999e-01,9.99699e-01,4.60825e-03,9.99999e-01
6.786760719e-01,5.12262e-03,9.99999e-01,9.99549e-01,5.12492e-03,9.99999e-01
6.820694522e-01,5.68317e-03,9.99999e-01,9.99226e-01,5.68757e-03,9.99999e-01
6.854797995e-01,6.29279e-03,9.99999e-01,9.99011e-01,6.29901e-03,9.99999e-01
6.889071985e-01,6.93986e-03,9.99999e-01,9.96799e-01,6.96213e-03,9.99999e-01
6.923517345e-01,7.38286e-03,9.99999e-01,9.61327e-01,7.67986e-03,9.99999e-01
6.958134932e-01,8.28902e-03,9.99999e-01,9.80348e-01,8.45518e-03,9.99999e-01
6.992925606e-01,9.11245e-03,9.99999e-01,9.80771e-01,9.29111e-03,9.99998e-01
7.027890234e-01,9.95176e-03,9.99999e-01,9.76554e-01,1.01907e-02,9.99999e-01
7.063029686e-01,1.09362e-02,9.99999e-01,9.80213e-01,1.11570e-02,9.99999e-01
7.098344834e-01,1.19614e-02,9.99999e-01,9.81003e-01,1.21930e-02,9.99998e-01
7.133836558e-01,1.29616e-02,9.99999e-01,9.74413e-01,1.33020e-02,9.99998e-01
7.169505741e-01,1.18190e-02,9.99999e-01,8.15845e-01,1.44868e-02,9.99997e-01
7.205353270e-01,1.42833e-02,9.99999e-01,9.06842e-01,1.57507e-02,9.99996e-01
7.241380036e-01,1.50556e-02,9.99999e-01,8.80631e-01,1.70965e-02,9.99996e-01
7.277586936e-01,1.65230e-02,9.99999e-01,8.91824e-01,1.85272e-02,9.99997e-01
7.313974871e-01,1.77568e-02,9.99999e-01,8.85805e-01,2.00459e-02,9.99997e-01
7.350544745e-01,2.02609e-02,9.99999e-01,9.35607e-01,2.16553e-02,9.99998e-01
7.387297469e-01,2.22405e-02,9.99999e-01,9.52144e-01,2.33583e-02,9.99999e-01
7.424233956e-01,2.45623e-02,9.99999e-01,9.76338e-01,2.51576e-02,9.99999e-01
7.461355126e-01,2.66651e-02,9.99999e-01,9.85561e-01,2.70558e-02,9.99999e-01
7.498661902e-01,2.88601e-02,9.99999e-01,9.93277e-01,2.90554e-02,9.99999e-01
7.536155211e-01,3.10556e-02,9.99999e-01,9.96683e-01,3.11589e-02,9.99999e-01
7.573835987e-01,3.33116e-02,9.99999e-01,9.98293e-01,3.33685e-02,9.99999e-01
7.611705167e-01,3.56487e-02,9.99999e-01,9.98938e-01,3.56866e-02,9.99999e-01
7.649763693e-01,3.80897e-02,9.99999e-01,9.99333e-01,3.81150e-02,9.99999e-01
7.688012511e-01,4.06370e-02,9.99999e-01,9.99534e-01,4.06559e-02,9.99999e-01
7.726452574e-01,4.32943e-02,9.99999e-01,9.99616e-01,4.33108e-02,9.99999e-01
7.765084837e-01,4.60562e-02,9.99999e-01,9.99450e-01,4.60816e-02,9.99999e-01
7.803910261e-01,4.33447e-02,8.87032e-01,9.97621e-01,4.89695e-02,9.99999e-01
7.842929812e-01,2.87568e-02,5.57206e-01,9.91721e-01,5.19760e-02,9.99999e-01
7.882144461e-01,2.92546e-02,5.38849e-01,9.83201e-01,5.51022e-02,9.99999e-01
7.921555184e-01,3.92258e-02,6.77957e-01,9.90820e-01,5.83491e-02,9.99999e-01
7.961162960e-01,4.67277e-02,7.69323e-01,9.83590e-01,6.17174e-02,9.99999e-01
8.000968774e-01,5.54803e-02,8.66941e-01,9.81192e-01,6.52079e-02,9.99999e-01
8.040973618e-01,6.27302e-02,9.28861e-01,9.81157e-01,6.88210e-02,9.99998e-01
8.081178486e-01,6.71826e-02,9.66474e-01,9.57811e-01,7.25569e-02,9.99998e-01
8.121584379e-01,6.33345e-02,9.89667e-01,8.37124e-01,7.64158e-02,9.99997e-01
8.162192301e-01,6.51876e-02,9.97705e-01,8.12542e-01,8.03976e-02,9.99996e-01
8.203003262e-01,7.62069e-02,9.99969e-01,9.01854e-01,8.45020e-02,9.99996e-01
8.244018279e-01,7.72642e-02,9.99999e-01,8.70794e-01,8.87287e-02,9.99996e-01
8.285238370e-01,8.20770e-02,9.99999e-01,8.81819e-01,9.30770e-02,9.99997e-01
8.326664562e-01,8.59833e-02,9.99999e-01,8.81463e-01,9.75462e-02,9.99997e-01
8.368297885e-01,9.32978e-02,9.99999e-01,9.13473e-01,1.02135e-01,9.99998e-01
8.410139374e-01,1.01244e-01,9.99999e-01,9.47596e-01,1.06843e-01,9.99999e-01
8.452190071e-01,1.08762e-01,9.99999e-01,9.73965e-01,1.11669e-01,9.99999e-01
8.494451021e-01,1.14830e-01,9.99999e-01,9.84730e-01,1.16610e-01,9.99999e-01
8.536923276e-01,1.20570e-01,9.99999e-01,9.90982e-01,1.21667e-01,9.99999e-01
8.579607893e-01,1.26128e-01,9.99999e-01,9.94416e-01,1.26836e-01,9.99999e-01
8.622505932e-01,1.31648e-01,9.99999e-01,9.96460e-01,1.32116e-01,9.99999e-01
8.665618462e-01,1.15995e-01,8.45289e-01,9.97798e-01,1.37505e-01,9.99999e-01
8.708946554e-01,3.41161e-02,2.39113e-01,9.97472e-01,1.43001e-01,9.99999e-01
8.752491287e-01,4.43721e-02,2.99524e-01,9.96623e-01,1.48601e-01,9.99999e-01
8.796253743e-01,7.77740e-02,5.06166e-01,9.95308e-01,1.54304e-01,9.99999e-01
8.840235012e-01,1.10874e-01,6.96008e-01,9.94649e-01,1.60107e-01,9.99999e-01
8.884436187e-01,1.41065e-01,8.66195e-01,9.80247e-01,1.66006e-01,9.99998e-01
8.928858368e-01,1.32581e-01,9.43152e-01,8.15542e-01,1.72000e-01,9.99996e-01
8.973502660e-01,1.23376e-01,9.85971e-01,7.01860e-01,1.78086e-01,9.99995e-01
9.018370173e-01,1.53893e-01,9.98451e-01,8.36338e-01,1.84260e-01,9.99994e-01
9.063462024e-01,1.56427e-01,9.60279e-01,8.50802e-01,1.90520e-01,9.99993e-01
9.108779334e-01,1.40385e-01,9.11740e-01,7.78827e-01,1.96863e-01,9.99992e-01
9.154323231e-01,1.49959e-01,9.78831e-01,7.52326e-01,2.03285e-01,9.99992e-01
9.200094847e-01,1.33529e-01,7.66724e-01,8.01557e-01,2.09784e-01,9.99990e-01
9.246095321e-01,1.00728e-01,6.38267e-01,7.12658e-01,2.16356e-01,9.99983e-01
9.292325798e-01,2.23175e-02,7.06700e-01,1.29879e-01,2.22998e-01,9.99964e-01
9.338787427e-01,1.26927e-02,7.13551e-01,7.17062e-02,2.29706e-01,9.99955e-01
9.385481364e-01,6.53225e-02,7.78057e-01,3.41191e-01,2.36478e-01,9.99954e-01
9.432408771e-01,5.02743e-02,8.56919e-01,2.35522e-01,2.43310e-01,9.99949e-01
9.479570815e-01,3.12132e-02,9.23535e-01,1.33471e-01,2.50199e-01,9.99955e-01
9.526968669e-01,5.22985e-02,9.62523e-01,2.09576e-01,2.57141e-01,9.99966e-01
9.574603512e-01,5.84857e-02,9.83795e-01,2.24304e-01,2.64132e-01,9.99974e-01
9.622476530e-01,7.82811e-02,9.94925e-01,2.89857e-01,2.71170e-01,9.99983e-01
9.670588912e-01,1.34596e-01,9.98480e-01,4.84325e-01,2.78251e-01,9.99989e-01
9.718941857e-01,1.78215e-01,9.99895e-01,6.24555e-01,2.85371e-01,9.99993e-01
9.767536566e-01,1.97710e-01,9.99999e-01,6.75870e-01,2.92528e-01,9.99995e-01
9.816374249e-01,2.23953e-01,9.99999e-01,7.47216e-01,2.99717e-01,9.99996e-01
9.865456120e-01,2.55662e-01,9.99999e-01,8.32947e-01,3.06936e-01,9.99998e-01
9.914783401e-01,2.80495e-01,9.99999e-01,8.92780e-01,3.14181e-01,9.99998e-01
9.964357318e-01,3.02193e-01,9.99999e-01,9.40096e-01,3.21449e-01,9.99999e-01
1.001417910e+00,3.16789e-01,9.99999e-01,9.63655e-01,3.28737e-01,9.99999e-01
1.006425000e+00,3.29000e-01,9.99999e-01,9.79047e-01,3.36040e-01,9.99999e-01
1.011457125e+00,3.38890e-01,9.99999e-01,9.86988e-01,3.43357e-01,9.99999e-01
1.016514411e+00,3.47575e-01,9.99999e-01,9.91131e-01,3.50684e-01,9.99999e-01
1.021596983e+00,3.55394e-01,9.99743e-01,9.92921e-01,3.58019e-01,9.99999e-01
1.026704968e+00,3.57506e-01,9.83922e-01,9.94471e-01,3.65357e-01,9.99999e-01
1.031838492e+00,3.26499e-01,8.79338e-01,9.95990e-01,3.72696e-01,9.99999e-01
1.036997685e+00,1.31608e-02,3.46929e-02,9.97609e-01,3.80033e-01,9.99999e-01
1.042182673e+00,3.35489e-04,8.67894e-04,9.97136e-01,3.87365e-01,9.99999e-01
1.047393587e+00,9.56411e-04,2.43068e-03,9.96214e-01,3.94690e-01,9.99999e-01
1.052630555e+00,9.77635e-09,2.43971e-08,9.94799e-01,4.02005e-01,9.99999e-01
1.057893707e+00,3.75264e-08,9.20725e-08,9.91315e-01,4.09307e-01,9.99999e-01
1.063183176e+00,3.01476e-06,7.29325e-06,9.85771e-01,4.16593e-01,9.99999e-01
1.068499092e+00,4.73641e-05,1.13342e-04,9.76341e-01,4.23861e-01,9.99999e-01
1.073841587e+00,1.14674e-03,2.71078e-03,9.72337e-01,4.31109e-01,9.99998e-01
1.079210795e+00,1.07053e-02,2.50844e-02,9.64808e-01,4.38333e-01,9.99998e-01
1.084606849e+00,5.13693e-02,1.20744e-01,9.47155e-01,4.45533e-01,9.99997e-01
1.090029883e+00,1.38722e-01,3.28752e-01,9.24557e-01,4.52705e-01,9.99996e-01
1.095480033e+00,2.16278e-01,5.76620e-01,8.08351e-01,4.59847e-01,9.99994e-01
1.100957433e+00,2.12175e-01,7.65284e-01,5.87155e-01,4.66958e-01,9.99990e-01
1.106462220e+00,1.18491e-01,8.95219e-01,2.75543e-01,4.74035e-01,9.99979e-01
1.111994531e+00,3.40581e-02,9.59721e-01,7.31184e-02,4.81076e-01,9.99959e-01
1.117554504e+00,8.46697e-03,9.90081e-01,1.74397e-02,4.88080e-01,9.99942e-01
1.123142276e+00,3.23523e-02,9.99351e-01,6.53602e-02,4.95044e-01,9.99932e-01
1.128757988e+00,7.16269e-02,9.99999e-01,1.42703e-01,5.01968e-01,9.99926e-01
1.134401778e+00,3.36313e-02,9.99999e-01,6.60984e-02,5.08848e-01,9.99917e-01
1.140073787e+00,1.51037e-01,9.99999e-01,2.92906e-01,5.15684e-01,9.99933e-01
1.145774156e+00,5.01672e-02,9.99999e-01,9.60238e-02,5.22474e-01,9.99943e-01
1.151503026e+00,3.92296e-02,9.99999e-01,7.41311e-02,5.29217e-01,9.99951e-01
1.157260541e+00,5.05732e-02,9.99999e-01,9.43720e-02,5.35911e-01,9.99962e-01
1.163046844e+00,9.34505e-02,9.99999e-01,1.72245e-01,5.42555e-01,9.99976e-01
1.168862078e+00,1.54821e-01,9.99999e-01,2.81933e-01,5.49148e-01,9.99988e-01
1.174706389e+00,2.53256e-01,9.99999e-01,4.55755e-01,5.55688e-01,9.99994e-01
1.180579921e+00,3.47172e-01,9.99999e-01,6.17554e-01,5.62174e-01,9.99995e-01
1.186482820e+00,4.31718e-01,9.99959e-01,7.59281e-01,5.68606e-01,9.99996e-01
1.192415234e+00,4.64023e-01,9.46161e-01,8.50835e-01,5.74983e-01,9.99996e-01
1.198377311e+00,2.56260e-01,4.93608e-01,8.72535e-01,5.81302e-01,9.99997e-01
1.204369197e+00,3.51107e-40,6.43883e-40,8.79547e-01,5.87565e-01,9.99997e-01
1.210391043e+00,4.13078e-165,7.45111e-165,8.84247e-01,5.93769e-01,9.99997e-01
1.216442998e+00,9.07178e-143,1.61380e-142,9.00901e-01,5.99914e-01,9.99998e-01
1.222525213e+00,1.32576e-140,2.28188e-140,9.21707e-01,6.06000e-01,9.99998e-01
1.228637839e+00,2.69270e-108,4.57077e-108,9.44883e-01,6.12025e-01,9.99999e-01
1.234781029e+00,4.77186e-67,7.86355e-67,9.58846e-01,6.17989e-01,9.99999e-01
1.240954934e+00,2.95142e-44,4.80763e-44,9.73739e-01,6.23892e-01,9.99999e-01
1.247159708e+00,7.18190e-21,1.15451e-20,9.79507e-01,6.29733e-01,9.99999e-01
1.253395507e+00,3.26232e-14,5.19896e-14,9.81751e-01,6.35512e-01,9.99999e-01
1.259662485e+00,2.64504e-08,4.17567e-08,9.82606e-01,6.41228e-01,9.99999e-01
1.265960797e+00,6.88042e-05,1.08191e-04,9.72440e-01,6.46881e-01,9.99998e-01
1.272290601e+00,7.40891e-03,1.17421e-02,9.56887e-01,6.52471e-01,9.99998e-01
1.278652054e+00,7.06392e-03,1.13222e-02,9.16401e-01,6.57997e-01,9.99997e-01
1.285045314e+00,1.76958e-06,2.84115e-06,8.53938e-01,6.63460e-01,9.99996e-01
1.291470541e+00,4.76230e-19,8.26078e-19,7.59867e-01,6.68858e-01,9.99994e-01
1.297927893e+00,1.94153e-06,3.38194e-06,6.78243e-01,6.74193e-01,9.99990e-01
1.304417533e+00,1.30034e-04,2.66664e-04,6.35619e-01,6.79464e-01,9.99982e-01
1.310939621e+00,2.79967e-05,5.47367e-05,5.64339e-01,6.84670e-01,9.99969e-01
1.317494319e+00,1.09838e-56,2.16971e-56,5.71462e-01,6.89812e-01,9.99949e-01
1.324081790e+00,1.14502e-25,2.41533e-25,4.40854e-01,6.94891e-01,9.99910e-01
1.330702199e+00,5.34523e-22,2.17268e-21,9.60939e-02,6.99905e-01,9.99853e-01
1.337355710e+00,9.39049e-22,3.09356e-19,5.79065e-04,7.04855e-01,9.99737e-01
1.344042489e+00,3.04088e-29,4.60148e-23,3.10479e-08,7.09742e-01,9.99437e-01
1.350762701e+00,2.17968e-36,1.01255e-21,2.24346e-16,7.14564e-01,9.99101e-01
1.357516515e+00,4.03171e-35,7.22451e-13,2.82601e-24,7.19324e-01,9.98887e-01
1.364304097e+00,6.65051e-23,1.59845e-09,5.73906e-15,7.24020e-01,9.98808e-01
1.371125618e+00,2.38056e-13,3.45028e-05,2.47054e-09,7.28653e-01,9.98798e-01
1.377981246e+00,3.03006e-12,1.28282e-04,7.61405e-09,7.33223e-01,9.98709e-01
1.384871152e+00,1.23806e-14,5.18773e-03,1.39309e-12,7.37731e-01,9.98745e-01
1.391795508e+00,7.73179e-17,8.20180e-03,3.81075e-15,7.42177e-01,9.98936e-01
1.398754485e+00,4.43332e-13,4.60353e-02,8.40110e-12,7.46561e-01,9.99085e-01
1.405748258e+00,1.05699e-12,1.08239e-01,8.81110e-12,7.50884e-01,9.99180e-01
1.412776999e+00,4.12257e-12,2.41681e-01,1.46292e-11,7.55145e-01,9.99341e-01
1.419840884e+00,6.96919e-12,2.33702e-01,2.46859e-11,7.59346e-01,9.99508e-01
1.426940089e+00,1.03378e-08,6.81647e-03,6.56656e-08,7.63486e-01,9.99695e-01
1.434074789e+00,0.00000e+00,0.00000e+00,7.71871e-07,7.67567e-01,9.99809e-01
1.441245163e+00,0.00000e+00,0.00000e+00,9.68049e-06,7.71588e-01,9.99851e-01
1.448451389e+00,0.00000e+00,0.00000e+00,4.05173e-04,7.75550e-01,9.99877e-01
1.455693646e+00,0.00000e+00,0.00000e+00,4.92800e-03,7.79453e-01,9.99898e-01
1.462972114e+00,0.00000e+00,0.00000e+00,7.11493e-03,7.83299e-01,9.99913e-01
1.470286975e+00,8.73945e-276,4.42495e-274,3.48359e-03,7.87087e-01,9.99922e-01
