#,Wave/freq,Total,CO2,H2O,Rayleigh,CIA
4.000000000e-01,1.34093e-16,9.99999e-01,9.99928e-01,1.34102e-16,9.99999e-01
4.020000000e-01,2.76221e-16,9.99999e-01,9.99955e-01,2.76234e-16,9.99999e-01
4.040100000e-01,5.60521e-16,9.99999e-01,9.99980e-01,5.60531e-16,9.99999e-01
4.060300500e-01,1.12163e-15,9.99999e-01,9.99995e-01,1.12164e-15,9.99999e-01
4.080602003e-01,2.21388e-15,9.99999e-01,9.99998e-01,2.21389e-15,9.99999e-01
4.101005013e-01,4.31146e-15,9.99999e-01,9.99999e-01,4.31147e-15,9.99999e-01
4.121510038e-01,8.28658e-15,9.99999e-01,9.99996e-01,8.28660e-15,9.99999e-01
4.142117588e-01,1.57223e-14,9.99999e-01,9.99979e-01,1.57226e-14,9.99999e-01
4.162828176e-01,2.94536e-14,9.99999e-01,9.99911e-01,2.94562e-14,9.99999e-01
4.183642317e-01,5.45031e-14,9.99999e-01,9.99946e-01,5.45059e-14,9.99999e-01
4.204560528e-01,9.96364e-14,9.99999e-01,9.99967e-01,9.96396e-14,9.99999e-01
4.225583331e-01,1.79986e-13,9.99999e-01,9.99987e-01,1.79989e-13,9.99999e-01
4.246711247e-01,3.21352e-13,9.99999e-01,9.99989e-01,3.21355e-13,9.99999e-01
4.267944804e-01,5.67215e-13,9.99999e-01,9.99985e-01,5.67223e-13,9.99999e-01
4.289284528e-01,9.90017e-13,9.99999e-01,9.99988e-01,9.90027e-13,9.99999e-01
4.310730950e-01,1.70907e-12,9.99999e-01,9.99994e-01,1.70908e-12,9.99999e-01
4.332284605e-01,2.91873e-12,9.99999e-01,9.99998e-01,2.91874e-12,9.99999e-01
4.353946028e-01,4.93214e-12,9.99999e-01,9.99998e-01,4.93215e-12,9.99999e-01
4.375715758e-01,8.24846e-12,9.99999e-01,9.99990e-01,8.24853e-12,9.99999e-01
4.397594337e-01,1.36544e-11,9.99999e-01,9.99921e-01,1.36554e-11,9.99999e-01
4.419582309e-01,2.23737e-11,9.99999e-01,9.99600e-01,2.23826e-11,9.99999e-01
4.441680220e-01,3.63197e-11,9.99999e-01,9.99692e-01,3.63309e-11,9.99999e-01
4.463888621e-01,5.83911e-11,9.99999e-01,9.99678e-01,5.84099e-11,9.99999e-01
4.486208064e-01,9.30116e-11,9.99999e-01,9.99800e-01,9.30301e-11,9.99999e-01
4.508639105e-01,1.46801e-10,9.99999e-01,9.99906e-01,1.46814e-10,9.99999e-01
4.531182300e-01,2.29606e-10,9.99999e-01,9.99962e-01,2.29614e-10,9.99999e-01
4.553838212e-01,3.55944e-10,9.99999e-01,9.99974e-01,3.55953e-10,9.99999e-01
4.576607403e-01,5.47043e-10,9.99999e-01,9.99988e-01,5.47049e-10,9.99999e-01
4.599490440e-01,8.33623e-10,9.99999e-01,9.99991e-01,8.33630e-10,9.99999e-01
4.622487892e-01,1.25981e-09,9.99999e-01,9.99998e-01,1.25981e-09,9.99999e-01
4.645600332e-01,1.88840e-09,9.99999e-01,9.99993e-01,1.88842e-09,9.99999e-01
4.668828333e-01,2.80786e-09,9.99999e-01,9.99904e-01,2.80812e-09,9.99999e-01
4.692172475e-01,4.14232e-09,9.99999e-01,9.99798e-01,4.14315e-09,9.99999e-01
4.715633337e-01,6.06530e-09,9.99999e-01,9.99867e-01,6.06610e-09,9.99999e-01
4.739211504e-01,8.81380e-09,9.99999e-01,9.99873e-01,8.81490e-09,9.99999e-01
4.762907561e-01,1.27143e-08,9.99999e-01,9.99934e-01,1.27151e-08,9.99999e-01
4.786722099e-01,1.82082e-08,9.99999e-01,9.99972e-01,1.82087e-08,9.99999e-01
4.810655710e-01,2.58913e-08,9.99999e-01,9.99991e-01,2.58915e-08,9.99999e-01
4.834708988e-01,3.65580e-08,9.99999e-01,9.99921e-01,3.65608e-08,9.99999e-01
4.858882533e-01,5.12688e-08,9.99999e-01,9.99857e-01,5.12761e-08,9.99999e-01
4.883176946e-01,7.14267e-08,9.99999e-01,9.99880e-01,7.14352e-08,9.99999e-01
4.907592831e-01,9.88595e-08,9.99999e-01,9.99891e-01,9.88702e-08,9.99999e-01
4.932130795e-01,1.35956e-07,9.99999e-01,9.99923e-01,1.35966e-07,9.99999e-01
4.956791449e-01,1.85799e-07,9.99999e-01,9.99959e-01,1.85807e-07,9.99999e-01
4.981575406e-01,2.52305e-07,9.99999e-01,9.99796e-01,2.52357e-07,9.99999e-01
5.006483283e-01,3.40496e-07,9.99999e-01,9.99471e-01,3.40676e-07,9.99999e-01
5.031515699e-01,4.55970e-07,9.99999e-01,9.97339e-01,4.57187e-07,9.99999e-01
5.056673278e-01,6.09135e-07,9.99999e-01,9.98598e-01,6.09989e-07,9.99999e-01
5.081956644e-01,8.07810e-07,9.99999e-01,9.98232e-01,8.09240e-07,9.99999e-01
5.107366428e-01,1.06633e-06,9.99999e-01,9.98806e-01,1.06760e-06,9.99999e-01
5.132903260e-01,1.39980e-06,9.99999e-01,9.99318e-01,1.40075e-06,9.99999e-01
5.158567776e-01,1.82751e-06,9.99999e-01,9.99712e-01,1.82804e-06,9.99999e-01
5.184360615e-01,2.37288e-06,9.99999e-01,9.99884e-01,2.37315e-06,9.99999e-01
5.210282418e-01,3.06484e-06,9.99999e-01,9.99956e-01,3.06497e-06,9.99999e-01
5.236333830e-01,3.93784e-06,9.99999e-01,9.99826e-01,3.93853e-06,9.99999e-01
5.262515499e-01,5.03549e-06,9.99999e-01,9.99891e-01,5.03604e-06,9.99999e-01
5.288828077e-01,6.40756e-06,9.99999e-01,9.99899e-01,6.40820e-06,9.99999e-01
5.315272217e-01,8.11480e-06,9.99999e-01,9.99912e-01,8.11551e-06,9.99999e-01
5.341848578e-01,1.02293e-05,9.99999e-01,9.99942e-01,1.02299e-05,9.99999e-01
5.368557821e-01,1.28336e-05,9.99999e-01,9.99797e-01,1.28362e-05,9.99999e-01
5.395400610e-01,1.60228e-05,9.99999e-01,9.99266e-01,1.60346e-05,9.99999e-01
5.422377613e-01,1.99233e-05,9.99999e-01,9.99060e-01,1.99420e-05,9.99999e-01
5.449489501e-01,2.46734e-05,9.99999e-01,9.99122e-01,2.46951e-05,9.99999e-01
5.476736949e-01,3.04286e-05,9.99999e-01,9.99226e-01,3.04521e-05,9.99999e-01
5.504120634e-01,3.73752e-05,9.99999e-01,9.99438e-01,3.73962e-05,9.99999e-01
5.531641237e-01,4.57249e-05,9.99999e-01,9.99717e-01,4.57378e-05,9.99999e-01
5.559299443e-01,5.57104e-05,9.99999e-01,9.99863e-01,5.57180e-05,9.99999e-01
5.587095940e-01,6.76060e-05,9.99999e-01,9.99913e-01,6.76118e-05,9.99999e-01
5.615031420e-01,8.17238e-05,9.99999e-01,9.99904e-01,8.17316e-05,9.99999e-01
5.643106577e-01,9.84200e-05,9.99999e-01,9.99890e-01,9.84307e-05,9.99999e-01
5.671322110e-01,1.17950e-04,9.99999e-01,9.98670e-01,1.18107e-04,9.99999e-01
5.699678720e-01,1.41011e-04,9.99999e-01,9.98609e-01,1.41208e-04,9.99999e-01
5.728177114e-01,1.67987e-04,9.99999e-01,9.98541e-01,1.68232e-04,9.99999e-01
5.756818000e-01,1.99469e-04,9.99999e-01,9.98663e-01,1.99736e-04,9.99999e-01
5.785602090e-01,2.36062e-04,9.99999e-01,9.98836e-01,2.36337e-04,9.99999e-01
5.814530100e-01,2.78390e-04,9.99999e-01,9.98829e-01,2.78717e-04,9.99999e-01
5.843602750e-01,3.27168e-04,9.99999e-01,9.98598e-01,3.27627e-04,9.99999e-01
5.872820764e-01,3.79287e-04,9.99999e-01,9.88003e-01,3.83892e-04,9.99999e-01
5.902184868e-01,4.41932e-04,9.99999e-01,9.85541e-01,4.48415e-04,9.99999e-01
5.931695792e-01,5.16828e-04,9.99999e-01,9.89756e-01,5.22177e-04,9.99999e-01
5.961354271e-01,5.99446e-04,9.99999e-01,9.88784e-01,6.06246e-04,9.99999e-01
5.991161043e-01,6.96031e-04,9.99999e-01,9.91811e-01,7.01777e-04,9.99999e-01
6.021116848e-01,8.06251e-04,9.99999e-01,9.95349e-01,8.10018e-04,9.99999e-01
6.051222432e-01,9.30113e-04,9.99999e-01,9.97644e-01,9.32308e-04,9.99999e-01
6.081478544e-01,1.06900e-03,9.99999e-01,9.98982e-01,1.07008e-03,9.99999e-01
6.111885937e-01,1.22436e-03,9.99999e-01,9.99570e-01,1.22488e-03,9.99999e-01
6.142445367e-01,1.39807e-03,9.99999e-01,9.99807e-01,1.39834e-03,9.99999e-01
6.173157594e-01,1.59202e-03,9.99999e-01,9.99893e-01,1.59218e-03,9.99999e-01
6.204023382e-01,1.80810e-03,9.99999e-01,9.99909e-01,1.80826e-03,9.99999e-01
6.235043498e-01,2.04768e-03,9.99999e-01,9.99599e-01,2.04850e-03,9.99999e-01
6.266218716e-01,2.31011e-03,9.99999e-01,9.97904e-01,2.31495e-03,9.99999e-01
6.297549810e-01,2.60775e-03,9.99999e-01,9.99231e-01,2.60975e-03,9.99999e-01
6.329037559e-01,2.93068e-03,9.99999e-01,9.98483e-01,2.93513e-03,9.99999e-01
6.360682746e-01,3.28917e-03,9.99999e-01,9.98704e-01,3.29343e-03,9.99999e-01
6.392486160e-01,3.68089e-03,9.99999e-01,9.98324e-01,3.68707e-03,9.99999e-01
6.424448591e-01,4.10928e-03,9.99999e-01,9.97746e-01,4.11856e-03,9.99999e-01
6.456570834e-01,4.54268e-03,9.99999e-01,9.89582e-01,4.59050e-03,9.99999e-01
6.488853688e-01,5.06685e-03,9.99999e-01,9.92416e-01,5.10556e-03,9.99999e-01
6.521297956e-01,5.62273e-03,9.99999e-01,9.92273e-01,5.66651e-03,9.99999e-01
6.553904446e-01,6.22769e-03,9.99999e-01,9.92279e-01,6.27615e-03,9.99999e-01
6.586673968e-01,6.89160e-03,9.99999e-01,9.93403e-01,6.93736e-03,9.99999e-01
6.619607338e-01,7.62491e-03,9.99999e-01,9.96318e-01,7.65307e-03,9.99999e-01
6.652705375e-01,8.40765e-03,9.99999e-01,9.97789e-01,8.42627e-03,9.99999e-01
6.685968902e-01,9.25126e-03,9.99999e-01,9.99060e-01,9.25996e-03,9.99999e-01
6.719398746e-01,1.01524e-02,9.99999e-01,9.99524e-01,1.01572e-02,9.99999e-01
6.752995740e-01,1.11182e-02,9.99999e-01,9.99741e-01,1.11210e-02,9.99999e-01
6.786760719e-01,1.21500e-02,9.99999e-01,9.99625e-01,1.21545e-02,9.99999e-01
6.820694522e-01,1.32523e-02,9.99999e-01,9.99360e-01,1.32608e-02,9.99999e-01
6.854797995e-01,1.44310e-02,9.99999e-01,9.99174e-01,1.44429e-02,9.99999e-01
6.889071985e-01,1.56722e-02,9.99999e-01,9.97985e-01,1.57038e-02,9.99999e-01
6.923517345e-01,1.64980e-02,9.99999e-01,9.67817e-01,1.70466e-02,9.99999e-01
6.958134932e-01,1.81669e-02,9.99999e-01,9.83361e-01,1.84743e-02,9.99999e-01
6.992925606e-01,1.96692e-02,9.99999e-01,9.83962e-01,1.99897e-02,9.99999e-01
7.027890234e-01,2.11710e-02,9.99999e-01,9.80325e-01,2.15959e-02,9.99999e-01
7.063029686e-01,2.29091e-02,9.99999e-01,9.83415e-01,2.32954e-02,9.99999e-01
7.098344834e-01,2.46917e-02,9.99999e-01,9.84078e-01,2.50912e-02,9.99999e-01
7.133836558e-01,2.64115e-02,9.99999e-01,9.78718e-01,2.69858e-02,9.99998e-01
7.169505741e-01,2.44429e-02,9.99999e-01,8.43392e-01,2.89817e-02,9.99997e-01
7.205353270e-01,2.86121e-02,9.99999e-01,9.20555e-01,3.10814e-02,9.99997e-01
7.241380036e-01,2.99288e-02,9.99999e-01,8.99108e-01,3.32872e-02,9.99997e-01
7.277586936e-01,3.23464e-02,9.99999e-01,9.08575e-01,3.56013e-02,9.99997e-01
7.313974871e-01,3.43413e-02,9.99999e-01,9.03106e-01,3.80258e-02,9.99998e-01
7.350544745e-01,3.83598e-02,9.99999e-01,9.45696e-01,4.05625e-02,9.99998e-01
7.387297469e-01,4.14719e-02,9.99999e-01,9.59699e-01,4.32134e-02,9.99999e-01
7.424233956e-01,4.50644e-02,9.99999e-01,9.80087e-01,4.59799e-02,9.99999e-01
7.461355126e-01,4.82711e-02,9.99999e-01,9.87873e-01,4.88636e-02,9.99999e-01
7.498661902e-01,5.15726e-02,9.99999e-01,9.94345e-01,5.18658e-02,9.99999e-01
7.536155211e-01,5.48347e-02,9.99999e-01,9.97217e-01,5.49877e-02,9.99999e-01
7.573835987e-01,5.81468e-02,9.99999e-01,9.98567e-01,5.82302e-02,9.99999e-01
7.611705167e-01,6.15394e-02,9.99999e-01,9.99109e-01,6.15942e-02,9.99999e-01
7.649763693e-01,6.50439e-02,9.99999e-01,9.99441e-01,6.50803e-02,9.99999e-01
7.688012511e-01,6.86622e-02,9.99999e-01,9.99610e-01,6.86889e-02,9.99999e-01
7.726452574e-01,7.23972e-02,9.99999e-01,9.99679e-01,7.24204e-02,9.99999e-01
7.765084837e-01,7.62400e-02,9.99999e-01,9.99542e-01,7.62749e-02,9.99999e-01
7.803910261e-01,7.23417e-02,9.03057e-01,9.98022e-01,8.02523e-02,9.99999e-01
7.842929812e-01,5.09702e-02,6.07892e-01,9.93112e-01,8.43523e-02,9.99999e-01
7.882144461e-01,5.16790e-02,5.90856e-01,9.85930e-01,8.85746e-02,9.99999e-01
7.921555184e-01,6.65633e-02,7.21521e-01,9.92287e-01,9.29186e-02,9.99999e-01
7.961162960e-01,7.70744e-02,8.02105e-01,9.86316e-01,9.73834e-02,9.99999e-01
8.000968774e-01,8.90375e-02,8.87023e-01,9.84251e-01,1.01968e-01,9.99999e-01
8.040973618e-01,9.86816e-02,9.39809e-01,9.84237e-01,1.06672e-01,9.99999e-01
8.081178486e-01,1.04549e-01,9.71799e-01,9.64755e-01,1.11493e-01,9.99998e-01
8.121584379e-01,9.95197e-02,9.91258e-01,8.62039e-01,1.16431e-01,9.99997e-01
8.162192301e-01,1.01819e-01,9.98062e-01,8.39658e-01,1.21483e-01,9.99997e-01
8.203003262e-01,1.16170e-01,9.99972e-01,9.17284e-01,1.26648e-01,9.99996e-01
8.244018279e-01,1.17253e-01,9.99999e-01,8.88794e-01,1.31924e-01,9.99996e-01
8.285238370e-01,1.23597e-01,9.99999e-01,9.00138e-01,1.37309e-01,9.99997e-01
8.326664562e-01,1.28450e-01,9.99999e-01,8.99504e-01,1.42801e-01,9.99998e-01
8.368297885e-01,1.37544e-01,9.99999e-01,9.26859e-01,1.48398e-01,9.99998e-01
8.410139374e-01,1.47292e-01,9.99999e-01,9.55836e-01,1.54097e-01,9.99999e-01
8.452190071e-01,1.56393e-01,9.99999e-01,9.78093e-01,1.59896e-01,9.99999e-01
8.494451021e-01,1.63670e-01,9.99999e-01,9.87200e-01,1.65792e-01,9.99999e-01
8.536923276e-01,1.70482e-01,9.99999e-01,9.92427e-01,1.71783e-01,9.99999e-01
8.579607893e-01,1.77033e-01,9.99999e-01,9.95322e-01,1.77865e-01,9.99999e-01
8.622505932e-01,1.83490e-01,9.99999e-01,9.97030e-01,1.84036e-01,9.99999e-01
8.665618462e-01,1.63218e-01,8.59192e-01,9.98158e-01,1.90293e-01,9.99999e-01
8.708946554e-01,5.78243e-02,2.94637e-01,9.97888e-01,1.96633e-01,9.99999e-01
8.752491287e-01,7.28647e-02,3.59785e-01,9.97177e-01,2.03053e-01,9.99999e-01
8.796253743e-01,1.17331e-01,5.61927e-01,9.96086e-01,2.09549e-01,9.99999e-01
8.840235012e-01,1.58569e-01,7.36843e-01,9.95533e-01,2.16118e-01,9.99999e-01
8.884436187e-01,1.94244e-01,8.85974e-01,9.83690e-01,2.22758e-01,9.99998e-01
8.928858368e-01,1.84506e-01,9.51947e-01,8.43410e-01,2.29464e-01,9.99997e-01
8.973502660e-01,1.73404e-01,9.88148e-01,7.42243e-01,2.36234e-01,9.99995e-01
9.018370173e-01,2.08662e-01,9.98689e-01,8.59484e-01,2.43064e-01,9.99995e-01
9.063462024e-01,2.11880e-01,9.66902e-01,8.73650e-01,2.49950e-01,9.99994e-01
9.108779334e-01,1.93307e-01,9.25311e-01,8.10745e-01,2.56890e-01,9.99993e-01
9.154323231e-01,2.04321e-01,9.82043e-01,7.87463e-01,2.63880e-01,9.99993e-01
9.200094847e-01,1.83645e-01,7.95381e-01,8.30096e-01,2.70916e-01,9.99991e-01
9.246095321e-01,1.45991e-01,6.85569e-01,7.52854e-01,2.77996e-01,9.99986e-01
9.292325798e-01,3.92308e-02,7.47182e-01,1.72268e-01,2.85115e-01,9.99970e-01
9.338787427e-01,2.42046e-02,7.52717e-01,1.03537e-01,2.92270e-01,9.99962e-01
9.385481364e-01,9.91810e-02,8.09955e-01,3.96675e-01,2.99458e-01,9.99961e-01
9.432408771e-01,7.92522e-02,8.78385e-01,2.89066e-01,3.06676e-01,9.99957e-01
9.479570815e-01,5.30700e-02,9.35476e-01,1.79124e-01,3.13920e-01,9.99963e-01
9.526968669e-01,8.25998e-02,9.68427e-01,2.63881e-01,3.21187e-01,9.99971e-01
9.574603512e-01,9.10464e-02,9.86367e-01,2.80298e-01,3.28474e-01,9.99978e-01
9.622476530e-01,1.16763e-01,9.95729e-01,3.48971e-01,3.35777e-01,9.99985e-01
9.670588912e-01,1.85459e-01,9.98720e-01,5.41135e-01,3.43094e-01,9.99990e-01
9.718941857e-01,2.35953e-01,9.99910e-01,6.73390e-01,3.50421e-01,9.99994e-01
9.767536566e-01,2.57479e-01,9.99999e-01,7.19711e-01,3.57755e-01,9.99995e-01
9.816374249e-01,2.85837e-01,9.99999e-01,7.82916e-01,3.65093e-01,9.99997e-01
9.865456120e-01,3.19469e-01,9.99999e-01,8.57791e-01,3.72432e-01,9.99998e-01
9.914783401e-01,3.45323e-01,9.99999e-01,9.09297e-01,3.79769e-01,9.99999e-01
9.964357318e-01,3.67566e-01,9.99999e-01,9.49534e-01,3.87102e-01,9.99999e-01
1.001417910e+00,3.82370e-01,9.99999e-01,9.69429e-01,3.94427e-01,9.99999e-01
1.006425000e+00,3.94684e-01,9.99999e-01,9.82431e-01,4.01742e-01,9.99999e-01
1.011457125e+00,4.04577e-01,9.99999e-01,9.89078e-01,4.09044e-01,9.99999e-01
1.016514411e+00,4.13236e-01,9.99999e-01,9.92566e-01,4.16331e-01,9.99999e-01
1.021596983e+00,4.21006e-01,9.99802e-01,9.94070e-01,4.23600e-01,9.99999e-01
1.026704968e+00,4.23171e-01,9.86728e-01,9.95371e-01,4.30848e-01,9.99999e-01
1.031838492e+00,3.90735e-01,8.94766e-01,9.96638e-01,4.38074e-01,9.99999e-01
1.036997685e+00,1.95161e-02,4.38956e-02,9.97999e-01,4.45274e-01,9.99999e-01
1.042182673e+00,9.22606e-04,2.04281e-03,9.97609e-01,4.52447e-01,9.99999e-01
1.047393587e+00,2.52066e-03,5.49891e-03,9.96834e-01,4.59591e-01,9.99999e-01
1.052630555e+00,1.21566e-07,2.61186e-07,9.95655e-01,4.66703e-01,9.99999e-01
1.057893707e+00,4.63904e-07,9.82753e-07,9.92750e-01,4.73781e-01,9.99999e-01
1.063183176e+00,1.78826e-05,3.74428e-05,9.88107e-01,4.80824e-01,9.99999e-01
1.068499092e+00,2.11695e-04,4.39515e-04,9.80185e-01,4.87829e-01,9.99999e-01
1.073841587e+00,3.28872e-03,6.75680e-03,9.76848e-01,4.94795e-01,9.99999e-01
1.079210795e+00,2.14628e-02,4.37771e-02,9.70465e-01,5.01719e-01,9.99998e-01
1.084606849e+00,8.21601e-02,1.68033e-01,9.55626e-01,5.08601e-01,9.99998e-01
1.090029883e+00,1.90432e-01,3.92116e-01,9.36787e-01,5.15439e-01,9.99997e-01
1.095480033e+00,2.76930e-01,6.29273e-01,8.37332e-01,5.22231e-01,9.99995e-01
1.100957433e+00,2.72686e-01,7.98810e-01,6.40266e-01,5.28975e-01,9.99991e-01
1.106462220e+00,1.65905e-01,9.11192e-01,3.36609e-01,5.35671e-01,9.99982e-01
1.111994531e+00,5.70691e-02,9.66063e-01,1.08215e-01,5.42317e-01,9.99965e-01
1.117554504e+00,1.70189e-02,9.91633e-01,3.11549e-02,5.48911e-01,9.99951e-01
1.123142276e+00,5.21958e-02,9.99451e-01,9.39808e-02,5.55453e-01,9.99943e-01
1.128757988e+00,1.07131e-01,9.99999e-01,1.90656e-01,5.61942e-01,9.99938e-01
1.134401778e+00,4.87347e-02,9.99999e-01,8.57495e-02,5.68376e-01,9.99930e-01
1.140073787e+00,2.03707e-01,9.99999e-01,3.54444e-01,5.74754e-01,9.99944e-01
1.145774156e+00,7.76619e-02,9.99999e-01,1.33658e-01,5.81076e-01,9.99952e-01
1.151503026e+00,6.33812e-02,9.99999e-01,1.07916e-01,5.87341e-01,9.99959e-01
1.157260541e+00,8.04468e-02,9.99999e-01,1.35540e-01,5.93547e-01,9.99968e-01
1.163046844e+00,1.35114e-01,9.99999e-01,2.25309e-01,5.99694e-01,9.99980e-01
1.168862078e+00,2.08269e-01,9.99999e-01,3.43806e-01,6.05782e-01,9.99989e-01
1.174706389e+00,3.15741e-01,9.99999e-01,5.16080e-01,6.11809e-01,9.99994e-01
1.180579921e+00,4.11929e-01,9.99999e-01,6.66796e-01,6.17776e-01,9.99996e-01
1.186482820e+00,4.95062e-01,9.99971e-01,7.93793e-01,6.23681e-01,9.99996e-01
1.192415234e+00,5.26115e-01,9.55105e-01,8.73495e-01,6.29524e-01,9.99997e-01
1.198377311e+00,2.93727e-01,5.08301e-01,8.92218e-01,6.35305e-01,9.99997e-01
1.204369197e+00,5.72683e-34,9.50939e-34,8.98075e-01,6.41024e-01,9.99997e-01
1.210391043e+00,1.96745e-138,3.22210e-138,9.02126e-01,6.46679e-01,9.99998e-01
1.216442998e+00,9.44418e-120,1.52881e-119,9.16211e-01,6.52271e-01,9.99998e-01
1.222525213e+00,6.10578e-118,9.61499e-118,9.33992e-01,6.57800e-01,9.99999e-01
1.228637839e+00,6.42211e-91,9.99676e-91,9.53652e-01,6.63264e-01,9.99999e-01
1.234781029e+00,1.96204e-56,2.97931e-56,9.65404e-01,6.68665e-01,9.99999e-01
1.240954934e+00,2.36952e-37,3.56364e-37,9.77969e-01,6.74002e-01,9.99999e-01
1.247159708e+00,8.05426e-18,1.19791e-17,9.82807e-01,6.79275e-01,9.99999e-01
1.253395507e+00,3.95828e-12,5.84502e-12,9.84708e-01,6.84484e-01,9.99999e-01
1.259662485e+00,3.43195e-07,5.02828e-07,9.85449e-01,6.89629e-01,9.99999e-01
1.265960797e+00,2.54251e-04,3.71349e-04,9.76886e-01,6.94709e-01,9.99999e-01
1.272290601e+00,1.57357e-02,2.31458e-02,9.63874e-01,6.99726e-01,9.99998e-01
1.278652054e+00,1.44977e-02,2.15448e-02,9.29627e-01,7.04678e-01,9.99998e-01
1.285045314e+00,8.84422e-06,1.31424e-05,8.76322e-01,7.09567e-01,9.99997e-01
1.291470541e+00,3.29678e-16,5.23458e-16,7.94752e-01,7.14392e-01,9.99995e-01
1.297927893e+00,9.67481e-06,1.53946e-05,7.22253e-01,7.19154e-01,9.99991e-01
1.304417533e+00,5.19526e-04,9.56024e-04,6.83306e-01,7.23852e-01,9.99984e-01
1.310939621e+00,1.06929e-04,1.87552e-04,6.18291e-01,7.28487e-01,9.99974e-01
1.317494319e+00,9.91208e-48,1.75305e-47,6.24474e-01,7.33060e-01,9.99957e-01
1.324081790e+00,8.87498e-31,1.65790e-30,4.99471e-01,7.37570e-01,9.99931e-01
1.330702199e+00,1.29868e-18,4.17422e-18,1.28853e-01,7.42018e-01,9.99885e-01
1.337355710e+00,1.49874e-18,1.74893e-16,2.20024e-03,7.46404e-01,9.99780e-01
1.344042489e+00,9.01923e-20,9.77017e-17,3.69667e-05,7.50729e-01,9.99529e-01
1.350762701e+00,9.02277e-31,2.02056e-18,5.10001e-14,7.54993e-01,9.99248e-01
1.357516515e+00,9.81701e-30,4.35644e-11,1.19427e-20,7.59196e-01,9.99069e-01
1.364304097e+00,1.72143e-19,3.57997e-08,7.79217e-13,7.63338e-01,9.99003e-01
1.371125618e+00,1.63723e-11,1.64654e-04,3.75803e-08,7.67421e-01,9.98994e-01
1.377981246e+00,1.62122e-10,5.16175e-04,1.20162e-07,7.71444e-01,9.98920e-01
1.384871152e+00,1.32261e-12,1.19354e-02,6.86601e-11,7.75408e-01,9.98950e-01
1.391795508e+00,2.22554e-14,1.71756e-02,5.97907e-13,7.79314e-01,9.99110e-01
1.398754485e+00,2.86170e-11,7.57413e-02,3.38570e-10,7.83162e-01,9.99235e-01
1.405748258e+00,6.22440e-11,1.53787e-01,3.67726e-10,7.86952e-01,9.99314e-01
1.412776999e+00,1.74368e-10,3.02996e-01,5.04017e-10,7.90685e-01,9.99448e-01
1.419840884e+00,3.18546e-10,2.87301e-01,9.19493e-10,7.94361e-01,9.99588e-01
1.426940089e+00,1.18442e-07,9.44281e-03,5.66280e-07,7.97982e-01,9.99744e-01
1.434074789e+00,0.00000e+00,0.00000e+00,5.76935e-06,8.01547e-01,9.99840e-01
1.441245163e+00,0.00000e+00,0.00000e+00,5.05929e-05,8.05057e-01,9.99876e-01
1.448451389e+00,0.00000e+00,0.00000e+00,1.17547e-03,8.08512e-01,9.99897e-01
1.455693646e+00,0.00000e+00,0.00000e+00,1.00392e-02,8.11914e-01,9.99914e-01
1.462972114e+00,0.00000e+00,0.00000e+00,1.47093e-02,8.15262e-01,9.99927e-01
1.470286975e+00,5.50237e-231,1.46490e-229,7.82214e-03,8.18558e-01,9.99934e-01
