#,Wave/freq,Total,CO2,H2O,Rayleigh,CIA
4.000000000e-01,1.14631e-04,9.99999e-01,9.99981e-01,1.14633e-04,9.99999e-01
4.020000000e-01,1.37159e-04,9.99999e-01,9.99988e-01,1.37161e-04,9.99999e-01
4.040100000e-01,1.63503e-04,9.99999e-01,9.99994e-01,1.63504e-04,9.99999e-01
4.060300500e-01,1.94232e-04,9.99999e-01,9.99998e-01,1.94232e-04,9.99999e-01
4.080602003e-01,2.29951e-04,9.99999e-01,9.99999e-01,2.29951e-04,9.99999e-01
4.101005013e-01,2.71333e-04,9.99999e-01,9.99999e-01,2.71333e-04,9.99999e-01
4.121510038e-01,3.19116e-04,9.99999e-01,9.99998e-01,3.19117e-04,9.99999e-01
4.142117588e-01,3.74113e-04,9.99999e-01,9.99994e-01,3.74115e-04,9.99999e-01
4.162828176e-01,4.37207e-04,9.99999e-01,9.99977e-01,4.37217e-04,9.99999e-01
4.183642317e-01,5.09384e-04,9.99999e-01,9.99986e-01,5.09391e-04,9.99999e-01
4.204560528e-01,5.91686e-04,9.99999e-01,9.99991e-01,5.91691e-04,9.99999e-01
4.225583331e-01,6.85256e-04,9.99999e-01,9.99996e-01,6.85258e-04,9.99999e-01
4.246711247e-01,7.91321e-04,9.99999e-01,9.99997e-01,7.91323e-04,9.99999e-01
4.267944804e-01,9.11208e-04,9.99999e-01,9.99995e-01,9.11211e-04,9.99999e-01
4.289284528e-01,1.04634e-03,9.99999e-01,9.99996e-01,1.04634e-03,9.99999e-01
4.310730950e-01,1.19824e-03,9.99999e-01,9.99998e-01,1.19824e-03,9.99999e-01
4.332284605e-01,1.36851e-03,9.99999e-01,9.99999e-01,1.36851e-03,9.99999e-01
4.353946028e-01,1.55889e-03,9.99999e-01,9.99999e-01,1.55889e-03,9.99999e-01
4.375715758e-01,1.77118e-03,9.99999e-01,9.99997e-01,1.77119e-03,9.99999e-01
4.397594337e-01,2.00729e-03,9.99999e-01,9.99980e-01,2.00732e-03,9.99999e-01
4.419582309e-01,2.26911e-03,9.99999e-01,9.99903e-01,2.26933e-03,9.99999e-01
4.441680220e-01,2.55913e-03,9.99999e-01,9.99922e-01,2.55932e-03,9.99999e-01
4.463888621e-01,2.87930e-03,9.99999e-01,9.99919e-01,2.87953e-03,9.99999e-01
4.486208064e-01,3.23209e-03,9.99999e-01,9.99949e-01,3.23226e-03,9.99999e-01
4.508639105e-01,3.61984e-03,9.99999e-01,9.99976e-01,3.61992e-03,9.99999e-01
4.531182300e-01,4.04498e-03,9.99999e-01,9.99990e-01,4.04502e-03,9.99999e-01
4.553838212e-01,4.51011e-03,9.99999e-01,9.99993e-01,4.51014e-03,9.99999e-01
4.576607403e-01,5.01793e-03,9.99999e-01,9.99996e-01,5.01794e-03,9.99999e-01
4.599490440e-01,5.57115e-03,9.99999e-01,9.99997e-01,5.57116e-03,9.99999e-01
4.622487892e-01,6.17261e-03,9.99999e-01,9.99999e-01,6.17261e-03,9.99999e-01
4.645600332e-01,6.82515e-03,9.99999e-01,9.99998e-01,6.82516e-03,9.99999e-01
4.668828333e-01,7.53155e-03,9.99999e-01,9.99976e-01,7.53173e-03,9.99999e-01
4.692172475e-01,8.29487e-03,9.99999e-01,9.99949e-01,8.29528e-03,9.99999e-01
4.715633337e-01,9.11854e-03,9.99999e-01,9.99966e-01,9.11883e-03,9.99999e-01
4.739211504e-01,1.00051e-02,9.99999e-01,9.99968e-01,1.00054e-02,9.99999e-01
4.762907561e-01,1.09579e-02,9.99999e-01,9.99983e-01,1.09581e-02,9.99999e-01
4.786722099e-01,1.19799e-02,9.99999e-01,9.99992e-01,1.19800e-02,9.99999e-01
4.810655710e-01,1.30741e-02,9.99999e-01,9.99997e-01,1.30741e-02,9.99999e-01
4.834708988e-01,1.42432e-02,9.99999e-01,9.99980e-01,1.42435e-02,9.99999e-01
4.858882533e-01,1.54907e-02,9.99999e-01,9.99963e-01,1.54913e-02,9.99999e-01
4.883176946e-01,1.68200e-02,9.99999e-01,9.99970e-01,1.68204e-02,9.99999e-01
4.907592831e-01,1.82335e-02,9.99999e-01,9.99972e-01,1.82340e-02,9.99999e-01
4.932130795e-01,1.97345e-02,9.99999e-01,9.99980e-01,1.97348e-02,9.99999e-01
4.956791449e-01,2.13257e-02,9.99999e-01,9.99989e-01,2.13259e-02,9.99999e-01
4.981575406e-01,2.30088e-02,9.99999e-01,9.99949e-01,2.30099e-02,9.99999e-01
5.006483283e-01,2.47865e-02,9.99999e-01,9.99870e-01,2.47897e-02,9.99999e-01
5.031515699e-01,2.66503e-02,9.99999e-01,9.99340e-01,2.66679e-02,9.99999e-01
5.056673278e-01,2.86370e-02,9.99999e-01,9.99650e-01,2.86470e-02,9.99999e-01
5.081956644e-01,3.07160e-02,9.99999e-01,9.99559e-01,3.07295e-02,9.99999e-01
5.107366428e-01,3.29079e-02,9.99999e-01,9.99701e-01,3.29177e-02,9.99999e-01
5.132903260e-01,3.52079e-02,9.99999e-01,9.99829e-01,3.52139e-02,9.99999e-01
5.158567776e-01,3.76174e-02,9.99999e-01,9.99927e-01,3.76201e-02,9.99999e-01
5.184360615e-01,4.01372e-02,9.99999e-01,9.99970e-01,4.01383e-02,9.99999e-01
5.210282418e-01,4.27699e-02,9.99999e-01,9.99988e-01,4.27703e-02,9.99999e-01
5.236333830e-01,4.55158e-02,9.99999e-01,9.99956e-01,4.55178e-02,9.99999e-01
5.262515499e-01,4.83809e-02,9.99999e-01,9.99972e-01,4.83822e-02,9.99999e-01
5.288828077e-01,5.13636e-02,9.99999e-01,9.99974e-01,5.13648e-02,9.99999e-01
5.315272217e-01,5.44658e-02,9.99999e-01,9.99977e-01,5.44670e-02,9.99999e-01
5.341848578e-01,5.76888e-02,9.99999e-01,9.99985e-01,5.76897e-02,9.99999e-01
5.368557821e-01,6.10306e-02,9.99999e-01,9.99949e-01,6.10336e-02,9.99999e-01
5.395400610e-01,6.44881e-02,9.99999e-01,9.99821e-01,6.44996e-02,9.99999e-01
5.422377613e-01,6.80722e-02,9.99999e-01,9.99765e-01,6.80881e-02,9.99999e-01
5.449489501e-01,7.17840e-02,9.99999e-01,9.99783e-01,7.17995e-02,9.99999e-01
5.476736949e-01,7.56191e-02,9.99999e-01,9.99806e-01,7.56338e-02,9.99999e-01
5.504120634e-01,7.95798e-02,9.99999e-01,9.99859e-01,7.95910e-02,9.99999e-01
5.531641237e-01,8.36650e-02,9.99999e-01,9.99928e-01,8.36709e-02,9.99999e-01
5.559299443e-01,8.78702e-02,9.99999e-01,9.99965e-01,8.78732e-02,9.99999e-01
5.587095940e-01,9.21952e-02,9.99999e-01,9.99978e-01,9.21972e-02,9.99999e-01
5.615031420e-01,9.66400e-02,9.99999e-01,9.99975e-01,9.66423e-02,9.99999e-01
5.643106577e-01,1.01205e-01,9.99999e-01,9.99973e-01,1.01207e-01,9.99999e-01
5.671322110e-01,1.05858e-01,9.99999e-01,9.99680e-01,1.05892e-01,9.99999e-01
5.699678720e-01,1.10655e-01,9.99999e-01,9.99648e-01,1.10694e-01,9.99999e-01
5.728177114e-01,1.15571e-01,9.99999e-01,9.99638e-01,1.15612e-01,9.99999e-01
5.756818000e-01,1.20606e-01,9.99999e-01,9.99667e-01,1.20646e-01,9.99999e-01
5.785602090e-01,1.25756e-01,9.99999e-01,9.99709e-01,1.25792e-01,9.99999e-01
5.814530100e-01,1.31012e-01,9.99999e-01,9.99709e-01,1.31051e-01,9.99999e-01
5.843602750e-01,1.36371e-01,9.99999e-01,9.99656e-01,1.36418e-01,9.99999e-01
5.872820764e-01,1.41473e-01,9.99999e-01,9.97039e-01,1.41893e-01,9.99999e-01
5.902184868e-01,1.46938e-01,9.99999e-01,9.96375e-01,1.47472e-01,9.99999e-01
5.931695792e-01,1.52764e-01,9.99999e-01,9.97447e-01,1.53155e-01,9.99999e-01
5.961354271e-01,1.58492e-01,9.99999e-01,9.97194e-01,1.58938e-01,9.99999e-01
5.991161043e-01,1.64480e-01,9.99999e-01,9.97951e-01,1.64818e-01,9.99999e-01
6.021116848e-01,1.70594e-01,9.99999e-01,9.98835e-01,1.70793e-01,9.99999e-01
6.051222432e-01,1.76756e-01,9.99999e-01,9.99410e-01,1.76861e-01,9.99999e-01
6.081478544e-01,1.82971e-01,9.99999e-01,9.99745e-01,1.83017e-01,9.99999e-01
6.111885937e-01,1.89240e-01,9.99999e-01,9.99891e-01,1.89260e-01,9.99999e-01
6.142445367e-01,1.95577e-01,9.99999e-01,9.99951e-01,1.95587e-01,9.99999e-01
6.173157594e-01,2.01988e-01,9.99999e-01,9.99973e-01,2.01993e-01,9.99999e-01
6.204023382e-01,2.08473e-01,9.99999e-01,9.99977e-01,2.08477e-01,9.99999e-01
6.235043498e-01,2.15014e-01,9.99999e-01,9.99903e-01,2.15035e-01,9.99999e-01
6.266218716e-01,2.21548e-01,9.99999e-01,9.99479e-01,2.21663e-01,9.99999e-01
6.297549810e-01,2.28315e-01,9.99999e-01,9.99808e-01,2.28359e-01,9.99999e-01
6.329037559e-01,2.35029e-01,9.99999e-01,9.99621e-01,2.35118e-01,9.99999e-01
6.360682746e-01,2.41861e-01,9.99999e-01,9.99679e-01,2.41939e-01,9.99999e-01
6.392486160e-01,2.48713e-01,9.99999e-01,9.99583e-01,2.48816e-01,9.99999e-01
6.424448591e-01,2.55620e-01,9.99999e-01,9.99501e-01,2.55748e-01,9.99999e-01
6.456570834e-01,2.62062e-01,9.99999e-01,9.97459e-01,2.62729e-01,9.99999e-01
6.488853688e-01,2.69156e-01,9.99999e-01,9.97767e-01,2.69758e-01,9.99999e-01
6.521297956e-01,2.76295e-01,9.99999e-01,9.98064e-01,2.76831e-01,9.99999e-01
6.553904446e-01,2.83402e-01,9.99999e-01,9.98090e-01,2.83944e-01,9.99999e-01
6.586673968e-01,2.90612e-01,9.99999e-01,9.98347e-01,2.91093e-01,9.99999e-01
6.619607338e-01,2.97992e-01,9.99999e-01,9.99044e-01,2.98276e-01,9.99999e-01
6.652705375e-01,3.05320e-01,9.99999e-01,9.99444e-01,3.05490e-01,9.99999e-01
6.685968902e-01,3.12649e-01,9.99999e-01,9.99742e-01,3.12730e-01,9.99999e-01
6.719398746e-01,3.19955e-01,9.99999e-01,9.99880e-01,3.19993e-01,9.99999e-01
6.752995740e-01,3.27256e-01,9.99999e-01,9.99935e-01,3.27277e-01,9.99999e-01
6.786760719e-01,3.34547e-01,9.99999e-01,9.99907e-01,3.34578e-01,9.99999e-01
6.820694522e-01,3.41838e-01,9.99999e-01,9.99841e-01,3.41892e-01,9.99999e-01
6.854797995e-01,3.49146e-01,9.99999e-01,9.99795e-01,3.49218e-01,9.99999e-01
6.889071985e-01,3.56377e-01,9.99999e-01,9.99514e-01,3.56551e-01,9.99999e-01
6.923517345e-01,3.60970e-01,9.99999e-01,9.91981e-01,3.63888e-01,9.99999e-01
6.958134932e-01,3.69641e-01,9.99999e-01,9.95727e-01,3.71227e-01,9.99999e-01
6.992925606e-01,3.77063e-01,9.99999e-01,9.96032e-01,3.78565e-01,9.99999e-01
7.027890234e-01,3.83991e-01,9.99999e-01,9.95056e-01,3.85899e-01,9.99999e-01
7.063029686e-01,3.91593e-01,9.99999e-01,9.95847e-01,3.93225e-01,9.99999e-01
7.098344834e-01,3.98946e-01,9.99999e-01,9.96015e-01,4.00542e-01,9.99999e-01
7.133836558e-01,4.05715e-01,9.99999e-01,9.94772e-01,4.07847e-01,9.99999e-01
7.169505741e-01,3.97817e-01,9.99999e-01,9.58280e-01,4.15136e-01,9.99999e-01
7.205353270e-01,4.13509e-01,9.99999e-01,9.78933e-01,4.22408e-01,9.99998e-01
7.241380036e-01,4.18402e-01,9.99999e-01,9.73797e-01,4.29660e-01,9.99998e-01
7.277586936e-01,4.26535e-01,9.99999e-01,9.76299e-01,4.36889e-01,9.99999e-01
7.313974871e-01,4.32832e-01,9.99999e-01,9.74639e-01,4.44094e-01,9.99999e-01
7.350544745e-01,4.45002e-01,9.99999e-01,9.86106e-01,4.51272e-01,9.99999e-01
7.387297469e-01,4.53724e-01,9.99999e-01,9.89753e-01,4.58420e-01,9.99999e-01
7.424233956e-01,4.63192e-01,9.99999e-01,9.94961e-01,4.65538e-01,9.99999e-01
7.461355126e-01,4.71181e-01,9.99999e-01,9.96950e-01,4.72622e-01,9.99999e-01
7.498661902e-01,4.78987e-01,9.99999e-01,9.98575e-01,4.79670e-01,9.99999e-01
7.536155211e-01,4.86343e-01,9.99999e-01,9.99303e-01,4.86682e-01,9.99999e-01
7.573835987e-01,4.93477e-01,9.99999e-01,9.99640e-01,4.93654e-01,9.99999e-01
7.611705167e-01,5.00474e-01,9.99999e-01,9.99776e-01,5.00585e-01,9.99999e-01
7.649763693e-01,5.07404e-01,9.99999e-01,9.99860e-01,5.07475e-01,9.99999e-01
7.688012511e-01,5.14270e-01,9.99999e-01,9.99902e-01,5.14320e-01,9.99999e-01
7.726452574e-01,5.21078e-01,9.99999e-01,9.99919e-01,5.21119e-01,9.99999e-01
7.765084837e-01,5.27812e-01,9.99999e-01,9.99887e-01,5.27871e-01,9.99999e-01
7.803910261e-01,5.19105e-01,9.71516e-01,9.99515e-01,5.34575e-01,9.99999e-01
7.842929812e-01,4.72728e-01,8.74848e-01,9.98310e-01,5.41229e-01,9.99999e-01
7.882144461e-01,4.73605e-01,8.67449e-01,9.96485e-01,5.47832e-01,9.99999e-01
7.921555184e-01,5.09484e-01,9.20759e-01,9.98060e-01,5.54383e-01,9.99999e-01
7.961162960e-01,5.28706e-01,9.45807e-01,9.96617e-01,5.60881e-01,9.99999e-01
8.000968774e-01,5.48323e-01,9.70313e-01,9.96067e-01,5.67324e-01,9.99999e-01
8.040973618e-01,5.62570e-01,9.84438e-01,9.96073e-01,5.73711e-01,9.99999e-01
8.081178486e-01,5.70859e-01,9.92864e-01,9.91229e-01,5.80042e-01,9.99999e-01
8.121584379e-01,5.63836e-01,9.97769e-01,9.63789e-01,5.86316e-01,9.99999e-01
8.162192301e-01,5.66565e-01,9.99506e-01,9.56640e-01,5.92532e-01,9.99998e-01
8.203003262e-01,5.85851e-01,9.99991e-01,9.78563e-01,5.98689e-01,9.99998e-01
8.244018279e-01,5.86187e-01,9.99999e-01,9.69246e-01,6.04787e-01,9.99998e-01
8.285238370e-01,5.95013e-01,9.99999e-01,9.74115e-01,6.10824e-01,9.99999e-01
8.326664562e-01,6.00582e-01,9.99999e-01,9.73704e-01,6.16801e-01,9.99999e-01
8.368297885e-01,6.10964e-01,9.99999e-01,9.81127e-01,6.22716e-01,9.99999e-01
8.410139374e-01,6.21494e-01,9.99999e-01,9.88743e-01,6.28569e-01,9.99999e-01
8.452190071e-01,6.30847e-01,9.99999e-01,9.94460e-01,6.34361e-01,9.99999e-01
8.494451021e-01,6.38040e-01,9.99999e-01,9.96797e-01,6.40089e-01,9.99999e-01
8.536923276e-01,6.44527e-01,9.99999e-01,9.98097e-01,6.45755e-01,9.99999e-01
8.579607893e-01,6.50597e-01,9.99999e-01,9.98832e-01,6.51358e-01,9.99999e-01
8.622505932e-01,6.56408e-01,9.99999e-01,9.99255e-01,6.56896e-01,9.99999e-01
8.665618462e-01,6.18399e-01,9.34025e-01,9.99541e-01,6.62372e-01,9.99999e-01
8.708946554e-01,4.75697e-01,7.12712e-01,9.99476e-01,6.67783e-01,9.99999e-01
8.752491287e-01,5.11783e-01,7.60820e-01,9.99299e-01,6.73131e-01,9.99999e-01
8.796253743e-01,5.83359e-01,8.60695e-01,9.99033e-01,6.78414e-01,9.99999e-01
8.840235012e-01,6.31881e-01,9.25307e-01,9.98894e-01,6.83633e-01,9.99999e-01
8.884436187e-01,6.65325e-01,9.69727e-01,9.96055e-01,6.88788e-01,9.99999e-01
8.928858368e-01,6.56934e-01,9.87675e-01,9.58481e-01,6.93879e-01,9.99998e-01
8.973502660e-01,6.45879e-01,9.96970e-01,9.26887e-01,6.98906e-01,9.99998e-01
9.018370173e-01,6.76667e-01,9.99664e-01,9.61666e-01,7.03870e-01,9.99998e-01
9.063462024e-01,6.79755e-01,9.91759e-01,9.66815e-01,7.08769e-01,9.99998e-01
9.108779334e-01,6.63838e-01,9.80657e-01,9.48409e-01,7.13604e-01,9.99998e-01
9.154323231e-01,6.73271e-01,9.95375e-01,9.41485e-01,7.18376e-01,9.99998e-01
9.200094847e-01,6.47038e-01,9.36191e-01,9.53726e-01,7.23085e-01,9.99997e-01
9.246095321e-01,6.16054e-01,9.08891e-01,9.30015e-01,7.27731e-01,9.99996e-01
9.292325798e-01,4.18328e-01,9.28638e-01,6.10901e-01,7.32314e-01,9.99992e-01
9.338787427e-01,3.62796e-01,9.30200e-01,5.25622e-01,7.36834e-01,9.99990e-01
9.385481364e-01,5.43743e-01,9.48267e-01,7.71392e-01,7.41292e-01,9.99990e-01
9.432408771e-01,5.05535e-01,9.67880e-01,6.99331e-01,7.45689e-01,9.99989e-01
9.479570815e-01,4.50884e-01,9.83456e-01,6.10790e-01,7.50023e-01,9.99990e-01
9.526968669e-01,5.15673e-01,9.91972e-01,6.88732e-01,7.54297e-01,9.99992e-01
9.574603512e-01,5.37282e-01,9.96557e-01,7.10645e-01,7.58510e-01,9.99994e-01
9.622476530e-01,5.76548e-01,9.98923e-01,7.56741e-01,7.62662e-01,9.99996e-01
9.670588912e-01,6.52982e-01,9.99676e-01,8.51881e-01,7.66755e-01,9.99997e-01
9.718941857e-01,6.97458e-01,9.99976e-01,9.04884e-01,7.70788e-01,9.99998e-01
9.767536566e-01,7.13111e-01,9.99999e-01,9.20426e-01,7.74762e-01,9.99998e-01
9.816374249e-01,7.32156e-01,9.99999e-01,9.40256e-01,7.78677e-01,9.99998e-01
9.865456120e-01,7.52987e-01,9.99999e-01,9.62241e-01,7.82534e-01,9.99999e-01
9.914783401e-01,7.67867e-01,9.99999e-01,9.76514e-01,7.86334e-01,9.99999e-01
9.964357318e-01,7.79915e-01,9.99999e-01,9.87138e-01,7.90076e-01,9.99999e-01
1.001417910e+00,7.87628e-01,9.99999e-01,9.92271e-01,7.93762e-01,9.99999e-01
1.006425000e+00,7.93882e-01,9.99999e-01,9.95598e-01,7.97391e-01,9.99999e-01
1.011457125e+00,7.98769e-01,9.99999e-01,9.97257e-01,8.00965e-01,9.99999e-01
1.016514411e+00,8.02989e-01,9.99999e-01,9.98141e-01,8.04484e-01,9.99999e-01
1.021596983e+00,8.06722e-01,9.99960e-01,9.98519e-01,8.07949e-01,9.99999e-01
1.026704968e+00,8.07827e-01,9.96794e-01,9.98846e-01,8.11359e-01,9.99999e-01
1.031838492e+00,7.83983e-01,9.63065e-01,9.99159e-01,8.14716e-01,9.99999e-01
1.036997685e+00,1.42671e-01,1.74479e-01,9.99501e-01,8.18021e-01,9.99999e-01
1.042182673e+00,1.24656e-01,1.51865e-01,9.99408e-01,8.21273e-01,9.99999e-01
1.047393587e+00,1.41920e-01,1.72254e-01,9.99213e-01,8.24473e-01,9.99999e-01
1.052630555e+00,5.75679e-03,6.96140e-03,9.98923e-01,8.27622e-01,9.99999e-01
1.057893707e+00,1.35270e-02,1.63037e-02,9.98205e-01,8.30721e-01,9.99999e-01
1.063183176e+00,4.04742e-02,4.86489e-02,9.97044e-01,8.33770e-01,9.99999e-01
1.068499092e+00,1.04228e-01,1.25089e-01,9.95047e-01,8.36769e-01,9.99999e-01
1.073841587e+00,2.23754e-01,2.67797e-01,9.94217e-01,8.39720e-01,9.99999e-01
1.079210795e+00,3.63637e-01,4.34528e-01,9.92566e-01,8.42622e-01,9.99999e-01
1.084606849e+00,5.28640e-01,6.32049e-01,9.88788e-01,8.45477e-01,9.99999e-01
1.090029883e+00,6.58372e-01,7.88409e-01,9.84035e-01,8.48285e-01,9.99998e-01
1.095480033e+00,7.24598e-01,8.89315e-01,9.56987e-01,8.51046e-01,9.99998e-01
1.100957433e+00,7.21929e-01,9.45084e-01,8.94265e-01,8.53762e-01,9.99997e-01
1.106462220e+00,6.30576e-01,9.76886e-01,7.53157e-01,8.56432e-01,9.99995e-01
1.111994531e+00,4.68018e-01,9.91372e-01,5.49249e-01,8.59058e-01,9.99991e-01
1.117554504e+00,3.26104e-01,9.97875e-01,3.79144e-01,8.61640e-01,9.99987e-01
1.123142276e+00,4.22767e-01,9.99859e-01,4.89255e-01,8.64178e-01,9.99985e-01
1.128757988e+00,5.49083e-01,9.99999e-01,6.33561e-01,8.66673e-01,9.99984e-01
1.134401778e+00,3.20615e-01,9.99999e-01,3.68899e-01,8.69126e-01,9.99982e-01
1.140073787e+00,6.63860e-01,9.99999e-01,7.61721e-01,8.71538e-01,9.99985e-01
1.145774156e+00,4.94655e-01,9.99999e-01,5.66032e-01,8.73908e-01,9.99987e-01
1.151503026e+00,4.65326e-01,9.99999e-01,5.31054e-01,8.76238e-01,9.99989e-01
1.157260541e+00,5.17419e-01,9.99999e-01,5.88966e-01,8.78527e-01,9.99991e-01
1.163046844e+00,5.94917e-01,9.99999e-01,6.75447e-01,8.80778e-01,9.99994e-01
1.168862078e+00,6.72224e-01,9.99999e-01,7.61307e-01,8.82989e-01,9.99997e-01
1.174706389e+00,7.48104e-01,9.99999e-01,8.45161e-01,8.85162e-01,9.99998e-01
1.180579921e+00,8.00850e-01,9.99999e-01,9.02572e-01,8.87297e-01,9.99998e-01
1.186482820e+00,8.39411e-01,9.99995e-01,9.43803e-01,8.89396e-01,9.99998e-01
1.192415234e+00,8.52233e-01,9.88662e-01,9.66853e-01,8.91457e-01,9.99998e-01
1.198377311e+00,4.93961e-01,5.66126e-01,9.72051e-01,8.93483e-01,9.99999e-01
1.204369197e+00,4.01439e-10,4.55299e-10,9.73500e-01,8.95472e-01,9.99999e-01
1.210391043e+00,4.72729e-36,5.34317e-36,9.74640e-01,8.97427e-01,9.99999e-01
1.216442998e+00,2.04802e-31,2.30818e-31,9.78331e-01,8.99348e-01,9.99999e-01
1.222525213e+00,5.77652e-31,6.46589e-31,9.83111e-01,9.01234e-01,9.99999e-01
1.228637839e+00,5.67699e-24,6.33808e-24,9.88254e-01,9.03087e-01,9.99999e-01
1.234781029e+00,1.06675e-15,1.18332e-15,9.91253e-01,9.04908e-01,9.99999e-01
1.240954934e+00,1.19822e-10,1.32629e-10,9.94468e-01,9.06695e-01,9.99999e-01
1.247159708e+00,5.27748e-07,5.82746e-07,9.95686e-01,9.08451e-01,9.99999e-01
1.253395507e+00,7.00356e-04,7.71713e-04,9.96175e-01,9.10176e-01,9.99999e-01
1.259662485e+00,1.09204e-02,1.20108e-02,9.96404e-01,9.11869e-01,9.99999e-01
1.265960797e+00,8.33214e-02,9.16371e-02,9.94225e-01,9.13533e-01,9.99999e-01
1.272290601e+00,3.08222e-01,3.39416e-01,9.91515e-01,9.15166e-01,9.99999e-01
1.278652054e+00,2.89184e-01,3.20077e-01,9.82130e-01,9.16770e-01,9.99999e-01
1.285045314e+00,9.94157e-03,1.09865e-02,9.72074e-01,9.18345e-01,9.99998e-01
1.291470541e+00,6.06616e-05,6.84618e-05,9.44484e-01,9.19891e-01,9.99998e-01
1.297927893e+00,6.77589e-03,7.63963e-03,9.28051e-01,9.21410e-01,9.99997e-01
1.304417533e+00,1.37099e-01,1.62055e-01,9.08049e-01,9.22900e-01,9.99995e-01
1.310939621e+00,3.61812e-02,4.18491e-02,8.96012e-01,9.24364e-01,9.99993e-01
1.317494319e+00,6.75619e-13,7.83325e-13,8.86823e-01,9.25801e-01,9.99989e-01
1.324081790e+00,4.64915e-09,5.46354e-09,8.35970e-01,9.27212e-01,9.99982e-01
1.330702199e+00,1.74912e-05,2.70015e-05,4.96325e-01,9.28597e-01,9.99971e-01
1.337355710e+00,8.44198e-06,2.93777e-05,1.62582e-01,9.29957e-01,9.99945e-01
1.344042489e+00,1.37973e-06,9.02916e-06,1.18736e-02,9.31292e-01,9.99882e-01
1.350762701e+00,5.89523e-09,1.69999e-05,1.01916e-04,9.32602e-01,9.99813e-01
1.357516515e+00,8.15217e-09,8.31582e-04,2.73088e-06,9.33889e-01,9.99768e-01
1.364304097e+00,4.43861e-06,1.03501e-02,2.38896e-04,9.35151e-01,9.99752e-01
1.371125618e+00,4.77496e-04,9.11765e-02,3.58031e-03,9.36390e-01,9.99749e-01
1.377981246e+00,1.41999e-03,1.42491e-01,8.57132e-03,9.37607e-01,9.99731e-01
1.384871152e+00,1.06965e-04,3.21487e-01,2.88544e-04,9.38801e-01,9.99734e-01
1.391795508e+00,1.32238e-04,3.50224e-01,3.31069e-04,9.39972e-01,9.99772e-01
1.398754485e+00,6.32076e-04,5.23773e-01,1.20488e-03,9.41122e-01,9.99809e-01
1.405748258e+00,7.29720e-04,6.20658e-01,1.14768e-03,9.42251e-01,9.99829e-01
1.412776999e+00,8.54737e-04,7.39792e-01,1.15355e-03,9.43359e-01,9.99862e-01
1.419840884e+00,1.43246e-03,6.73608e-01,1.87833e-03,9.44446e-01,9.99897e-01
1.426940089e+00,2.09283e-03,6.84396e-02,7.02378e-03,9.45513e-01,9.99936e-01
1.434074789e+00,0.00000e+00,0.00000e+00,2.29040e-02,9.46560e-01,9.99960e-01
1.441245163e+00,0.00000e+00,0.00000e+00,5.50352e-02,9.47587e-01,9.99968e-01
1.448451389e+00,0.00000e+00,0.00000e+00,1.27317e-01,9.48595e-01,9.99974e-01
1.455693646e+00,8.95699e-288,1.91616e-287,2.53657e-01,9.49585e-01,9.99978e-01
1.462972114e+00,9.76529e-140,2.08694e-139,3.08818e-01,9.50555e-01,9.99981e-01
1.470286975e+00,4.99455e-59,1.12793e-58,2.53672e-01,9.51508e-01,9.99983e-01
