#,Wave/freq,Total,CO2,H2O,Rayleigh,CIA
4.000000000e-01,8.36868e-04,9.99999e-01,9.99985e-01,8.36880e-04,9.99999e-01
4.020000000e-01,9.62738e-04,9.99999e-01,9.99990e-01,9.62747e-04,9.99999e-01
4.040100000e-01,1.10432e-03,9.99999e-01,9.99995e-01,1.10432e-03,9.99999e-01
4.060300500e-01,1.26328e-03,9.99999e-01,9.99998e-01,1.26328e-03,9.99999e-01
4.080602003e-01,1.44130e-03,9.99999e-01,9.99999e-01,1.44130e-03,9.99999e-01
4.101005013e-01,1.64012e-03,9.99999e-01,9.99999e-01,1.64012e-03,9.99999e-01
4.121510038e-01,1.86161e-03,9.99999e-01,9.99998e-01,1.86161e-03,9.99999e-01
4.142117588e-01,2.10772e-03,9.99999e-01,9.99995e-01,2.10773e-03,9.99999e-01
4.162828176e-01,2.38050e-03,9.99999e-01,9.99982e-01,2.38054e-03,9.99999e-01
4.183642317e-01,2.68219e-03,9.99999e-01,9.99989e-01,2.68221e-03,9.99999e-01
4.204560528e-01,3.01498e-03,9.99999e-01,9.99993e-01,3.01500e-03,9.99999e-01
4.225583331e-01,3.38124e-03,9.99999e-01,9.99997e-01,3.38125e-03,9.99999e-01
4.246711247e-01,3.78341e-03,9.99999e-01,9.99997e-01,3.78342e-03,9.99999e-01
4.267944804e-01,4.22402e-03,9.99999e-01,9.99996e-01,4.22403e-03,9.99999e-01
4.289284528e-01,4.70570e-03,9.99999e-01,9.99997e-01,4.70571e-03,9.99999e-01
4.310730950e-01,5.23113e-03,9.99999e-01,9.99998e-01,5.23114e-03,9.99999e-01
4.332284605e-01,5.80309e-03,9.99999e-01,9.99999e-01,5.80309e-03,9.99999e-01
4.353946028e-01,6.42440e-03,9.99999e-01,9.99999e-01,6.42440e-03,9.99999e-01
4.375715758e-01,7.09795e-03,9.99999e-01,9.99997e-01,7.09796e-03,9.99999e-01
4.397594337e-01,7.82659e-03,9.99999e-01,9.99984e-01,7.82671e-03,9.99999e-01
4.419582309e-01,8.61297e-03,9.99999e-01,9.99923e-01,8.61363e-03,9.99999e-01
4.441680220e-01,9.46117e-03,9.99999e-01,9.99939e-01,9.46174e-03,9.99999e-01
4.463888621e-01,1.03735e-02,9.99999e-01,9.99937e-01,1.03741e-02,9.99999e-01
4.486208064e-01,1.13533e-02,9.99999e-01,9.99960e-01,1.13538e-02,9.99999e-01
4.508639105e-01,1.24036e-02,9.99999e-01,9.99981e-01,1.24038e-02,9.99999e-01
4.531182300e-01,1.35273e-02,9.99999e-01,9.99992e-01,1.35274e-02,9.99999e-01
4.553838212e-01,1.47273e-02,9.99999e-01,9.99994e-01,1.47274e-02,9.99999e-01
4.576607403e-01,1.60070e-02,9.99999e-01,9.99997e-01,1.60070e-02,9.99999e-01
4.599490440e-01,1.73692e-02,9.99999e-01,9.99997e-01,1.73692e-02,9.99999e-01
4.622487892e-01,1.88169e-02,9.99999e-01,9.99999e-01,1.88169e-02,9.99999e-01
4.645600332e-01,2.03531e-02,9.99999e-01,9.99998e-01,2.03531e-02,9.99999e-01
4.668828333e-01,2.19802e-02,9.99999e-01,9.99981e-01,2.19806e-02,9.99999e-01
4.692172475e-01,2.37012e-02,9.99999e-01,9.99960e-01,2.37022e-02,9.99999e-01
4.715633337e-01,2.55199e-02,9.99999e-01,9.99974e-01,2.55206e-02,9.99999e-01
4.739211504e-01,2.74377e-02,9.99999e-01,9.99975e-01,2.74383e-02,9.99999e-01
4.762907561e-01,2.94577e-02,9.99999e-01,9.99986e-01,2.94581e-02,9.99999e-01
4.786722099e-01,3.15820e-02,9.99999e-01,9.99994e-01,3.15821e-02,9.99999e-01
4.810655710e-01,3.38127e-02,9.99999e-01,9.99997e-01,3.38128e-02,9.99999e-01
4.834708988e-01,3.61517e-02,9.99999e-01,9.99984e-01,3.61522e-02,9.99999e-01
4.858882533e-01,3.86014e-02,9.99999e-01,9.99971e-01,3.86025e-02,9.99999e-01
4.883176946e-01,4.11646e-02,9.99999e-01,9.99976e-01,4.11655e-02,9.99999e-01
4.907592831e-01,4.38420e-02,9.99999e-01,9.99978e-01,4.38430e-02,9.99999e-01
4.932130795e-01,4.66358e-02,9.99999e-01,9.99984e-01,4.66365e-02,9.99999e-01
4.956791449e-01,4.95471e-02,9.99999e-01,9.99991e-01,4.95475e-02,9.99999e-01
4.981575406e-01,5.25752e-02,9.99999e-01,9.99960e-01,5.25773e-02,9.99999e-01
5.006483283e-01,5.57214e-02,9.99999e-01,9.99898e-01,5.57270e-02,9.99999e-01
5.031515699e-01,5.89672e-02,9.99999e-01,9.99484e-01,5.89975e-02,9.99999e-01
5.056673278e-01,6.23727e-02,9.99999e-01,9.99727e-01,6.23897e-02,9.99999e-01
5.081956644e-01,6.58814e-02,9.99999e-01,9.99655e-01,6.59041e-02,9.99999e-01
5.107366428e-01,6.95250e-02,9.99999e-01,9.99767e-01,6.95411e-02,9.99999e-01
5.132903260e-01,7.32913e-02,9.99999e-01,9.99866e-01,7.33011e-02,9.99999e-01
5.158567776e-01,7.71797e-02,9.99999e-01,9.99943e-01,7.71840e-02,9.99999e-01
5.184360615e-01,8.11880e-02,9.99999e-01,9.99977e-01,8.11898e-02,9.99999e-01
5.210282418e-01,8.53174e-02,9.99999e-01,9.99991e-01,8.53182e-02,9.99999e-01
5.236333830e-01,8.95656e-02,9.99999e-01,9.99965e-01,8.95686e-02,9.99999e-01
5.262515499e-01,9.39387e-02,9.99999e-01,9.99978e-01,9.39406e-02,9.99999e-01
5.288828077e-01,9.84314e-02,9.99999e-01,9.99980e-01,9.84333e-02,9.99999e-01
5.315272217e-01,1.03044e-01,9.99999e-01,9.99982e-01,1.03046e-01,9.99999e-01
5.341848578e-01,1.07776e-01,9.99999e-01,9.99988e-01,1.07777e-01,9.99999e-01
5.368557821e-01,1.12621e-01,9.99999e-01,9.99960e-01,1.12625e-01,9.99999e-01
5.395400610e-01,1.17573e-01,9.99999e-01,9.99859e-01,1.17589e-01,9.99999e-01
5.422377613e-01,1.22645e-01,9.99999e-01,9.99816e-01,1.22668e-01,9.99999e-01
5.449489501e-01,1.27837e-01,9.99999e-01,9.99830e-01,1.27859e-01,9.99999e-01
5.476736949e-01,1.33140e-01,9.99999e-01,9.99848e-01,1.33160e-01,9.99999e-01
5.504120634e-01,1.38555e-01,9.99999e-01,9.99890e-01,1.38570e-01,9.99999e-01
5.531641237e-01,1.44079e-01,9.99999e-01,9.99944e-01,1.44087e-01,9.99999e-01
5.559299443e-01,1.49704e-01,9.99999e-01,9.99972e-01,1.49708e-01,9.99999e-01
5.587095940e-01,1.55427e-01,9.99999e-01,9.99982e-01,1.55430e-01,9.99999e-01
5.615031420e-01,1.61249e-01,9.99999e-01,9.99981e-01,1.61251e-01,9.99999e-01
5.643106577e-01,1.67166e-01,9.99999e-01,9.99978e-01,1.67170e-01,9.99999e-01
5.671322110e-01,1.73138e-01,9.99999e-01,9.99748e-01,1.73182e-01,9.99999e-01
5.699678720e-01,1.79236e-01,9.99999e-01,9.99726e-01,1.79285e-01,9.99999e-01
5.728177114e-01,1.85424e-01,9.99999e-01,9.99717e-01,1.85476e-01,9.99999e-01
5.756818000e-01,1.91703e-01,9.99999e-01,9.99740e-01,1.91752e-01,9.99999e-01
5.785602090e-01,1.98066e-01,9.99999e-01,9.99773e-01,1.98111e-01,9.99999e-01
5.814530100e-01,2.04502e-01,9.99999e-01,9.99772e-01,2.04549e-01,9.99999e-01
5.843602750e-01,2.11005e-01,9.99999e-01,9.99731e-01,2.11062e-01,9.99999e-01
5.872820764e-01,2.17143e-01,9.99999e-01,9.97681e-01,2.17648e-01,9.99999e-01
5.902184868e-01,2.23668e-01,9.99999e-01,9.97169e-01,2.24303e-01,9.99999e-01
5.931695792e-01,2.30564e-01,9.99999e-01,9.98005e-01,2.31024e-01,9.99999e-01
5.961354271e-01,2.37288e-01,9.99999e-01,9.97809e-01,2.37808e-01,9.99999e-01
5.991161043e-01,2.44261e-01,9.99999e-01,9.98400e-01,2.44652e-01,9.99999e-01
6.021116848e-01,2.51323e-01,9.99999e-01,9.99091e-01,2.51551e-01,9.99999e-01
6.051222432e-01,2.58384e-01,9.99999e-01,9.99539e-01,2.58503e-01,9.99999e-01
6.081478544e-01,2.65451e-01,9.99999e-01,9.99801e-01,2.65504e-01,9.99999e-01
6.111885937e-01,2.72527e-01,9.99999e-01,9.99915e-01,2.72550e-01,9.99999e-01
6.142445367e-01,2.79629e-01,9.99999e-01,9.99962e-01,2.79639e-01,9.99999e-01
6.173157594e-01,2.86761e-01,9.99999e-01,9.99978e-01,2.86767e-01,9.99999e-01
6.204023382e-01,2.93925e-01,9.99999e-01,9.99982e-01,2.93930e-01,9.99999e-01
6.235043498e-01,3.01103e-01,9.99999e-01,9.99923e-01,3.01125e-01,9.99999e-01
6.266218716e-01,3.08224e-01,9.99999e-01,9.99593e-01,3.08350e-01,9.99999e-01
6.297549810e-01,3.15552e-01,9.99999e-01,9.99850e-01,3.15599e-01,9.99999e-01
6.329037559e-01,3.22776e-01,9.99999e-01,9.99704e-01,3.22871e-01,9.99999e-01
6.360682746e-01,3.30080e-01,9.99999e-01,9.99749e-01,3.30162e-01,9.99999e-01
6.392486160e-01,3.37359e-01,9.99999e-01,9.99674e-01,3.37469e-01,9.99999e-01
6.424448591e-01,3.44639e-01,9.99999e-01,9.99567e-01,3.44788e-01,9.99999e-01
6.456570834e-01,3.51410e-01,9.99999e-01,9.97993e-01,3.52117e-01,9.99999e-01
6.488853688e-01,3.58827e-01,9.99999e-01,9.98261e-01,3.59452e-01,9.99999e-01
6.521297956e-01,3.66236e-01,9.99999e-01,9.98488e-01,3.66790e-01,9.99999e-01
6.553904446e-01,3.73571e-01,9.99999e-01,9.98507e-01,3.74129e-01,9.99999e-01
6.586673968e-01,3.80974e-01,9.99999e-01,9.98710e-01,3.81466e-01,9.99999e-01
6.619607338e-01,3.88507e-01,9.99999e-01,9.99254e-01,3.88797e-01,9.99999e-01
6.652705375e-01,3.95949e-01,9.99999e-01,9.99567e-01,3.96120e-01,9.99999e-01
6.685968902e-01,4.03351e-01,9.99999e-01,9.99798e-01,4.03432e-01,9.99999e-01
6.719398746e-01,4.10693e-01,9.99999e-01,9.99906e-01,4.10731e-01,9.99999e-01
6.752995740e-01,4.17993e-01,9.99999e-01,9.99949e-01,4.18014e-01,9.99999e-01
6.786760719e-01,4.25248e-01,9.99999e-01,9.99927e-01,4.25278e-01,9.99999e-01
6.820694522e-01,4.32468e-01,9.99999e-01,9.99875e-01,4.32522e-01,9.99999e-01
6.854797995e-01,4.39672e-01,9.99999e-01,9.99840e-01,4.39742e-01,9.99999e-01
6.889071985e-01,4.46766e-01,9.99999e-01,9.99618e-01,4.46936e-01,9.99999e-01
6.923517345e-01,4.51250e-01,9.99999e-01,9.93718e-01,4.54103e-01,9.99999e-01
6.958134932e-01,4.59704e-01,9.99999e-01,9.96672e-01,4.61239e-01,9.99999e-01
6.992925606e-01,4.66889e-01,9.99999e-01,9.96893e-01,4.68343e-01,9.99999e-01
7.027890234e-01,4.73578e-01,9.99999e-01,9.96139e-01,4.75413e-01,9.99999e-01
7.063029686e-01,4.80883e-01,9.99999e-01,9.96756e-01,4.82448e-01,9.99999e-01
7.098344834e-01,4.87921e-01,9.99999e-01,9.96887e-01,4.89444e-01,9.99999e-01
7.133836558e-01,4.94364e-01,9.99999e-01,9.95897e-01,4.96400e-01,9.99999e-01
7.169505741e-01,4.86787e-01,9.99999e-01,9.67160e-01,5.03315e-01,9.99999e-01
7.205353270e-01,5.01799e-01,9.99999e-01,9.83559e-01,5.10187e-01,9.99999e-01
7.241380036e-01,5.06387e-01,9.99999e-01,9.79444e-01,5.17014e-01,9.99999e-01
7.277586936e-01,5.14061e-01,9.99999e-01,9.81417e-01,5.23795e-01,9.99999e-01
7.313974871e-01,5.20002e-01,9.99999e-01,9.80157e-01,5.30528e-01,9.99999e-01
7.350544745e-01,5.31378e-01,9.99999e-01,9.89139e-01,5.37213e-01,9.99999e-01
7.387297469e-01,5.39494e-01,9.99999e-01,9.91996e-01,5.43847e-01,9.99999e-01
7.424233956e-01,5.48267e-01,9.99999e-01,9.96070e-01,5.50429e-01,9.99999e-01
7.461355126e-01,5.55634e-01,9.99999e-01,9.97620e-01,5.56959e-01,9.99999e-01
7.498661902e-01,5.62810e-01,9.99999e-01,9.98889e-01,5.63435e-01,9.99999e-01
7.536155211e-01,5.69547e-01,9.99999e-01,9.99456e-01,5.69856e-01,9.99999e-01
7.573835987e-01,5.76061e-01,9.99999e-01,9.99719e-01,5.76222e-01,9.99999e-01
7.611705167e-01,5.82429e-01,9.99999e-01,9.99825e-01,5.82530e-01,9.99999e-01
7.649763693e-01,5.88717e-01,9.99999e-01,9.99890e-01,5.88781e-01,9.99999e-01
7.688012511e-01,5.94929e-01,9.99999e-01,9.99923e-01,5.94974e-01,9.99999e-01
7.726452574e-01,6.01070e-01,9.99999e-01,9.99937e-01,6.01108e-01,9.99999e-01
7.765084837e-01,6.07128e-01,9.99999e-01,9.99911e-01,6.07181e-01,9.99999e-01
7.803910261e-01,5.98858e-01,9.76981e-01,9.99620e-01,6.13195e-01,9.99999e-01
7.842929812e-01,5.56786e-01,9.00429e-01,9.98676e-01,6.19147e-01,9.99999e-01
7.882144461e-01,5.57361e-01,8.94109e-01,9.97254e-01,6.25038e-01,9.99999e-01
7.921555184e-01,5.90511e-01,9.37425e-01,9.98486e-01,6.30867e-01,9.99999e-01
7.961162960e-01,6.07955e-01,9.57471e-01,9.97352e-01,6.36634e-01,9.99999e-01
8.000968774e-01,6.25487e-01,9.76761e-01,9.96927e-01,6.42337e-01,9.99999e-01
8.040973618e-01,6.38148e-01,9.87856e-01,9.96930e-01,6.47978e-01,9.99999e-01
8.081178486e-01,6.45451e-01,9.94429e-01,9.93124e-01,6.53556e-01,9.99999e-01
8.121584379e-01,6.39202e-01,9.98264e-01,9.71530e-01,6.59069e-01,9.99999e-01
8.162192301e-01,6.41672e-01,9.99616e-01,9.65983e-01,6.64519e-01,9.99999e-01
8.203003262e-01,6.58582e-01,9.99993e-01,9.83102e-01,6.69906e-01,9.99998e-01
8.244018279e-01,6.58956e-01,9.99999e-01,9.75901e-01,6.75228e-01,9.99998e-01
8.285238370e-01,6.66672e-01,9.99999e-01,9.79700e-01,6.80486e-01,9.99999e-01
8.326664562e-01,6.71555e-01,9.99999e-01,9.79400e-01,6.85680e-01,9.99999e-01
8.368297885e-01,6.80615e-01,9.99999e-01,9.85242e-01,6.90809e-01,9.99999e-01
8.410139374e-01,6.89757e-01,9.99999e-01,9.91207e-01,6.95875e-01,9.99999e-01
8.452190071e-01,6.97848e-01,9.99999e-01,9.95677e-01,7.00877e-01,9.99999e-01
8.494451021e-01,7.04050e-01,9.99999e-01,9.97498e-01,7.05815e-01,9.99999e-01
8.536923276e-01,7.09634e-01,9.99999e-01,9.98516e-01,7.10689e-01,9.99999e-01
8.579607893e-01,7.14847e-01,9.99999e-01,9.99088e-01,7.15499e-01,9.99999e-01
8.622505932e-01,7.19828e-01,9.99999e-01,9.99419e-01,7.20246e-01,9.99999e-01
8.665618462e-01,6.83520e-01,9.43203e-01,9.99641e-01,7.24930e-01,9.99999e-01
8.708946554e-01,5.58022e-01,7.65189e-01,9.99590e-01,7.29551e-01,9.99999e-01
8.752491287e-01,5.91955e-01,8.06790e-01,9.99452e-01,7.34109e-01,9.99999e-01
8.796253743e-01,6.56369e-01,8.89318e-01,9.99243e-01,7.38605e-01,9.99999e-01
8.840235012e-01,6.98749e-01,9.41198e-01,9.99135e-01,7.43038e-01,9.99999e-01
8.884436187e-01,7.27480e-01,9.76346e-01,9.96893e-01,7.47410e-01,9.99999e-01
8.928858368e-01,7.20185e-01,9.90379e-01,9.67300e-01,7.51721e-01,9.99999e-01
8.973502660e-01,7.10737e-01,9.97642e-01,9.42355e-01,7.55970e-01,9.99998e-01
9.018370173e-01,7.37137e-01,9.99739e-01,9.69961e-01,7.60159e-01,9.99998e-01
9.063462024e-01,7.39601e-01,9.93501e-01,9.73893e-01,7.64288e-01,9.99998e-01
9.108779334e-01,7.26103e-01,9.84879e-01,9.59392e-01,7.68357e-01,9.99998e-01
9.154323231e-01,7.34186e-01,9.96402e-01,9.53948e-01,7.72366e-01,9.99998e-01
9.200094847e-01,7.10896e-01,9.48971e-01,9.63650e-01,7.76317e-01,9.99997e-01
9.246095321e-01,6.84458e-01,9.28122e-01,9.44323e-01,7.80209e-01,9.99996e-01
9.292325798e-01,5.03422e-01,9.43546e-01,6.77462e-01,7.84044e-01,9.99994e-01
9.338787427e-01,4.50288e-01,9.45024e-01,6.02089e-01,7.87820e-01,9.99992e-01
9.385481364e-01,6.20049e-01,9.59371e-01,8.15106e-01,7.91540e-01,9.99992e-01
9.432408771e-01,5.84119e-01,9.74882e-01,7.52718e-01,7.95204e-01,9.99991e-01
9.479570815e-01,5.32273e-01,9.87069e-01,6.74715e-01,7.98811e-01,9.99992e-01
9.526968669e-01,5.93732e-01,9.93734e-01,7.44335e-01,8.02364e-01,9.99994e-01
9.574603512e-01,6.14581e-01,9.97315e-01,7.64597e-01,8.05861e-01,9.99995e-01
9.622476530e-01,6.49996e-01,9.99161e-01,8.03802e-01,8.09304e-01,9.99996e-01
9.670588912e-01,7.16634e-01,9.99747e-01,8.82017e-01,8.12693e-01,9.99997e-01
9.718941857e-01,7.54685e-01,9.99981e-01,9.24842e-01,8.16029e-01,9.99998e-01
9.767536566e-01,7.67893e-01,9.99999e-01,9.37240e-01,8.19313e-01,9.99998e-01
9.816374249e-01,7.83920e-01,9.99999e-01,9.53042e-01,8.22545e-01,9.99999e-01
9.865456120e-01,8.01290e-01,9.99999e-01,9.70407e-01,8.25725e-01,9.99999e-01
9.914783401e-01,8.13623e-01,9.99999e-01,9.81623e-01,8.28854e-01,9.99999e-01
9.964357318e-01,8.23572e-01,9.99999e-01,9.89949e-01,8.31933e-01,9.99999e-01
1.001417910e+00,8.29923e-01,9.99999e-01,9.93964e-01,8.34962e-01,9.99999e-01
1.006425000e+00,8.35062e-01,9.99999e-01,9.96562e-01,8.37942e-01,9.99999e-01
1.011457125e+00,8.39075e-01,9.99999e-01,9.97860e-01,8.40873e-01,9.99999e-01
1.016514411e+00,8.42533e-01,9.99999e-01,9.98548e-01,8.43757e-01,9.99999e-01
1.021596983e+00,8.45588e-01,9.99967e-01,9.98844e-01,8.46593e-01,9.99999e-01
1.026704968e+00,8.46476e-01,9.97475e-01,9.99099e-01,8.49383e-01,9.99999e-01
1.031838492e+00,8.24521e-01,9.68224e-01,9.99343e-01,8.52126e-01,9.99999e-01
1.036997685e+00,1.84836e-01,2.16295e-01,9.99610e-01,8.54823e-01,9.99999e-01
1.042182673e+00,1.92036e-01,2.24049e-01,9.99537e-01,8.57476e-01,9.99999e-01
1.047393587e+00,1.97886e-01,2.30204e-01,9.99385e-01,8.60084e-01,9.99999e-01
1.052630555e+00,1.49024e-02,1.72863e-02,9.99158e-01,8.62649e-01,9.99999e-01
1.057893707e+00,3.16711e-02,3.66444e-02,9.98596e-01,8.65170e-01,9.99999e-01
1.063183176e+00,7.75277e-02,8.95124e-02,9.97689e-01,8.67649e-01,9.99999e-01
1.068499092e+00,1.68770e-01,1.94632e-01,9.96128e-01,8.70085e-01,9.99999e-01
1.073841587e+00,3.08544e-01,3.55059e-01,9.95476e-01,8.72480e-01,9.99999e-01
1.079210795e+00,4.52319e-01,5.19863e-01,9.94190e-01,8.74834e-01,9.99999e-01
1.084606849e+00,6.07537e-01,6.98555e-01,9.91227e-01,8.77148e-01,9.99999e-01
1.090029883e+00,7.21373e-01,8.30488e-01,9.87475e-01,8.79422e-01,9.99999e-01
1.095480033e+00,7.77492e-01,9.12493e-01,9.66173e-01,8.81657e-01,9.99998e-01
1.100957433e+00,7.75092e-01,9.56889e-01,9.16170e-01,8.83853e-01,9.99997e-01
1.106462220e+00,6.96481e-01,9.81929e-01,8.00192e-01,8.86011e-01,9.99996e-01
1.111994531e+00,5.50462e-01,9.93266e-01,6.23790e-01,8.88132e-01,9.99992e-01
1.117554504e+00,4.13210e-01,9.98345e-01,4.64837e-01,8.90215e-01,9.99990e-01
1.123142276e+00,5.04968e-01,9.99890e-01,5.65984e-01,8.92262e-01,9.99988e-01
1.128757988e+00,6.23301e-01,9.99999e-01,6.96999e-01,8.94274e-01,9.99987e-01
1.134401778e+00,3.93132e-01,9.99999e-01,4.38646e-01,8.96250e-01,9.99986e-01
1.140073787e+00,7.25129e-01,9.99999e-01,8.07329e-01,8.98191e-01,9.99988e-01
1.145774156e+00,5.74046e-01,9.99999e-01,6.37765e-01,9.00098e-01,9.99990e-01
1.151503026e+00,5.46031e-01,9.99999e-01,6.05379e-01,9.01971e-01,9.99991e-01
1.157260541e+00,5.96252e-01,9.99999e-01,6.59712e-01,9.03811e-01,9.99993e-01
1.163046844e+00,6.65791e-01,9.99999e-01,7.35180e-01,9.05618e-01,9.99995e-01
1.168862078e+00,7.33202e-01,9.99999e-01,8.08031e-01,9.07393e-01,9.99997e-01
1.174706389e+00,7.97126e-01,9.99999e-01,8.76795e-01,9.09137e-01,9.99998e-01
1.180579921e+00,8.40772e-01,9.99999e-01,9.23063e-01,9.10849e-01,9.99998e-01
1.186482820e+00,8.72235e-01,9.99996e-01,9.55845e-01,9.12531e-01,9.99998e-01
1.192415234e+00,8.82496e-01,9.91014e-01,9.74023e-01,9.14182e-01,9.99999e-01
1.198377311e+00,5.15262e-01,5.73177e-01,9.78095e-01,9.15804e-01,9.99999e-01
1.204369197e+00,2.12967e-08,2.34969e-08,9.79235e-01,9.17396e-01,9.99999e-01
1.210391043e+00,1.19821e-28,1.31846e-28,9.80136e-01,9.18960e-01,9.99999e-01
1.216442998e+00,5.01190e-25,5.50249e-25,9.83047e-01,9.20495e-01,9.99999e-01
1.222525213e+00,1.13430e-24,1.23872e-24,9.86791e-01,9.22002e-01,9.99999e-01
1.228637839e+00,4.56831e-19,4.97900e-19,9.90817e-01,9.23483e-01,9.99999e-01
1.234781029e+00,9.46913e-13,1.02680e-12,9.93166e-01,9.24936e-01,9.99999e-01
1.240954934e+00,1.14068e-08,1.23486e-08,9.95678e-01,9.26362e-01,9.99999e-01
1.247159708e+00,4.17387e-05,4.50869e-05,9.96631e-01,9.27763e-01,9.99999e-01
1.253395507e+00,3.07884e-03,3.32140e-03,9.97012e-01,9.29138e-01,9.99999e-01
1.259662485e+00,2.75271e-02,2.96532e-02,9.97190e-01,9.30488e-01,9.99999e-01
1.265960797e+00,1.39479e-01,1.50261e-01,9.95484e-01,9.31813e-01,9.99999e-01
1.272290601e+00,3.97000e-01,4.28098e-01,9.93355e-01,9.33114e-01,9.99999e-01
1.278652054e+00,3.68634e-01,3.99197e-01,9.85990e-01,9.34391e-01,9.99999e-01
1.285045314e+00,1.85491e-02,2.00636e-02,9.78051e-01,9.35644e-01,9.99999e-01
1.291470541e+00,4.45416e-04,4.90286e-04,9.56276e-01,9.36874e-01,9.99998e-01
1.297927893e+00,1.57641e-02,1.73524e-02,9.43226e-01,9.38082e-01,9.99997e-01
1.304417533e+00,2.10418e-01,2.40140e-01,9.27320e-01,9.39267e-01,9.99996e-01
1.310939621e+00,5.73948e-02,6.43681e-02,9.17549e-01,9.40430e-01,9.99994e-01
1.317494319e+00,2.42331e-10,2.72526e-10,9.10358e-01,9.41571e-01,9.99991e-01
1.324081790e+00,2.02600e-07,2.30358e-07,8.68971e-01,9.42692e-01,9.99986e-01
1.330702199e+00,1.69587e-04,2.44818e-04,5.64162e-01,9.43791e-01,9.99977e-01
1.337355710e+00,7.85614e-05,2.11879e-04,2.33683e-01,9.44870e-01,9.99956e-01
1.344042489e+00,1.30163e-05,6.54685e-05,2.39869e-02,9.45929e-01,9.99908e-01
1.350762701e+00,2.52489e-07,1.67610e-04,5.49975e-04,9.46968e-01,9.99853e-01
1.357516515e+00,3.29470e-07,3.43889e-03,3.57929e-05,9.47988e-01,9.99819e-01
1.364304097e+00,4.85194e-05,2.75017e-02,1.13246e-03,9.48989e-01,9.99806e-01
1.371125618e+00,2.06098e-03,1.50741e-01,1.02656e-02,9.49971e-01,9.99804e-01
1.377981246e+00,5.06093e-03,2.17734e-01,2.10011e-02,9.50934e-01,9.99790e-01
1.384871152e+00,4.97330e-04,4.11487e-01,1.08934e-03,9.51880e-01,9.99792e-01
1.391795508e+00,7.60954e-04,4.40235e-01,1.58206e-03,9.52807e-01,9.99822e-01
1.398754485e+00,2.49237e-03,6.03532e-01,4.13901e-03,9.53718e-01,9.99851e-01
1.405748258e+00,2.73945e-03,6.88874e-01,3.91317e-03,9.54611e-01,9.99866e-01
1.412776999e+00,3.27258e-03,7.90379e-01,4.16112e-03,9.55487e-01,9.99892e-01
1.419840884e+00,4.87409e-03,7.24470e-01,6.03801e-03,9.56347e-01,9.99919e-01
1.426940089e+00,5.04404e-03,8.42155e-02,1.79059e-02,9.57190e-01,9.99950e-01
1.434074789e+00,0.00000e+00,0.00000e+00,4.63791e-02,9.58018e-01,9.99968e-01
1.441245163e+00,0.00000e+00,0.00000e+00,9.85409e-02,9.58830e-01,9.99975e-01
1.448451389e+00,0.00000e+00,0.00000e+00,1.90790e-01,9.59626e-01,9.99979e-01
1.455693646e+00,3.10061e-225,5.61535e-225,3.37167e-01,9.60408e-01,9.99983e-01
1.462972114e+00,1.26996e-109,2.29812e-109,3.95306e-01,9.61174e-01,9.99985e-01
1.470286975e+00,1.36415e-46,2.57729e-46,3.37816e-01,9.61927e-01,9.99986e-01
