#,Wave/freq,Total,CO2,H2O,Rayleigh,CIA
4.000000000e-01,7.43161e-04,9.99999e-01,9.99985e-01,7.43171e-04,9.99999e-01
4.020000000e-01,8.56946e-04,9.99999e-01,9.99990e-01,8.56953e-04,9.99999e-01
4.040100000e-01,9.85229e-04,9.99999e-01,9.99995e-01,9.85233e-04,9.99999e-01
4.060300500e-01,1.12960e-03,9.99999e-01,9.99998e-01,1.12960e-03,9.99999e-01
4.080602003e-01,1.29162e-03,9.99999e-01,9.99999e-01,1.29162e-03,9.99999e-01
4.101005013e-01,1.47298e-03,9.99999e-01,9.99999e-01,1.47298e-03,9.99999e-01
4.121510038e-01,1.67546e-03,9.99999e-01,9.99998e-01,1.67546e-03,9.99999e-01
4.142117588e-01,1.90091e-03,9.99999e-01,9.99995e-01,1.90092e-03,9.99999e-01
4.162828176e-01,2.15131e-03,9.99999e-01,9.99982e-01,2.15135e-03,9.99999e-01
4.183642317e-01,2.42880e-03,9.99999e-01,9.99989e-01,2.42883e-03,9.99999e-01
4.204560528e-01,2.73551e-03,9.99999e-01,9.99993e-01,2.73553e-03,9.99999e-01
4.225583331e-01,3.07372e-03,9.99999e-01,9.99997e-01,3.07373e-03,9.99999e-01
4.246711247e-01,3.44580e-03,9.99999e-01,9.99997e-01,3.44581e-03,9.99999e-01
4.267944804e-01,3.85420e-03,9.99999e-01,9.99996e-01,3.85421e-03,9.99999e-01
4.289284528e-01,4.30148e-03,9.99999e-01,9.99997e-01,4.30149e-03,9.99999e-01
4.310730950e-01,4.79028e-03,9.99999e-01,9.99998e-01,4.79028e-03,9.99999e-01
4.332284605e-01,5.32328e-03,9.99999e-01,9.99999e-01,5.32328e-03,9.99999e-01
4.353946028e-01,5.90328e-03,9.99999e-01,9.99999e-01,5.90328e-03,9.99999e-01
4.375715758e-01,6.53309e-03,9.99999e-01,9.99997e-01,6.53310e-03,9.99999e-01
4.397594337e-01,7.21556e-03,9.99999e-01,9.99984e-01,7.21567e-03,9.99999e-01
4.419582309e-01,7.95330e-03,9.99999e-01,9.99922e-01,7.95391e-03,9.99999e-01
4.441680220e-01,8.75030e-03,9.99999e-01,9.99938e-01,8.75083e-03,9.99999e-01
4.463888621e-01,9.60885e-03,9.99999e-01,9.99936e-01,9.60946e-03,9.99999e-01
4.486208064e-01,1.05324e-02,9.99999e-01,9.99960e-01,1.05328e-02,9.99999e-01
4.508639105e-01,1.15238e-02,9.99999e-01,9.99981e-01,1.15241e-02,9.99999e-01
4.531182300e-01,1.25861e-02,9.99999e-01,9.99992e-01,1.25862e-02,9.99999e-01
4.553838212e-01,1.37222e-02,9.99999e-01,9.99994e-01,1.37222e-02,9.99999e-01
4.576607403e-01,1.49353e-02,9.99999e-01,9.99997e-01,1.49354e-02,9.99999e-01
4.599490440e-01,1.62285e-02,9.99999e-01,9.99997e-01,1.62285e-02,9.99999e-01
4.622487892e-01,1.76048e-02,9.99999e-01,9.99999e-01,1.76048e-02,9.99999e-01
4.645600332e-01,1.90671e-02,9.99999e-01,9.99998e-01,1.90671e-02,9.99999e-01
4.668828333e-01,2.06179e-02,9.99999e-01,9.99981e-01,2.06183e-02,9.99999e-01
4.692172475e-01,2.22604e-02,9.99999e-01,9.99959e-01,2.22613e-02,9.99999e-01
4.715633337e-01,2.39982e-02,9.99999e-01,9.99973e-01,2.39988e-02,9.99999e-01
4.739211504e-01,2.58330e-02,9.99999e-01,9.99974e-01,2.58336e-02,9.99999e-01
4.762907561e-01,2.77679e-02,9.99999e-01,9.99986e-01,2.77683e-02,9.99999e-01
4.786722099e-01,2.98051e-02,9.99999e-01,9.99994e-01,2.98052e-02,9.99999e-01
4.810655710e-01,3.19469e-02,9.99999e-01,9.99997e-01,3.19469e-02,9.99999e-01
4.834708988e-01,3.41951e-02,9.99999e-01,9.99984e-01,3.41956e-02,9.99999e-01
4.858882533e-01,3.65524e-02,9.99999e-01,9.99971e-01,3.65534e-02,9.99999e-01
4.883176946e-01,3.90215e-02,9.99999e-01,9.99976e-01,3.90224e-02,9.99999e-01
4.907592831e-01,4.16035e-02,9.99999e-01,9.99978e-01,4.16044e-02,9.99999e-01
4.932130795e-01,4.43004e-02,9.99999e-01,9.99984e-01,4.43011e-02,9.99999e-01
4.956791449e-01,4.71137e-02,9.99999e-01,9.99991e-01,4.71141e-02,9.99999e-01
4.981575406e-01,5.00429e-02,9.99999e-01,9.99959e-01,5.00449e-02,9.99999e-01
5.006483283e-01,5.30891e-02,9.99999e-01,9.99896e-01,5.30946e-02,9.99999e-01
5.031515699e-01,5.62349e-02,9.99999e-01,9.99475e-01,5.62644e-02,9.99999e-01
5.056673278e-01,5.95387e-02,9.99999e-01,9.99722e-01,5.95552e-02,9.99999e-01
5.081956644e-01,6.29457e-02,9.99999e-01,9.99650e-01,6.29677e-02,9.99999e-01
5.107366428e-01,6.64869e-02,9.99999e-01,9.99763e-01,6.65026e-02,9.99999e-01
5.132903260e-01,7.01506e-02,9.99999e-01,9.99864e-01,7.01601e-02,9.99999e-01
5.158567776e-01,7.39364e-02,9.99999e-01,9.99942e-01,7.39406e-02,9.99999e-01
5.184360615e-01,7.78422e-02,9.99999e-01,9.99976e-01,7.78440e-02,9.99999e-01
5.210282418e-01,8.18696e-02,9.99999e-01,9.99991e-01,8.18703e-02,9.99999e-01
5.236333830e-01,8.60161e-02,9.99999e-01,9.99965e-01,8.60191e-02,9.99999e-01
5.262515499e-01,9.02879e-02,9.99999e-01,9.99978e-01,9.02899e-02,9.99999e-01
5.288828077e-01,9.46802e-02,9.99999e-01,9.99979e-01,9.46821e-02,9.99999e-01
5.315272217e-01,9.91931e-02,9.99999e-01,9.99982e-01,9.91948e-02,9.99999e-01
5.341848578e-01,1.03826e-01,9.99999e-01,9.99988e-01,1.03827e-01,9.99999e-01
5.368557821e-01,1.08574e-01,9.99999e-01,9.99959e-01,1.08578e-01,9.99999e-01
5.395400610e-01,1.13429e-01,9.99999e-01,9.99857e-01,1.13446e-01,9.99999e-01
5.422377613e-01,1.18407e-01,9.99999e-01,9.99813e-01,1.18429e-01,9.99999e-01
5.449489501e-01,1.23505e-01,9.99999e-01,9.99827e-01,1.23526e-01,9.99999e-01
5.476736949e-01,1.28716e-01,9.99999e-01,9.99846e-01,1.28736e-01,9.99999e-01
5.504120634e-01,1.34041e-01,9.99999e-01,9.99888e-01,1.34056e-01,9.99999e-01
5.531641237e-01,1.39476e-01,9.99999e-01,9.99943e-01,1.39484e-01,9.99999e-01
5.559299443e-01,1.45014e-01,9.99999e-01,9.99972e-01,1.45018e-01,9.99999e-01
5.587095940e-01,1.50653e-01,9.99999e-01,9.99982e-01,1.50656e-01,9.99999e-01
5.615031420e-01,1.56392e-01,9.99999e-01,9.99980e-01,1.56395e-01,9.99999e-01
5.643106577e-01,1.62229e-01,9.99999e-01,9.99978e-01,1.62233e-01,9.99999e-01
5.671322110e-01,1.68124e-01,9.99999e-01,9.99743e-01,1.68167e-01,9.99999e-01
5.699678720e-01,1.74146e-01,9.99999e-01,9.99721e-01,1.74194e-01,9.99999e-01
5.728177114e-01,1.80260e-01,9.99999e-01,9.99712e-01,1.80312e-01,9.99999e-01
5.756818000e-01,1.86469e-01,9.99999e-01,9.99736e-01,1.86518e-01,9.99999e-01
5.785602090e-01,1.92764e-01,9.99999e-01,9.99769e-01,1.92808e-01,9.99999e-01
5.814530100e-01,1.99134e-01,9.99999e-01,9.99768e-01,1.99180e-01,9.99999e-01
5.843602750e-01,2.05574e-01,9.99999e-01,9.99726e-01,2.05630e-01,9.99999e-01
5.872820764e-01,2.11656e-01,9.99999e-01,9.97640e-01,2.12156e-01,9.99999e-01
5.902184868e-01,2.18125e-01,9.99999e-01,9.97123e-01,2.18754e-01,9.99999e-01
5.931695792e-01,2.24963e-01,9.99999e-01,9.97971e-01,2.25420e-01,9.99999e-01
5.961354271e-01,2.31636e-01,9.99999e-01,9.97773e-01,2.32152e-01,9.99999e-01
5.991161043e-01,2.38558e-01,9.99999e-01,9.98374e-01,2.38947e-01,9.99999e-01
6.021116848e-01,2.45573e-01,9.99999e-01,9.99076e-01,2.45799e-01,9.99999e-01
6.051222432e-01,2.52590e-01,9.99999e-01,9.99532e-01,2.52708e-01,9.99999e-01
6.081478544e-01,2.59616e-01,9.99999e-01,9.99798e-01,2.59668e-01,9.99999e-01
6.111885937e-01,2.66654e-01,9.99999e-01,9.99914e-01,2.66677e-01,9.99999e-01
6.142445367e-01,2.73720e-01,9.99999e-01,9.99961e-01,2.73730e-01,9.99999e-01
6.173157594e-01,2.80820e-01,9.99999e-01,9.99978e-01,2.80826e-01,9.99999e-01
6.204023382e-01,2.87955e-01,9.99999e-01,9.99981e-01,2.87960e-01,9.99999e-01
6.235043498e-01,2.95106e-01,9.99999e-01,9.99922e-01,2.95129e-01,9.99999e-01
6.266218716e-01,3.02204e-01,9.99999e-01,9.99586e-01,3.02329e-01,9.99999e-01
6.297549810e-01,3.09511e-01,9.99999e-01,9.99848e-01,3.09558e-01,9.99999e-01
6.329037559e-01,3.16717e-01,9.99999e-01,9.99699e-01,3.16812e-01,9.99999e-01
6.360682746e-01,3.24004e-01,9.99999e-01,9.99745e-01,3.24087e-01,9.99999e-01
6.392486160e-01,3.31271e-01,9.99999e-01,9.99669e-01,3.31381e-01,9.99999e-01
6.424448591e-01,3.38541e-01,9.99999e-01,9.99560e-01,3.38690e-01,9.99999e-01
6.456570834e-01,3.45304e-01,9.99999e-01,9.97957e-01,3.46011e-01,9.99999e-01
6.488853688e-01,3.52717e-01,9.99999e-01,9.98234e-01,3.53341e-01,9.99999e-01
6.521297956e-01,3.60122e-01,9.99999e-01,9.98463e-01,3.60676e-01,9.99999e-01
6.553904446e-01,3.67457e-01,9.99999e-01,9.98482e-01,3.68015e-01,9.99999e-01
6.586673968e-01,3.74862e-01,9.99999e-01,9.98689e-01,3.75354e-01,9.99999e-01
6.619607338e-01,3.82400e-01,9.99999e-01,9.99242e-01,3.82690e-01,9.99999e-01
6.652705375e-01,3.89849e-01,9.99999e-01,9.99560e-01,3.90020e-01,9.99999e-01
6.685968902e-01,3.97260e-01,9.99999e-01,9.99795e-01,3.97341e-01,9.99999e-01
6.719398746e-01,4.04613e-01,9.99999e-01,9.99904e-01,4.04652e-01,9.99999e-01
6.752995740e-01,4.11927e-01,9.99999e-01,9.99948e-01,4.11948e-01,9.99999e-01
6.786760719e-01,4.19197e-01,9.99999e-01,9.99926e-01,4.19228e-01,9.99999e-01
6.820694522e-01,4.26435e-01,9.99999e-01,9.99873e-01,4.26489e-01,9.99999e-01
6.854797995e-01,4.33658e-01,9.99999e-01,9.99837e-01,4.33728e-01,9.99999e-01
6.889071985e-01,4.40773e-01,9.99999e-01,9.99611e-01,4.40944e-01,9.99999e-01
6.923517345e-01,4.45270e-01,9.99999e-01,9.93608e-01,4.48134e-01,9.99999e-01
6.958134932e-01,4.53758e-01,9.99999e-01,9.96622e-01,4.55296e-01,9.99999e-01
6.992925606e-01,4.60965e-01,9.99999e-01,9.96839e-01,4.62427e-01,9.99999e-01
7.027890234e-01,4.67683e-01,9.99999e-01,9.96075e-01,4.69526e-01,9.99999e-01
7.063029686e-01,4.75019e-01,9.99999e-01,9.96702e-01,4.76590e-01,9.99999e-01
7.098344834e-01,4.82088e-01,9.99999e-01,9.96836e-01,4.83618e-01,9.99999e-01
7.133836558e-01,4.88558e-01,9.99999e-01,9.95822e-01,4.90607e-01,9.99999e-01
7.169505741e-01,4.80938e-01,9.99999e-01,9.66597e-01,4.97557e-01,9.99999e-01
7.205353270e-01,4.96048e-01,9.99999e-01,9.83314e-01,5.04465e-01,9.99999e-01
7.241380036e-01,5.00641e-01,9.99999e-01,9.79097e-01,5.11329e-01,9.99999e-01
7.277586936e-01,5.08359e-01,9.99999e-01,9.81105e-01,5.18149e-01,9.99999e-01
7.313974871e-01,5.14340e-01,9.99999e-01,9.79840e-01,5.24922e-01,9.99999e-01
7.350544745e-01,5.25779e-01,9.99999e-01,9.88961e-01,5.31647e-01,9.99999e-01
7.387297469e-01,5.33945e-01,9.99999e-01,9.91866e-01,5.38323e-01,9.99999e-01
7.424233956e-01,5.42774e-01,9.99999e-01,9.96007e-01,5.44949e-01,9.99999e-01
7.461355126e-01,5.50190e-01,9.99999e-01,9.97582e-01,5.51523e-01,9.99999e-01
7.498661902e-01,5.57414e-01,9.99999e-01,9.98871e-01,5.58044e-01,9.99999e-01
7.536155211e-01,5.64199e-01,9.99999e-01,9.99447e-01,5.64511e-01,9.99999e-01
7.573835987e-01,5.70760e-01,9.99999e-01,9.99715e-01,5.70923e-01,9.99999e-01
7.611705167e-01,5.77177e-01,9.99999e-01,9.99822e-01,5.77279e-01,9.99999e-01
7.649763693e-01,5.83513e-01,9.99999e-01,9.99888e-01,5.83578e-01,9.99999e-01
7.688012511e-01,5.89774e-01,9.99999e-01,9.99922e-01,5.89819e-01,9.99999e-01
7.726452574e-01,5.95964e-01,9.99999e-01,9.99936e-01,5.96002e-01,9.99999e-01
7.765084837e-01,6.02072e-01,9.99999e-01,9.99910e-01,6.02126e-01,9.99999e-01
7.803910261e-01,5.93673e-01,9.76498e-01,9.99613e-01,6.08189e-01,9.99999e-01
7.842929812e-01,5.51411e-01,8.98950e-01,9.98652e-01,6.14193e-01,9.99999e-01
7.882144461e-01,5.51946e-01,8.92463e-01,9.97208e-01,6.20135e-01,9.99999e-01
7.921555184e-01,5.85315e-01,9.36401e-01,9.98462e-01,6.26015e-01,9.99999e-01
7.961162960e-01,6.02925e-01,9.56805e-01,9.97305e-01,6.31834e-01,9.99999e-01
8.000968774e-01,6.20596e-01,9.76389e-01,9.96875e-01,6.37590e-01,9.99999e-01
8.040973618e-01,6.33370e-01,9.87667e-01,9.96877e-01,6.43283e-01,9.99999e-01
8.081178486e-01,6.40730e-01,9.94339e-01,9.93002e-01,6.48913e-01,9.99999e-01
8.121584379e-01,6.34414e-01,9.98237e-01,9.71039e-01,6.54480e-01,9.99999e-01
8.162192301e-01,6.36931e-01,9.99610e-01,9.65442e-01,6.59983e-01,9.99999e-01
8.203003262e-01,6.53970e-01,9.99993e-01,9.82794e-01,6.65423e-01,9.99998e-01
8.244018279e-01,6.54392e-01,9.99999e-01,9.75542e-01,6.70798e-01,9.99998e-01
8.285238370e-01,6.62153e-01,9.99999e-01,9.79357e-01,6.76110e-01,9.99999e-01
8.326664562e-01,6.67092e-01,9.99999e-01,9.79064e-01,6.81357e-01,9.99999e-01
8.368297885e-01,6.76245e-01,9.99999e-01,9.85003e-01,6.86540e-01,9.99999e-01
8.410139374e-01,6.85480e-01,9.99999e-01,9.91065e-01,6.91659e-01,9.99999e-01
8.452190071e-01,6.93655e-01,9.99999e-01,9.95608e-01,6.96714e-01,9.99999e-01
8.494451021e-01,6.99922e-01,9.99999e-01,9.97457e-01,7.01705e-01,9.99999e-01
8.536923276e-01,7.05567e-01,9.99999e-01,9.98492e-01,7.06633e-01,9.99999e-01
8.579607893e-01,7.10837e-01,9.99999e-01,9.99073e-01,7.11496e-01,9.99999e-01
8.622505932e-01,7.15874e-01,9.99999e-01,9.99410e-01,7.16296e-01,9.99999e-01
8.665618462e-01,6.79193e-01,9.42305e-01,9.99635e-01,7.21032e-01,9.99999e-01
8.708946554e-01,5.52708e-01,7.61922e-01,9.99583e-01,7.25705e-01,9.99999e-01
8.752491287e-01,5.86899e-01,8.04060e-01,9.99443e-01,7.30316e-01,9.99999e-01
8.796253743e-01,6.51820e-01,8.87662e-01,9.99230e-01,7.34864e-01,9.99999e-01
8.840235012e-01,6.94590e-01,9.40279e-01,9.99120e-01,7.39349e-01,9.99999e-01
8.884436187e-01,7.23626e-01,9.75984e-01,9.96832e-01,7.43772e-01,9.99999e-01
8.928858368e-01,7.16216e-01,9.90227e-01,9.66729e-01,7.48134e-01,9.99999e-01
8.973502660e-01,7.06694e-01,9.97607e-01,9.41431e-01,7.52434e-01,9.99998e-01
9.018370173e-01,7.33405e-01,9.99735e-01,9.69499e-01,7.56674e-01,9.99998e-01
9.063462024e-01,7.35846e-01,9.93377e-01,9.73439e-01,7.60852e-01,9.99998e-01
9.108779334e-01,7.22221e-01,9.84637e-01,9.58718e-01,7.64971e-01,9.99998e-01
9.154323231e-01,7.30402e-01,9.96349e-01,9.53198e-01,7.69030e-01,9.99998e-01
9.200094847e-01,7.06842e-01,9.48105e-01,9.63067e-01,7.73030e-01,9.99997e-01
9.246095321e-01,6.80078e-01,9.27000e-01,9.43302e-01,7.76971e-01,9.99996e-01
9.292325798e-01,4.97653e-01,9.42587e-01,6.73018e-01,7.80853e-01,9.99993e-01
9.338787427e-01,4.44623e-01,9.44155e-01,5.97367e-01,7.84678e-01,9.99992e-01
9.385481364e-01,6.15280e-01,9.58721e-01,8.12520e-01,7.88445e-01,9.99992e-01
9.432408771e-01,5.78963e-01,9.74488e-01,7.49223e-01,7.92156e-01,9.99991e-01
9.479570815e-01,5.26801e-01,9.86859e-01,6.70428e-01,7.95810e-01,9.99992e-01
9.526968669e-01,5.88815e-01,9.93634e-01,7.40966e-01,7.99408e-01,9.99994e-01
9.574603512e-01,6.09675e-01,9.97272e-01,7.61273e-01,8.02951e-01,9.99995e-01
9.622476530e-01,6.45427e-01,9.99147e-01,8.00996e-01,8.06439e-01,9.99996e-01
9.670588912e-01,7.12688e-01,9.99743e-01,8.80218e-01,8.09873e-01,9.99997e-01
9.718941857e-01,7.51144e-01,9.99981e-01,9.23644e-01,8.13254e-01,9.99998e-01
9.767536566e-01,7.64507e-01,9.99999e-01,9.36229e-01,8.16581e-01,9.99998e-01
9.816374249e-01,7.80743e-01,9.99999e-01,9.52292e-01,8.19856e-01,9.99999e-01
9.865456120e-01,7.98330e-01,9.99999e-01,9.69931e-01,8.23079e-01,9.99999e-01
9.914783401e-01,8.10820e-01,9.99999e-01,9.81324e-01,8.26250e-01,9.99999e-01
9.964357318e-01,8.20900e-01,9.99999e-01,9.89785e-01,8.29371e-01,9.99999e-01
1.001417910e+00,8.27336e-01,9.99999e-01,9.93866e-01,8.32442e-01,9.99999e-01
1.006425000e+00,8.32543e-01,9.99999e-01,9.96505e-01,8.35463e-01,9.99999e-01
1.011457125e+00,8.36612e-01,9.99999e-01,9.97825e-01,8.38435e-01,9.99999e-01
1.016514411e+00,8.40117e-01,9.99999e-01,9.98525e-01,8.41358e-01,9.99999e-01
1.021596983e+00,8.43215e-01,9.99966e-01,9.98825e-01,8.44234e-01,9.99999e-01
1.026704968e+00,8.44109e-01,9.97425e-01,9.99084e-01,8.47062e-01,9.99999e-01
1.031838492e+00,8.21704e-01,9.67518e-01,9.99333e-01,8.49844e-01,9.99999e-01
1.036997685e+00,1.81521e-01,2.12977e-01,9.99604e-01,8.52579e-01,9.99999e-01
1.042182673e+00,1.87217e-01,2.18992e-01,9.99529e-01,8.55269e-01,9.99999e-01
1.047393587e+00,1.93621e-01,2.25814e-01,9.99375e-01,8.57914e-01,9.99999e-01
1.052630555e+00,1.40537e-02,1.63424e-02,9.99143e-01,8.60515e-01,9.99999e-01
1.057893707e+00,3.01203e-02,3.49353e-02,9.98572e-01,8.63073e-01,9.99999e-01
1.063183176e+00,7.45876e-02,8.63251e-02,9.97649e-01,8.65587e-01,9.99999e-01
1.068499092e+00,1.63929e-01,1.89502e-01,9.96062e-01,8.68058e-01,9.99999e-01
1.073841587e+00,3.02781e-01,3.49246e-01,9.95398e-01,8.70488e-01,9.99999e-01
1.079210795e+00,4.46532e-01,5.14407e-01,9.94093e-01,8.72876e-01,9.99999e-01
1.084606849e+00,6.02625e-01,6.94528e-01,9.91079e-01,8.75223e-01,9.99999e-01
1.090029883e+00,7.17487e-01,8.27972e-01,9.87254e-01,8.77530e-01,9.99999e-01
1.095480033e+00,7.74246e-01,9.11143e-01,9.65594e-01,8.79798e-01,9.99998e-01
1.100957433e+00,7.71768e-01,9.56205e-01,9.14774e-01,8.82026e-01,9.99997e-01
1.106462220e+00,6.92179e-01,9.81641e-01,7.97085e-01,8.84216e-01,9.99996e-01
1.111994531e+00,5.45035e-01,9.93158e-01,6.18930e-01,8.86367e-01,9.99992e-01
1.117554504e+00,4.07305e-01,9.98319e-01,4.59096e-01,8.88482e-01,9.99990e-01
1.123142276e+00,4.99690e-01,9.99888e-01,5.61139e-01,8.90559e-01,9.99988e-01
1.128757988e+00,6.18501e-01,9.99999e-01,6.92928e-01,8.92600e-01,9.99987e-01
1.134401778e+00,3.88477e-01,9.99999e-01,4.34249e-01,8.94606e-01,9.99985e-01
1.140073787e+00,7.21231e-01,9.99999e-01,8.04436e-01,8.96576e-01,9.99988e-01
1.145774156e+00,5.68941e-01,9.99999e-01,6.33209e-01,8.98512e-01,9.99990e-01
1.151503026e+00,5.40757e-01,9.99999e-01,6.00570e-01,9.00413e-01,9.99991e-01
1.157260541e+00,5.91206e-01,9.99999e-01,6.55238e-01,9.02280e-01,9.99993e-01
1.163046844e+00,6.61386e-01,9.99999e-01,7.31531e-01,9.04115e-01,9.99995e-01
1.168862078e+00,7.29463e-01,9.99999e-01,8.05222e-01,9.05917e-01,9.99997e-01
1.174706389e+00,7.94142e-01,9.99999e-01,8.74907e-01,9.07687e-01,9.99998e-01
1.180579921e+00,8.38360e-01,9.99999e-01,9.21857e-01,9.09425e-01,9.99998e-01
1.186482820e+00,8.70249e-01,9.99995e-01,9.55132e-01,9.11132e-01,9.99998e-01
1.192415234e+00,8.80624e-01,9.90831e-01,9.73597e-01,9.12808e-01,9.99999e-01
1.198377311e+00,5.13723e-01,5.72485e-01,9.77729e-01,9.14455e-01,9.99999e-01
1.204369197e+00,1.67915e-08,1.85568e-08,9.78892e-01,9.16071e-01,9.99999e-01
1.210391043e+00,4.31992e-29,4.76110e-29,9.79807e-01,9.17659e-01,9.99999e-01
1.216442998e+00,2.07812e-25,2.28511e-25,9.82771e-01,9.19218e-01,9.99999e-01
1.222525213e+00,4.76378e-25,5.20995e-25,9.86574e-01,9.20748e-01,9.99999e-01
1.228637839e+00,2.31848e-19,2.53055e-19,9.90665e-01,9.22251e-01,9.99999e-01
1.234781029e+00,6.30575e-13,6.84702e-13,9.93054e-01,9.23727e-01,9.99999e-01
1.240954934e+00,8.74196e-09,9.47631e-09,9.95606e-01,9.25176e-01,9.99999e-01
1.247159708e+00,3.64795e-05,3.94565e-05,9.96575e-01,9.26598e-01,9.99999e-01
1.253395507e+00,2.82125e-03,3.04737e-03,9.96962e-01,9.27994e-01,9.99999e-01
1.259662485e+00,3.39151e-02,3.65811e-02,9.97119e-01,9.29365e-01,9.99999e-01
1.265960797e+00,1.35435e-01,1.46090e-01,9.95392e-01,9.30711e-01,9.99999e-01
1.272290601e+00,3.91252e-01,4.22433e-01,9.93240e-01,9.32032e-01,9.99999e-01
1.278652054e+00,3.62720e-01,3.93309e-01,9.85748e-01,9.33329e-01,9.99999e-01
1.285045314e+00,1.77484e-02,1.92221e-02,9.77664e-01,9.34601e-01,9.99999e-01
1.291470541e+00,3.95230e-04,4.35714e-04,9.55533e-01,9.35851e-01,9.99998e-01
1.297927893e+00,1.50079e-02,1.65441e-02,9.42279e-01,9.37077e-01,9.99997e-01
1.304417533e+00,2.05237e-01,2.34734e-01,9.26150e-01,9.38281e-01,9.99996e-01
1.310939621e+00,5.55536e-02,6.24175e-02,9.16159e-01,9.39462e-01,9.99994e-01
1.317494319e+00,1.70117e-10,1.91664e-10,9.08954e-01,9.40622e-01,9.99991e-01
1.324081790e+00,1.61927e-07,1.84496e-07,8.66929e-01,9.41760e-01,9.99986e-01
1.330702199e+00,1.47820e-04,2.14485e-04,5.58930e-01,9.42877e-01,9.99976e-01
1.337355710e+00,6.88272e-05,1.88564e-04,2.28427e-01,9.43973e-01,9.99956e-01
1.344042489e+00,1.13457e-05,5.77904e-05,2.28361e-02,9.45048e-01,9.99906e-01
1.350762701e+00,2.01159e-07,1.46359e-04,4.95169e-04,9.46104e-01,9.99851e-01
1.357516515e+00,2.63599e-07,3.16338e-03,3.05950e-05,9.47140e-01,9.99816e-01
1.364304097e+00,4.20937e-05,2.59635e-02,1.03282e-03,9.48156e-01,9.99803e-01
1.371125618e+00,1.89024e-03,1.46419e-01,9.64693e-03,9.49154e-01,9.99801e-01
1.377981246e+00,4.68003e-03,2.12342e-01,1.98525e-02,9.50133e-01,9.99786e-01
1.384871152e+00,4.52266e-04,4.05577e-01,1.00305e-03,9.51093e-01,9.99788e-01
1.391795508e+00,6.85175e-04,4.34388e-01,1.44001e-03,9.52036e-01,9.99819e-01
1.398754485e+00,2.30038e-03,5.98540e-01,3.85196e-03,9.52961e-01,9.99848e-01
1.405748258e+00,2.52153e-03,6.84715e-01,3.62245e-03,9.53868e-01,9.99864e-01
1.412776999e+00,3.02013e-03,7.87367e-01,3.85373e-03,9.54758e-01,9.99890e-01
1.419840884e+00,4.52536e-03,7.20658e-01,5.62523e-03,9.55632e-01,9.99918e-01
1.426940089e+00,4.78511e-03,8.29804e-02,1.69489e-02,9.56489e-01,9.99949e-01
1.434074789e+00,0.00000e+00,0.00000e+00,4.44895e-02,9.57330e-01,9.99968e-01
1.441245163e+00,0.00000e+00,0.00000e+00,9.51240e-02,9.58154e-01,9.99975e-01
1.448451389e+00,0.00000e+00,0.00000e+00,1.86195e-01,9.58964e-01,9.99979e-01
1.455693646e+00,5.61098e-229,1.02635e-228,3.31671e-01,9.59758e-01,9.99982e-01
1.462972114e+00,2.00323e-111,3.66130e-111,3.89458e-01,9.60537e-01,9.99985e-01
1.470286975e+00,2.45844e-47,4.69458e-47,3.32052e-01,9.61301e-01,9.99986e-01
