#,Wave/freq,Total,CO2,H2O,Rayleigh,CIA
4.000000000e-01,1.97171e-02,9.99999e-01,9.99991e-01,1.97173e-02,9.99999e-01
4.020000000e-01,2.13089e-02,9.99999e-01,9.99994e-01,2.13090e-02,9.99999e-01
4.040100000e-01,2.29920e-02,9.99999e-01,9.99997e-01,2.29921e-02,9.99999e-01
4.060300500e-01,2.47709e-02,9.99999e-01,9.99999e-01,2.47709e-02,9.99999e-01
4.080602003e-01,2.66480e-02,9.99999e-01,9.99999e-01,2.66480e-02,9.99999e-01
4.101005013e-01,2.86261e-02,9.99999e-01,9.99999e-01,2.86261e-02,9.99999e-01
4.121510038e-01,3.07075e-02,9.99999e-01,9.99999e-01,3.07075e-02,9.99999e-01
4.142117588e-01,3.28946e-02,9.99999e-01,9.99997e-01,3.28947e-02,9.99999e-01
4.162828176e-01,3.51894e-02,9.99999e-01,9.99989e-01,3.51897e-02,9.99999e-01
4.183642317e-01,3.75946e-02,9.99999e-01,9.99993e-01,3.75948e-02,9.99999e-01
4.204560528e-01,4.01117e-02,9.99999e-01,9.99996e-01,4.01118e-02,9.99999e-01
4.225583331e-01,4.27426e-02,9.99999e-01,9.99998e-01,4.27426e-02,9.99999e-01
4.246711247e-01,4.54888e-02,9.99999e-01,9.99998e-01,4.54889e-02,9.99999e-01
4.267944804e-01,4.83520e-02,9.99999e-01,9.99997e-01,4.83521e-02,9.99999e-01
4.289284528e-01,5.13334e-02,9.99999e-01,9.99998e-01,5.13335e-02,9.99999e-01
4.310730950e-01,5.44344e-02,9.99999e-01,9.99998e-01,5.44344e-02,9.99999e-01
4.332284605e-01,5.76558e-02,9.99999e-01,9.99999e-01,5.76558e-02,9.99999e-01
4.353946028e-01,6.09986e-02,9.99999e-01,9.99999e-01,6.09986e-02,9.99999e-01
4.375715758e-01,6.44633e-02,9.99999e-01,9.99998e-01,6.44633e-02,9.99999e-01
4.397594337e-01,6.80500e-02,9.99999e-01,9.99991e-01,6.80506e-02,9.99999e-01
4.419582309e-01,7.17576e-02,9.99999e-01,9.99957e-01,7.17606e-02,9.99999e-01
4.441680220e-01,7.55911e-02,9.99999e-01,9.99966e-01,7.55936e-02,9.99999e-01
4.463888621e-01,7.95468e-02,9.99999e-01,9.99965e-01,7.95496e-02,9.99999e-01
4.486208064e-01,8.36265e-02,9.99999e-01,9.99977e-01,8.36283e-02,9.99999e-01
4.508639105e-01,8.78284e-02,9.99999e-01,9.99989e-01,8.78293e-02,9.99999e-01
4.531182300e-01,9.21517e-02,9.99999e-01,9.99995e-01,9.21520e-02,9.99999e-01
4.553838212e-01,9.65956e-02,9.99999e-01,9.99996e-01,9.65959e-02,9.99999e-01
4.576607403e-01,1.01160e-01,9.99999e-01,9.99998e-01,1.01160e-01,9.99999e-01
4.599490440e-01,1.05843e-01,9.99999e-01,9.99998e-01,1.05843e-01,9.99999e-01
4.622487892e-01,1.10644e-01,9.99999e-01,9.99999e-01,1.10644e-01,9.99999e-01
4.645600332e-01,1.15561e-01,9.99999e-01,9.99998e-01,1.15561e-01,9.99999e-01
4.668828333e-01,1.20592e-01,9.99999e-01,9.99989e-01,1.20593e-01,9.99999e-01
4.692172475e-01,1.25736e-01,9.99999e-01,9.99977e-01,1.25739e-01,9.99999e-01
4.715633337e-01,1.30994e-01,9.99999e-01,9.99985e-01,1.30996e-01,9.99999e-01
4.739211504e-01,1.36360e-01,9.99999e-01,9.99985e-01,1.36362e-01,9.99999e-01
4.762907561e-01,1.41835e-01,9.99999e-01,9.99992e-01,1.41836e-01,9.99999e-01
4.786722099e-01,1.47414e-01,9.99999e-01,9.99996e-01,1.47414e-01,9.99999e-01
4.810655710e-01,1.53096e-01,9.99999e-01,9.99998e-01,1.53096e-01,9.99999e-01
4.834708988e-01,1.58876e-01,9.99999e-01,9.99991e-01,1.58877e-01,9.99999e-01
4.858882533e-01,1.64754e-01,9.99999e-01,9.99984e-01,1.64757e-01,9.99999e-01
4.883176946e-01,1.70729e-01,9.99999e-01,9.99986e-01,1.70731e-01,9.99999e-01
4.907592831e-01,1.76796e-01,9.99999e-01,9.99987e-01,1.76798e-01,9.99999e-01
4.932130795e-01,1.82952e-01,9.99999e-01,9.99991e-01,1.82953e-01,9.99999e-01
4.956791449e-01,1.89195e-01,9.99999e-01,9.99995e-01,1.89196e-01,9.99999e-01
4.981575406e-01,1.95517e-01,9.99999e-01,9.99977e-01,1.95521e-01,9.99999e-01
5.006483283e-01,2.01916e-01,9.99999e-01,9.99943e-01,2.01927e-01,9.99999e-01
5.031515699e-01,2.08351e-01,9.99999e-01,9.99714e-01,2.08410e-01,9.99999e-01
5.056673278e-01,2.14935e-01,9.99999e-01,9.99848e-01,2.14967e-01,9.99999e-01
5.081956644e-01,2.21552e-01,9.99999e-01,9.99809e-01,2.21595e-01,9.99999e-01
5.107366428e-01,2.28260e-01,9.99999e-01,9.99870e-01,2.28289e-01,9.99999e-01
5.132903260e-01,2.35031e-01,9.99999e-01,9.99925e-01,2.35048e-01,9.99999e-01
5.158567776e-01,2.41861e-01,9.99999e-01,9.99968e-01,2.41868e-01,9.99999e-01
5.184360615e-01,2.48742e-01,9.99999e-01,9.99987e-01,2.48745e-01,9.99999e-01
5.210282418e-01,2.55675e-01,9.99999e-01,9.99994e-01,2.55676e-01,9.99999e-01
5.236333830e-01,2.62652e-01,9.99999e-01,9.99980e-01,2.62657e-01,9.99999e-01
5.262515499e-01,2.69683e-01,9.99999e-01,9.99987e-01,2.69686e-01,9.99999e-01
5.288828077e-01,2.76755e-01,9.99999e-01,9.99988e-01,2.76758e-01,9.99999e-01
5.315272217e-01,2.83867e-01,9.99999e-01,9.99990e-01,2.83870e-01,9.99999e-01
5.341848578e-01,2.91018e-01,9.99999e-01,9.99993e-01,2.91019e-01,9.99999e-01
5.368557821e-01,2.98196e-01,9.99999e-01,9.99977e-01,2.98202e-01,9.99999e-01
5.395400610e-01,3.05391e-01,9.99999e-01,9.99921e-01,3.05415e-01,9.99999e-01
5.422377613e-01,3.12623e-01,9.99999e-01,9.99898e-01,3.12655e-01,9.99999e-01
5.449489501e-01,3.19888e-01,9.99999e-01,9.99905e-01,3.19918e-01,9.99999e-01
5.476736949e-01,3.27174e-01,9.99999e-01,9.99915e-01,3.27202e-01,9.99999e-01
5.504120634e-01,3.34482e-01,9.99999e-01,9.99938e-01,3.34502e-01,9.99999e-01
5.531641237e-01,3.41806e-01,9.99999e-01,9.99969e-01,3.41817e-01,9.99999e-01
5.559299443e-01,3.49137e-01,9.99999e-01,9.99984e-01,3.49142e-01,9.99999e-01
5.587095940e-01,3.56472e-01,9.99999e-01,9.99990e-01,3.56475e-01,9.99999e-01
5.615031420e-01,3.63809e-01,9.99999e-01,9.99989e-01,3.63812e-01,9.99999e-01
5.643106577e-01,3.71147e-01,9.99999e-01,9.99988e-01,3.71152e-01,9.99999e-01
5.671322110e-01,3.78437e-01,9.99999e-01,9.99860e-01,3.78489e-01,9.99999e-01
5.699678720e-01,3.85765e-01,9.99999e-01,9.99848e-01,3.85823e-01,9.99999e-01
5.728177114e-01,3.93088e-01,9.99999e-01,9.99843e-01,3.93150e-01,9.99999e-01
5.756818000e-01,4.00409e-01,9.99999e-01,9.99855e-01,4.00467e-01,9.99999e-01
5.785602090e-01,4.07720e-01,9.99999e-01,9.99874e-01,4.07771e-01,9.99999e-01
5.814530100e-01,4.15009e-01,9.99999e-01,9.99873e-01,4.15061e-01,9.99999e-01
5.843602750e-01,4.22270e-01,9.99999e-01,9.99850e-01,4.22333e-01,9.99999e-01
5.872820764e-01,4.29032e-01,9.99999e-01,9.98712e-01,4.29585e-01,9.99999e-01
5.902184868e-01,4.36130e-01,9.99999e-01,9.98431e-01,4.36815e-01,9.99999e-01
5.931695792e-01,4.43529e-01,9.99999e-01,9.98893e-01,4.44020e-01,9.99999e-01
5.961354271e-01,4.50650e-01,9.99999e-01,9.98785e-01,4.51198e-01,9.99999e-01
5.991161043e-01,4.57941e-01,9.99999e-01,9.99113e-01,4.58347e-01,9.99999e-01
6.021116848e-01,4.65230e-01,9.99999e-01,9.99496e-01,4.65465e-01,9.99999e-01
6.051222432e-01,4.72429e-01,9.99999e-01,9.99744e-01,4.72549e-01,9.99999e-01
6.081478544e-01,4.79545e-01,9.99999e-01,9.99889e-01,4.79598e-01,9.99999e-01
6.111885937e-01,4.86587e-01,9.99999e-01,9.99953e-01,4.86610e-01,9.99999e-01
6.142445367e-01,4.93572e-01,9.99999e-01,9.99978e-01,4.93582e-01,9.99999e-01
6.173157594e-01,5.00509e-01,9.99999e-01,9.99988e-01,5.00514e-01,9.99999e-01
6.204023382e-01,5.07399e-01,9.99999e-01,9.99989e-01,5.07404e-01,9.99999e-01
6.235043498e-01,5.14228e-01,9.99999e-01,9.99957e-01,5.14249e-01,9.99999e-01
6.266218716e-01,5.20932e-01,9.99999e-01,9.99774e-01,5.21049e-01,9.99999e-01
6.297549810e-01,5.27759e-01,9.99999e-01,9.99917e-01,5.27802e-01,9.99999e-01
6.329037559e-01,5.34419e-01,9.99999e-01,9.99836e-01,5.34506e-01,9.99999e-01
6.360682746e-01,5.41086e-01,9.99999e-01,9.99860e-01,5.41161e-01,9.99999e-01
6.392486160e-01,5.47666e-01,9.99999e-01,9.99819e-01,5.47765e-01,9.99999e-01
6.424448591e-01,5.54183e-01,9.99999e-01,9.99759e-01,5.54316e-01,9.99999e-01
6.456570834e-01,5.60189e-01,9.99999e-01,9.98885e-01,5.60814e-01,9.99999e-01
6.488853688e-01,5.66712e-01,9.99999e-01,9.99037e-01,5.67258e-01,9.99999e-01
6.521297956e-01,5.73165e-01,9.99999e-01,9.99161e-01,5.73646e-01,9.99999e-01
6.553904446e-01,5.79498e-01,9.99999e-01,9.99172e-01,5.79977e-01,9.99999e-01
6.586673968e-01,5.85833e-01,9.99999e-01,9.99285e-01,5.86252e-01,9.99999e-01
6.619607338e-01,5.92224e-01,9.99999e-01,9.99586e-01,5.92468e-01,9.99999e-01
6.652705375e-01,5.98483e-01,9.99999e-01,9.99760e-01,5.98626e-01,9.99999e-01
6.685968902e-01,6.04657e-01,9.99999e-01,9.99888e-01,6.04724e-01,9.99999e-01
6.719398746e-01,6.10731e-01,9.99999e-01,9.99947e-01,6.10762e-01,9.99999e-01
6.752995740e-01,6.16722e-01,9.99999e-01,9.99971e-01,6.16739e-01,9.99999e-01
6.786760719e-01,6.22630e-01,9.99999e-01,9.99959e-01,6.22655e-01,9.99999e-01
6.820694522e-01,6.28466e-01,9.99999e-01,9.99930e-01,6.28509e-01,9.99999e-01
6.854797995e-01,6.34245e-01,9.99999e-01,9.99911e-01,6.34301e-01,9.99999e-01
6.889071985e-01,6.39895e-01,9.99999e-01,9.99787e-01,6.40031e-01,9.99999e-01
6.923517345e-01,6.43443e-01,9.99999e-01,9.96509e-01,6.45697e-01,9.99999e-01
6.958134932e-01,6.50101e-01,9.99999e-01,9.98158e-01,6.51300e-01,9.99999e-01
6.992925606e-01,6.55707e-01,9.99999e-01,9.98274e-01,6.56840e-01,9.99999e-01
7.027890234e-01,6.60898e-01,9.99999e-01,9.97858e-01,6.62316e-01,9.99999e-01
7.063029686e-01,6.66527e-01,9.99999e-01,9.98201e-01,6.67728e-01,9.99999e-01
7.098344834e-01,6.71915e-01,9.99999e-01,9.98274e-01,6.73076e-01,9.99999e-01
7.133836558e-01,6.76812e-01,9.99999e-01,9.97718e-01,6.78360e-01,9.99999e-01
7.169505741e-01,6.71009e-01,9.99999e-01,9.81609e-01,6.83580e-01,9.99999e-01
7.205353270e-01,6.82444e-01,9.99999e-01,9.90864e-01,6.88736e-01,9.99999e-01
7.241380036e-01,6.85874e-01,9.99999e-01,9.88536e-01,6.93827e-01,9.99999e-01
7.277586936e-01,6.91617e-01,9.99999e-01,9.89642e-01,6.98855e-01,9.99999e-01
7.313974871e-01,6.96046e-01,9.99999e-01,9.88956e-01,7.03819e-01,9.99999e-01
7.350544745e-01,7.04443e-01,9.99999e-01,9.93966e-01,7.08719e-01,9.99999e-01
7.387297469e-01,7.10386e-01,9.99999e-01,9.95558e-01,7.13555e-01,9.99999e-01
7.424233956e-01,7.16764e-01,9.99999e-01,9.97822e-01,7.18328e-01,9.99999e-01
7.461355126e-01,7.22084e-01,9.99999e-01,9.98681e-01,7.23037e-01,9.99999e-01
7.498661902e-01,7.27236e-01,9.99999e-01,9.99384e-01,7.27683e-01,9.99999e-01
7.536155211e-01,7.32047e-01,9.99999e-01,9.99698e-01,7.32267e-01,9.99999e-01
7.573835987e-01,7.36674e-01,9.99999e-01,9.99844e-01,7.36788e-01,9.99999e-01
7.611705167e-01,7.41175e-01,9.99999e-01,9.99903e-01,7.41247e-01,9.99999e-01
7.649763693e-01,7.45599e-01,9.99999e-01,9.99939e-01,7.45644e-01,9.99999e-01
7.688012511e-01,7.49948e-01,9.99999e-01,9.99957e-01,7.49979e-01,9.99999e-01
7.726452574e-01,7.54227e-01,9.99999e-01,9.99965e-01,7.54253e-01,9.99999e-01
7.765084837e-01,7.58430e-01,9.99999e-01,9.99950e-01,7.58467e-01,9.99999e-01
7.803910261e-01,7.52313e-01,9.86689e-01,9.99789e-01,7.62620e-01,9.99999e-01
7.842929812e-01,7.22514e-01,9.43031e-01,9.99264e-01,7.66713e-01,9.99999e-01
7.882144461e-01,7.22747e-01,9.39130e-01,9.98477e-01,7.70747e-01,9.99999e-01
7.921555184e-01,7.46770e-01,9.64721e-01,9.99161e-01,7.74721e-01,9.99999e-01
7.961162960e-01,7.58999e-01,9.76208e-01,9.98529e-01,7.78637e-01,9.99999e-01
8.000968774e-01,7.71053e-01,9.87057e-01,9.98295e-01,7.82495e-01,9.99999e-01
8.040973618e-01,7.79668e-01,9.93261e-01,9.98296e-01,7.86295e-01,9.99999e-01
8.081178486e-01,7.84588e-01,9.96911e-01,9.96176e-01,7.90038e-01,9.99999e-01
8.121584379e-01,7.80344e-01,9.99039e-01,9.84083e-01,7.93724e-01,9.99999e-01
8.162192301e-01,7.82031e-01,9.99787e-01,9.80988e-01,7.97354e-01,9.99999e-01
8.203003262e-01,7.93346e-01,9.99996e-01,9.90535e-01,8.00929e-01,9.99999e-01
8.244018279e-01,7.93611e-01,9.99999e-01,9.86528e-01,8.04448e-01,9.99999e-01
8.285238370e-01,7.98771e-01,9.99999e-01,9.88683e-01,8.07913e-01,9.99999e-01
8.326664562e-01,8.02012e-01,9.99999e-01,9.88522e-01,8.11324e-01,9.99999e-01
8.368297885e-01,8.07999e-01,9.99999e-01,9.91796e-01,8.14682e-01,9.99999e-01
8.410139374e-01,8.13996e-01,9.99999e-01,9.95120e-01,8.17987e-01,9.99999e-01
8.452190071e-01,8.19273e-01,9.99999e-01,9.97604e-01,8.21240e-01,9.99999e-01
8.494451021e-01,8.23298e-01,9.99999e-01,9.98613e-01,8.24440e-01,9.99999e-01
8.536923276e-01,8.26910e-01,9.99999e-01,9.99177e-01,8.27590e-01,9.99999e-01
8.579607893e-01,8.30270e-01,9.99999e-01,9.99494e-01,8.30689e-01,9.99999e-01
8.622505932e-01,8.33471e-01,9.99999e-01,9.99678e-01,8.33739e-01,9.99999e-01
8.665618462e-01,8.05580e-01,9.62947e-01,9.99801e-01,8.36739e-01,9.99999e-01
8.708946554e-01,7.21534e-01,8.59477e-01,9.99772e-01,8.39690e-01,9.99999e-01
8.752491287e-01,7.46873e-01,8.86663e-01,9.99696e-01,8.42593e-01,9.99999e-01
8.796253743e-01,7.91718e-01,9.36835e-01,9.99580e-01,8.45448e-01,9.99999e-01
8.840235012e-01,8.19831e-01,9.66950e-01,9.99520e-01,8.48256e-01,9.99999e-01
8.884436187e-01,8.38369e-01,9.86837e-01,9.98268e-01,8.51018e-01,9.99999e-01
8.928858368e-01,8.33636e-01,9.94662e-01,9.81680e-01,8.53734e-01,9.99999e-01
8.973502660e-01,8.27547e-01,9.98695e-01,9.67554e-01,8.56405e-01,9.99999e-01
9.018370173e-01,8.44497e-01,9.99855e-01,9.83220e-01,8.59031e-01,9.99999e-01
9.063462024e-01,8.45985e-01,9.96369e-01,9.85395e-01,8.61613e-01,9.99998e-01
9.108779334e-01,8.37409e-01,9.91595e-01,9.77227e-01,8.64152e-01,9.99998e-01
9.154323231e-01,8.42591e-01,9.98009e-01,9.74164e-01,8.66648e-01,9.99998e-01
9.200094847e-01,8.26845e-01,9.70715e-01,9.79653e-01,8.69101e-01,9.99998e-01
9.246095321e-01,8.10006e-01,9.59474e-01,9.68385e-01,8.71513e-01,9.99998e-01
9.292325798e-01,6.80313e-01,9.68128e-01,8.02912e-01,8.73884e-01,9.99996e-01
9.338787427e-01,6.38661e-01,9.69090e-01,7.50992e-01,8.76214e-01,9.99995e-01
9.385481364e-01,7.65635e-01,9.77264e-01,8.91299e-01,8.78504e-01,9.99995e-01
9.432408771e-01,7.38993e-01,9.86015e-01,8.50664e-01,8.80755e-01,9.99994e-01
9.479570815e-01,6.98897e-01,9.92817e-01,7.97121e-01,8.82966e-01,9.99995e-01
9.526968669e-01,7.45720e-01,9.96525e-01,8.45308e-01,8.85140e-01,9.99996e-01
9.574603512e-01,7.62358e-01,9.98512e-01,8.60458e-01,8.87276e-01,9.99997e-01
9.622476530e-01,7.87016e-01,9.99535e-01,8.85311e-01,8.89374e-01,9.99998e-01
9.670588912e-01,8.31112e-01,9.99860e-01,9.32457e-01,8.91436e-01,9.99998e-01
9.718941857e-01,8.55528e-01,9.99989e-01,9.57552e-01,8.93462e-01,9.99998e-01
9.767536566e-01,8.63811e-01,9.99999e-01,9.64664e-01,8.95452e-01,9.99999e-01
9.816374249e-01,8.73796e-01,9.99999e-01,9.73688e-01,8.97407e-01,9.99999e-01
9.865456120e-01,8.84483e-01,9.99999e-01,9.83492e-01,8.99328e-01,9.99999e-01
9.914783401e-01,8.92003e-01,9.99999e-01,9.89777e-01,9.01215e-01,9.99999e-01
9.964357318e-01,8.98030e-01,9.99999e-01,9.94420e-01,9.03068e-01,9.99999e-01
1.001417910e+00,9.01861e-01,9.99999e-01,9.96652e-01,9.04889e-01,9.99999e-01
1.006425000e+00,9.04949e-01,9.99999e-01,9.98093e-01,9.06677e-01,9.99999e-01
1.011457125e+00,9.07357e-01,9.99999e-01,9.98814e-01,9.08433e-01,9.99999e-01
1.016514411e+00,9.09427e-01,9.99999e-01,9.99195e-01,9.10158e-01,9.99999e-01
1.021596983e+00,9.11252e-01,9.99981e-01,9.99359e-01,9.11852e-01,9.99999e-01
1.026704968e+00,9.11776e-01,9.98592e-01,9.99500e-01,9.13516e-01,9.99999e-01
1.031838492e+00,8.95520e-01,9.78899e-01,9.99636e-01,9.15149e-01,9.99999e-01
1.036997685e+00,3.17720e-01,3.46634e-01,9.99784e-01,9.16753e-01,9.99999e-01
1.042182673e+00,3.91236e-01,4.26133e-01,9.99743e-01,9.18329e-01,9.99999e-01
1.047393587e+00,3.52389e-01,3.83202e-01,9.99659e-01,9.19875e-01,9.99999e-01
1.052630555e+00,7.68041e-02,8.33879e-02,9.99533e-01,9.21394e-01,9.99999e-01
1.057893707e+00,1.32932e-01,1.44131e-01,9.99221e-01,9.22885e-01,9.99999e-01
1.063183176e+00,2.28768e-01,2.47759e-01,9.98718e-01,9.24349e-01,9.99999e-01
1.068499092e+00,3.68277e-01,3.98593e-01,9.97851e-01,9.25787e-01,9.99999e-01
1.073841587e+00,5.17290e-01,5.59206e-01,9.97488e-01,9.27198e-01,9.99999e-01
1.079210795e+00,6.42146e-01,6.93688e-01,9.96775e-01,9.28583e-01,9.99999e-01
1.084606849e+00,7.58159e-01,8.19191e-01,9.95126e-01,9.29943e-01,9.99999e-01
1.090029883e+00,8.34261e-01,9.02048e-01,9.93025e-01,9.31278e-01,9.99999e-01
1.095480033e+00,8.69711e-01,9.50487e-01,9.81078e-01,9.32589e-01,9.99999e-01
1.100957433e+00,8.68137e-01,9.75880e-01,9.52490e-01,9.33875e-01,9.99998e-01
1.106462220e+00,8.17376e-01,9.89952e-01,8.82815e-01,9.35138e-01,9.99997e-01
1.111994531e+00,7.15711e-01,9.96265e-01,7.67122e-01,9.36378e-01,9.99995e-01
1.117554504e+00,6.07855e-01,9.99084e-01,6.48862e-01,9.37594e-01,9.99994e-01
1.123142276e+00,6.77224e-01,9.99939e-01,7.21418e-01,9.38788e-01,9.99993e-01
1.128757988e+00,7.66019e-01,9.99999e-01,8.14953e-01,9.39960e-01,9.99992e-01
1.134401778e+00,5.67220e-01,9.99999e-01,6.02717e-01,9.41111e-01,9.99992e-01
1.140073787e+00,8.35772e-01,9.99999e-01,8.87010e-01,9.42240e-01,9.99993e-01
1.145774156e+00,7.31461e-01,9.99999e-01,7.75392e-01,9.43348e-01,9.99994e-01
1.151503026e+00,7.09758e-01,9.99999e-01,7.51519e-01,9.44435e-01,9.99995e-01
1.157260541e+00,7.49075e-01,9.99999e-01,7.92253e-01,9.45502e-01,9.99996e-01
1.163046844e+00,7.97205e-01,9.99999e-01,8.42224e-01,9.46549e-01,9.99997e-01
1.168862078e+00,8.41796e-01,9.99999e-01,8.88367e-01,9.47577e-01,9.99998e-01
1.174706389e+00,8.81804e-01,9.99999e-01,9.29599e-01,9.48585e-01,9.99998e-01
1.180579921e+00,9.08329e-01,9.99999e-01,9.56564e-01,9.49575e-01,9.99999e-01
1.186482820e+00,9.27046e-01,9.99997e-01,9.75279e-01,9.50546e-01,9.99999e-01
1.192415234e+00,9.33008e-01,9.94951e-01,9.85520e-01,9.51498e-01,9.99999e-01
1.198377311e+00,5.66131e-01,6.00612e-01,9.87796e-01,9.52433e-01,9.99999e-01
1.204369197e+00,1.19410e-05,1.26096e-05,9.88432e-01,9.53350e-01,9.99999e-01
1.210391043e+00,7.06279e-17,7.44716e-17,9.88939e-01,9.54250e-01,9.99999e-01
1.216442998e+00,7.48339e-15,7.88099e-15,9.90570e-01,9.55133e-01,9.99999e-01
1.222525213e+00,1.29176e-14,1.35659e-14,9.92659e-01,9.56000e-01,9.99999e-01
1.228637839e+00,3.39620e-11,3.56245e-11,9.94901e-01,9.56850e-01,9.99999e-01
1.234781029e+00,5.24270e-08,5.48409e-08,9.96208e-01,9.57684e-01,9.99999e-01
1.240954934e+00,1.83964e-05,1.92242e-05,9.97603e-01,9.58502e-01,9.99999e-01
1.247159708e+00,2.23700e-03,2.33519e-03,9.98132e-01,9.59305e-01,9.99999e-01
1.253395507e+00,3.54954e-02,3.70224e-02,9.98343e-01,9.60093e-01,9.99999e-01
1.259662485e+00,1.49021e-01,1.55309e-01,9.98428e-01,9.60865e-01,9.99999e-01
1.265960797e+00,3.25880e-01,3.39666e-01,9.97485e-01,9.61623e-01,9.99999e-01
1.272290601e+00,5.96317e-01,6.21836e-01,9.96308e-01,9.62367e-01,9.99999e-01
1.278652054e+00,5.56757e-01,5.82134e-01,9.92200e-01,9.63096e-01,9.99999e-01
1.285045314e+00,6.61820e-02,6.92060e-02,9.87746e-01,9.63812e-01,9.99999e-01
1.291470541e+00,1.17609e-02,1.24301e-02,9.75478e-01,9.64514e-01,9.99999e-01
1.297927893e+00,7.40677e-02,7.84410e-02,9.68050e-01,9.65202e-01,9.99998e-01
1.304417533e+00,4.18527e-01,4.50973e-01,9.58946e-01,9.65878e-01,9.99997e-01
1.310939621e+00,1.30651e-01,1.39418e-01,9.53251e-01,9.66540e-01,9.99996e-01
1.317494319e+00,3.25446e-06,3.48321e-06,9.49163e-01,9.67190e-01,9.99994e-01
1.324081790e+00,9.71034e-05,1.04671e-04,9.24721e-01,9.67828e-01,9.99992e-01
1.330702199e+00,6.83871e-03,8.72746e-03,7.09027e-01,9.68453e-01,9.99987e-01
1.337355710e+00,3.16722e-03,5.74300e-03,4.30621e-01,9.69066e-01,9.99975e-01
1.344042489e+00,6.33071e-04,2.38049e-03,9.54148e-02,9.69668e-01,9.99949e-01
1.350762701e+00,1.21811e-04,7.11475e-03,1.01062e-02,9.70258e-01,9.99918e-01
1.357516515e+00,1.51883e-04,3.75724e-02,2.48938e-03,9.70837e-01,9.99899e-01
1.364304097e+00,2.58184e-03,1.33172e-01,1.56598e-02,9.71405e-01,9.99892e-01
1.371125618e+00,2.49495e-02,3.42278e-01,6.39681e-02,9.71961e-01,9.99891e-01
1.377981246e+00,4.23465e-02,4.28440e-01,9.53417e-02,9.72508e-01,9.99883e-01
1.384871152e+00,8.31008e-03,6.10207e-01,1.30484e-02,9.73043e-01,9.99884e-01
1.391795508e+00,1.38199e-02,6.33851e-01,2.11650e-02,9.73569e-01,9.99901e-01
1.398754485e+00,2.49446e-02,7.55852e-01,3.31901e-02,9.74084e-01,9.99917e-01
1.405748258e+00,2.64923e-02,8.13086e-01,3.24358e-02,9.74589e-01,9.99925e-01
1.412776999e+00,3.21083e-02,8.77745e-01,3.69160e-02,9.75085e-01,9.99940e-01
1.419840884e+00,3.90524e-02,8.24939e-01,4.42884e-02,9.75571e-01,9.99955e-01
1.426940089e+00,2.33047e-02,1.20547e-01,8.98448e-02,9.76048e-01,9.99972e-01
1.434074789e+00,1.50936e-231,4.36034e-231,1.56245e-01,9.76515e-01,9.99982e-01
1.441245163e+00,0.00000e+00,0.00000e+00,2.60345e-01,9.76973e-01,9.99986e-01
1.448451389e+00,2.61358e-280,4.31574e-280,3.78572e-01,9.77423e-01,9.99988e-01
1.455693646e+00,8.21018e-126,1.14098e-125,5.38690e-01,9.77864e-01,9.99990e-01
1.462972114e+00,9.52683e-62,1.32343e-61,5.92049e-01,9.78297e-01,9.99991e-01
1.470286975e+00,8.14054e-27,1.15911e-26,5.40564e-01,9.78721e-01,9.99992e-01
