#,Wave/freq,Total,CO2,H2O,Rayleigh,CIA
4.000000000e-01,2.43969e-05,9.99999e-01,9.99978e-01,2.43974e-05,9.99999e-01
4.020000000e-01,3.00983e-05,9.99999e-01,9.99986e-01,3.00987e-05,9.99999e-01
4.040100000e-01,3.69705e-05,9.99999e-01,9.99994e-01,3.69707e-05,9.99999e-01
4.060300500e-01,4.52275e-05,9.99999e-01,9.99998e-01,4.52276e-05,9.99999e-01
4.080602003e-01,5.51087e-05,9.99999e-01,9.99999e-01,5.51087e-05,9.99999e-01
4.101005013e-01,6.68870e-05,9.99999e-01,9.99999e-01,6.68870e-05,9.99999e-01
4.121510038e-01,8.08725e-05,9.99999e-01,9.99998e-01,8.08726e-05,9.99999e-01
4.142117588e-01,9.74159e-05,9.99999e-01,9.99993e-01,9.74165e-05,9.99999e-01
4.162828176e-01,1.16911e-04,9.99999e-01,9.99973e-01,1.16914e-04,9.99999e-01
4.183642317e-01,1.39807e-04,9.99999e-01,9.99984e-01,1.39809e-04,9.99999e-01
4.204560528e-01,1.66597e-04,9.99999e-01,9.99990e-01,1.66599e-04,9.99999e-01
4.225583331e-01,1.97834e-04,9.99999e-01,9.99996e-01,1.97835e-04,9.99999e-01
4.246711247e-01,2.34131e-04,9.99999e-01,9.99996e-01,2.34132e-04,9.99999e-01
4.267944804e-01,2.76166e-04,9.99999e-01,9.99995e-01,2.76167e-04,9.99999e-01
4.289284528e-01,3.24688e-04,9.99999e-01,9.99996e-01,3.24689e-04,9.99999e-01
4.310730950e-01,3.80517e-04,9.99999e-01,9.99998e-01,3.80518e-04,9.99999e-01
4.332284605e-01,4.44550e-04,9.99999e-01,9.99999e-01,4.44550e-04,9.99999e-01
4.353946028e-01,5.17765e-04,9.99999e-01,9.99999e-01,5.17765e-04,9.99999e-01
4.375715758e-01,6.01223e-04,9.99999e-01,9.99996e-01,6.01225e-04,9.99999e-01
4.397594337e-01,6.96064e-04,9.99999e-01,9.99976e-01,6.96079e-04,9.99999e-01
4.419582309e-01,8.03478e-04,9.99999e-01,9.99883e-01,8.03571e-04,9.99999e-01
4.441680220e-01,9.24951e-04,9.99999e-01,9.99910e-01,9.25034e-04,9.99999e-01
4.463888621e-01,1.06180e-03,9.99999e-01,9.99906e-01,1.06190e-03,9.99999e-01
4.486208064e-01,1.21563e-03,9.99999e-01,9.99941e-01,1.21570e-03,9.99999e-01
4.508639105e-01,1.38802e-03,9.99999e-01,9.99972e-01,1.38806e-03,9.99999e-01
4.531182300e-01,1.58069e-03,9.99999e-01,9.99988e-01,1.58071e-03,9.99999e-01
4.553838212e-01,1.79547e-03,9.99999e-01,9.99992e-01,1.79548e-03,9.99999e-01
4.576607403e-01,2.03431e-03,9.99999e-01,9.99996e-01,2.03432e-03,9.99999e-01
4.599490440e-01,2.29923e-03,9.99999e-01,9.99997e-01,2.29924e-03,9.99999e-01
4.622487892e-01,2.59238e-03,9.99999e-01,9.99999e-01,2.59238e-03,9.99999e-01
4.645600332e-01,2.91598e-03,9.99999e-01,9.99997e-01,2.91598e-03,9.99999e-01
4.668828333e-01,3.27227e-03,9.99999e-01,9.99972e-01,3.27236e-03,9.99999e-01
4.692172475e-01,3.66373e-03,9.99999e-01,9.99941e-01,3.66395e-03,9.99999e-01
4.715633337e-01,4.09308e-03,9.99999e-01,9.99961e-01,4.09324e-03,9.99999e-01
4.739211504e-01,4.56267e-03,9.99999e-01,9.99962e-01,4.56284e-03,9.99999e-01
4.762907561e-01,5.07531e-03,9.99999e-01,9.99980e-01,5.07541e-03,9.99999e-01
4.786722099e-01,5.63365e-03,9.99999e-01,9.99991e-01,5.63370e-03,9.99999e-01
4.810655710e-01,6.24051e-03,9.99999e-01,9.99997e-01,6.24052e-03,9.99999e-01
4.834708988e-01,6.89860e-03,9.99999e-01,9.99976e-01,6.89875e-03,9.99999e-01
4.858882533e-01,7.61101e-03,9.99999e-01,9.99958e-01,7.61133e-03,9.99999e-01
4.883176946e-01,8.38092e-03,9.99999e-01,9.99964e-01,8.38121e-03,9.99999e-01
4.907592831e-01,9.21113e-03,9.99999e-01,9.99968e-01,9.21142e-03,9.99999e-01
4.932130795e-01,1.01048e-02,9.99999e-01,9.99977e-01,1.01050e-02,9.99999e-01
4.956791449e-01,1.10649e-02,9.99999e-01,9.99987e-01,1.10650e-02,9.99999e-01
4.981575406e-01,1.20938e-02,9.99999e-01,9.99940e-01,1.20945e-02,9.99999e-01
5.006483283e-01,1.31946e-02,9.99999e-01,9.99846e-01,1.31966e-02,9.99999e-01
5.031515699e-01,1.43632e-02,9.99999e-01,9.99225e-01,1.43743e-02,9.99999e-01
5.056673278e-01,1.56244e-02,9.99999e-01,9.99591e-01,1.56307e-02,9.99999e-01
5.081956644e-01,1.69601e-02,9.99999e-01,9.99485e-01,1.69689e-02,9.99999e-01
5.107366428e-01,1.83853e-02,9.99999e-01,9.99652e-01,1.83917e-02,9.99999e-01
5.132903260e-01,1.98982e-02,9.99999e-01,9.99801e-01,1.99021e-02,9.99999e-01
5.158567776e-01,2.15013e-02,9.99999e-01,9.99915e-01,2.15031e-02,9.99999e-01
5.184360615e-01,2.31965e-02,9.99999e-01,9.99966e-01,2.31973e-02,9.99999e-01
5.210282418e-01,2.49873e-02,9.99999e-01,9.99986e-01,2.49876e-02,9.99999e-01
5.236333830e-01,2.68752e-02,9.99999e-01,9.99949e-01,2.68765e-02,9.99999e-01
5.262515499e-01,2.88658e-02,9.99999e-01,9.99968e-01,2.88667e-02,9.99999e-01
5.288828077e-01,3.09596e-02,9.99999e-01,9.99970e-01,3.09605e-02,9.99999e-01
5.315272217e-01,3.31595e-02,9.99999e-01,9.99974e-01,3.31603e-02,9.99999e-01
5.341848578e-01,3.54677e-02,9.99999e-01,9.99982e-01,3.54683e-02,9.99999e-01
5.368557821e-01,3.78842e-02,9.99999e-01,9.99940e-01,3.78865e-02,9.99999e-01
5.395400610e-01,4.04083e-02,9.99999e-01,9.99786e-01,4.04169e-02,9.99999e-01
5.422377613e-01,4.30495e-02,9.99999e-01,9.99726e-01,4.30612e-02,9.99999e-01
5.449489501e-01,4.58095e-02,9.99999e-01,9.99744e-01,4.58212e-02,9.99999e-01
5.476736949e-01,4.86874e-02,9.99999e-01,9.99774e-01,4.86983e-02,9.99999e-01
5.504120634e-01,5.16854e-02,9.99999e-01,9.99836e-01,5.16938e-02,9.99999e-01
5.531641237e-01,5.48044e-02,9.99999e-01,9.99917e-01,5.48089e-02,9.99999e-01
5.559299443e-01,5.80424e-02,9.99999e-01,9.99959e-01,5.80447e-02,9.99999e-01
5.587095940e-01,6.14003e-02,9.99999e-01,9.99974e-01,6.14018e-02,9.99999e-01
5.615031420e-01,6.48792e-02,9.99999e-01,9.99971e-01,6.48810e-02,9.99999e-01
5.643106577e-01,6.84806e-02,9.99999e-01,9.99967e-01,6.84827e-02,9.99999e-01
5.671322110e-01,7.21795e-02,9.99999e-01,9.99614e-01,7.22073e-02,9.99999e-01
5.699678720e-01,7.60241e-02,9.99999e-01,9.99594e-01,7.60549e-02,9.99999e-01
5.728177114e-01,7.99914e-02,9.99999e-01,9.99575e-01,8.00253e-02,9.99999e-01
5.756818000e-01,8.40858e-02,9.99999e-01,9.99611e-01,8.41185e-02,9.99999e-01
5.785602090e-01,8.83040e-02,9.99999e-01,9.99661e-01,8.83339e-02,9.99999e-01
5.814530100e-01,9.26395e-02,9.99999e-01,9.99659e-01,9.26711e-02,9.99999e-01
5.843602750e-01,9.70896e-02,9.99999e-01,9.99592e-01,9.71291e-02,9.99999e-01
5.872820764e-01,1.01351e-01,9.99999e-01,9.96496e-01,1.01707e-01,9.99999e-01
5.902184868e-01,1.05954e-01,9.99999e-01,9.95772e-01,1.06404e-01,9.99999e-01
5.931695792e-01,1.10886e-01,9.99999e-01,9.97008e-01,1.11219e-01,9.99999e-01
5.961354271e-01,1.15770e-01,9.99999e-01,9.96723e-01,1.16150e-01,9.99999e-01
5.991161043e-01,1.20906e-01,9.99999e-01,9.97611e-01,1.21196e-01,9.99999e-01
6.021116848e-01,1.26183e-01,9.99999e-01,9.98644e-01,1.26355e-01,9.99999e-01
6.051222432e-01,1.31534e-01,9.99999e-01,9.99314e-01,1.31625e-01,9.99999e-01
6.081478544e-01,1.36963e-01,9.99999e-01,9.99703e-01,1.37004e-01,9.99999e-01
6.111885937e-01,1.42472e-01,9.99999e-01,9.99874e-01,1.42490e-01,9.99999e-01
6.142445367e-01,1.48072e-01,9.99999e-01,9.99943e-01,1.48081e-01,9.99999e-01
6.173157594e-01,1.53769e-01,9.99999e-01,9.99968e-01,1.53774e-01,9.99999e-01
6.204023382e-01,1.59563e-01,9.99999e-01,9.99973e-01,1.59567e-01,9.99999e-01
6.235043498e-01,1.65439e-01,9.99999e-01,9.99883e-01,1.65458e-01,9.99999e-01
6.266218716e-01,1.71339e-01,9.99999e-01,9.99390e-01,1.71443e-01,9.99999e-01
6.297549810e-01,1.77481e-01,9.99999e-01,9.99776e-01,1.77521e-01,9.99999e-01
6.329037559e-01,1.83606e-01,9.99999e-01,9.99558e-01,1.83687e-01,9.99999e-01
6.360682746e-01,1.89868e-01,9.99999e-01,9.99623e-01,1.89939e-01,9.99999e-01
6.392486160e-01,1.96179e-01,9.99999e-01,9.99512e-01,1.96274e-01,9.99999e-01
6.424448591e-01,2.02557e-01,9.99999e-01,9.99345e-01,2.02690e-01,9.99999e-01
6.456570834e-01,2.08546e-01,9.99999e-01,9.96963e-01,2.09181e-01,9.99999e-01
6.488853688e-01,2.15269e-01,9.99999e-01,9.97786e-01,2.15747e-01,9.99999e-01
6.521297956e-01,2.21881e-01,9.99999e-01,9.97743e-01,2.22383e-01,9.99999e-01
6.553904446e-01,2.28570e-01,9.99999e-01,9.97749e-01,2.29085e-01,9.99999e-01
6.586673968e-01,2.35398e-01,9.99999e-01,9.98075e-01,2.35852e-01,9.99999e-01
6.619607338e-01,2.42418e-01,9.99999e-01,9.98927e-01,2.42678e-01,9.99999e-01
6.652705375e-01,2.49401e-01,9.99999e-01,9.99356e-01,2.49562e-01,9.99999e-01
6.685968902e-01,2.56428e-01,9.99999e-01,9.99726e-01,2.56499e-01,9.99999e-01
6.719398746e-01,2.63449e-01,9.99999e-01,9.99861e-01,2.63486e-01,9.99999e-01
6.752995740e-01,2.70499e-01,9.99999e-01,9.99924e-01,2.70519e-01,9.99999e-01
6.786760719e-01,2.77566e-01,9.99999e-01,9.99890e-01,2.77596e-01,9.99999e-01
6.820694522e-01,2.84660e-01,9.99999e-01,9.99813e-01,2.84713e-01,9.99999e-01
6.854797995e-01,2.91797e-01,9.99999e-01,9.99759e-01,2.91867e-01,9.99999e-01
6.889071985e-01,2.98879e-01,9.99999e-01,9.99415e-01,2.99053e-01,9.99999e-01
6.923517345e-01,3.03367e-01,9.99999e-01,9.90523e-01,3.06270e-01,9.99999e-01
6.958134932e-01,3.11978e-01,9.99999e-01,9.95105e-01,3.13512e-01,9.99999e-01
6.992925606e-01,3.19274e-01,9.99999e-01,9.95310e-01,3.20778e-01,9.99999e-01
7.027890234e-01,3.26172e-01,9.99999e-01,9.94231e-01,3.28064e-01,9.99999e-01
7.063029686e-01,3.33739e-01,9.99999e-01,9.95147e-01,3.35366e-01,9.99999e-01
7.098344834e-01,3.41087e-01,9.99999e-01,9.95343e-01,3.42682e-01,9.99999e-01
7.133836558e-01,3.47826e-01,9.99999e-01,9.93764e-01,3.50009e-01,9.99999e-01
7.169505741e-01,3.39815e-01,9.99999e-01,9.50950e-01,3.57342e-01,9.99998e-01
7.205353270e-01,3.55887e-01,9.99999e-01,9.75889e-01,3.64680e-01,9.99998e-01
7.241380036e-01,3.60590e-01,9.99999e-01,9.69278e-01,3.72019e-01,9.99998e-01
7.277586936e-01,3.68828e-01,9.99999e-01,9.72247e-01,3.79357e-01,9.99998e-01
7.313974871e-01,3.75321e-01,9.99999e-01,9.70599e-01,3.86690e-01,9.99999e-01
7.350544745e-01,3.87644e-01,9.99999e-01,9.83829e-01,3.94015e-01,9.99999e-01
7.387297469e-01,3.96549e-01,9.99999e-01,9.88083e-01,4.01331e-01,9.99999e-01
7.424233956e-01,4.06248e-01,9.99999e-01,9.94159e-01,4.08634e-01,9.99999e-01
7.461355126e-01,4.14448e-01,9.99999e-01,9.96455e-01,4.15922e-01,9.99999e-01
7.498661902e-01,4.22494e-01,9.99999e-01,9.98350e-01,4.23192e-01,9.99999e-01
7.536155211e-01,4.30093e-01,9.99999e-01,9.99189e-01,4.30441e-01,9.99999e-01
7.573835987e-01,4.37486e-01,9.99999e-01,9.99582e-01,4.37668e-01,9.99999e-01
7.611705167e-01,4.44755e-01,9.99999e-01,9.99740e-01,4.44870e-01,9.99999e-01
7.649763693e-01,4.51971e-01,9.99999e-01,9.99837e-01,4.52045e-01,9.99999e-01
7.688012511e-01,4.59138e-01,9.99999e-01,9.99886e-01,4.59190e-01,9.99999e-01
7.726452574e-01,4.66260e-01,9.99999e-01,9.99906e-01,4.66304e-01,9.99999e-01
7.765084837e-01,4.73321e-01,9.99999e-01,9.99866e-01,4.73384e-01,9.99999e-01
7.803910261e-01,4.63330e-01,9.64944e-01,9.99425e-01,4.80429e-01,9.99999e-01
7.842929812e-01,4.16888e-01,8.56900e-01,9.97995e-01,4.87436e-01,9.99999e-01
7.882144461e-01,4.17192e-01,8.47171e-01,9.95887e-01,4.94404e-01,9.99999e-01
7.921555184e-01,4.54074e-01,9.07732e-01,9.97748e-01,5.01331e-01,9.99999e-01
7.961162960e-01,4.74541e-01,9.37452e-01,9.96003e-01,5.08215e-01,9.99999e-01
8.000968774e-01,4.95038e-01,9.65566e-01,9.95396e-01,5.15056e-01,9.99999e-01
8.040973618e-01,5.10126e-01,9.82048e-01,9.95391e-01,5.21850e-01,9.99999e-01
8.081178486e-01,5.18772e-01,9.91704e-01,9.89607e-01,5.28597e-01,9.99999e-01
8.121584379e-01,5.11178e-01,9.97442e-01,9.57369e-01,5.35296e-01,9.99998e-01
8.162192301e-01,5.14443e-01,9.99434e-01,9.49780e-01,5.41944e-01,9.99998e-01
8.203003262e-01,5.34529e-01,9.99991e-01,9.74461e-01,5.48542e-01,9.99998e-01
8.244018279e-01,5.35563e-01,9.99999e-01,9.64826e-01,5.55087e-01,9.99998e-01
8.285238370e-01,5.44543e-01,9.99999e-01,9.69665e-01,5.61579e-01,9.99998e-01
8.326664562e-01,5.50627e-01,9.99999e-01,9.69387e-01,5.68016e-01,9.99999e-01
8.368297885e-01,5.61799e-01,9.99999e-01,9.78067e-01,5.74397e-01,9.99999e-01
8.410139374e-01,5.73126e-01,9.99999e-01,9.86918e-01,5.80722e-01,9.99999e-01
8.452190071e-01,5.83216e-01,9.99999e-01,9.93570e-01,5.86990e-01,9.99999e-01
8.494451021e-01,5.90981e-01,9.99999e-01,9.96260e-01,5.93199e-01,9.99999e-01
8.536923276e-01,5.98026e-01,9.99999e-01,9.97790e-01,5.99350e-01,9.99999e-01
8.579607893e-01,6.04616e-01,9.99999e-01,9.98637e-01,6.05441e-01,9.99999e-01
8.622505932e-01,6.10943e-01,9.99999e-01,9.99134e-01,6.11472e-01,9.99999e-01
8.665618462e-01,5.69741e-01,9.23219e-01,9.99463e-01,6.17442e-01,9.99999e-01
8.708946554e-01,4.20503e-01,6.74983e-01,9.99385e-01,6.23351e-01,9.99999e-01
8.752491287e-01,4.58240e-01,7.28873e-01,9.99178e-01,6.29197e-01,9.99999e-01
8.796253743e-01,5.33151e-01,8.40559e-01,9.98861e-01,6.34982e-01,9.99999e-01
8.840235012e-01,5.84757e-01,9.13848e-01,9.98699e-01,6.40704e-01,9.99999e-01
8.884436187e-01,6.20906e-01,9.65177e-01,9.95226e-01,6.46363e-01,9.99999e-01
8.928858368e-01,6.11242e-01,9.85738e-01,9.50990e-01,6.51958e-01,9.99998e-01
8.973502660e-01,5.99700e-01,9.96528e-01,9.15216e-01,6.57490e-01,9.99998e-01
9.018370173e-01,6.33498e-01,9.99617e-01,9.55917e-01,6.62959e-01,9.99998e-01
9.063462024e-01,6.36030e-01,9.90068e-01,9.60865e-01,6.68363e-01,9.99998e-01
9.108779334e-01,6.19090e-01,9.77568e-01,9.39755e-01,6.73704e-01,9.99997e-01
9.154323231e-01,6.29476e-01,9.94714e-01,9.31910e-01,6.78980e-01,9.99997e-01
9.200094847e-01,6.00719e-01,9.25073e-01,9.46317e-01,6.84193e-01,9.99997e-01
9.246095321e-01,5.66578e-01,8.94846e-01,9.16614e-01,6.89341e-01,9.99995e-01
9.292325798e-01,3.60438e-01,9.16262e-01,5.61142e-01,6.94425e-01,9.99991e-01
9.338787427e-01,3.08973e-01,9.19274e-01,4.76209e-01,6.99445e-01,9.99988e-01
9.385481364e-01,4.92676e-01,9.40004e-01,7.41367e-01,7.04401e-01,9.99988e-01
9.432408771e-01,4.51052e-01,9.62878e-01,6.59032e-01,7.09294e-01,9.99987e-01
9.479570815e-01,3.95089e-01,9.80763e-01,5.63493e-01,7.14122e-01,9.99988e-01
9.526968669e-01,4.63626e-01,9.90688e-01,6.50441e-01,7.18888e-01,9.99991e-01
9.574603512e-01,4.84567e-01,9.96009e-01,6.72175e-01,7.23589e-01,9.99993e-01
9.622476530e-01,5.26495e-01,9.98754e-01,7.23830e-01,7.28228e-01,9.99995e-01
9.670588912e-01,6.07921e-01,9.99626e-01,8.29876e-01,7.32805e-01,9.99996e-01
9.718941857e-01,6.56059e-01,9.99973e-01,8.89813e-01,7.37318e-01,9.99997e-01
9.767536566e-01,6.73250e-01,9.99999e-01,9.07626e-01,7.41770e-01,9.99998e-01
9.816374249e-01,6.94499e-01,9.99999e-01,9.30764e-01,7.46159e-01,9.99998e-01
9.865456120e-01,7.17597e-01,9.99999e-01,9.56173e-01,7.50488e-01,9.99999e-01
9.914783401e-01,7.34133e-01,9.99999e-01,9.72676e-01,7.54755e-01,9.99999e-01
9.964357318e-01,7.47600e-01,9.99999e-01,9.85031e-01,7.58961e-01,9.99999e-01
1.001417910e+00,7.56243e-01,9.99999e-01,9.91004e-01,7.63107e-01,9.99999e-01
1.006425000e+00,7.63249e-01,9.99999e-01,9.94859e-01,7.67193e-01,9.99999e-01
1.011457125e+00,7.68760e-01,9.99999e-01,9.96809e-01,7.71219e-01,9.99999e-01
1.016514411e+00,7.73507e-01,9.99999e-01,9.97832e-01,7.75187e-01,9.99999e-01
1.021596983e+00,7.77707e-01,9.99943e-01,9.98271e-01,7.79096e-01,9.99999e-01
1.026704968e+00,7.78853e-01,9.96111e-01,9.98651e-01,7.82947e-01,9.99999e-01
1.031838492e+00,7.49426e-01,9.53473e-01,9.99020e-01,7.86740e-01,9.99999e-01
1.036997685e+00,1.17251e-01,1.48398e-01,9.99417e-01,7.90476e-01,9.99999e-01
1.042182673e+00,9.08775e-02,1.14503e-01,9.99304e-01,7.94156e-01,9.99999e-01
1.047393587e+00,1.08325e-01,1.35893e-01,9.99078e-01,7.97780e-01,9.99999e-01
1.052630555e+00,2.80447e-03,3.50292e-03,9.98735e-01,8.01348e-01,9.99999e-01
1.057893707e+00,7.29453e-03,9.07595e-03,9.97888e-01,8.04861e-01,9.99999e-01
1.063183176e+00,2.50522e-02,3.10698e-02,9.96527e-01,8.08319e-01,9.99999e-01
1.068499092e+00,7.17885e-02,8.88714e-02,9.94194e-01,8.11724e-01,9.99999e-01
1.073841587e+00,1.75731e-01,2.16854e-01,9.93202e-01,8.15076e-01,9.99999e-01
1.079210795e+00,3.08388e-01,3.79833e-01,9.91308e-01,8.18374e-01,9.99999e-01
1.084606849e+00,4.76216e-01,5.86959e-01,9.86860e-01,8.21621e-01,9.99999e-01
1.090029883e+00,6.13915e-01,7.58217e-01,9.81127e-01,8.24815e-01,9.99998e-01
1.095480033e+00,6.86330e-01,8.72584e-01,9.49442e-01,8.27959e-01,9.99998e-01
1.100957433e+00,6.82588e-01,9.36433e-01,8.76497e-01,8.31052e-01,9.99997e-01
1.106462220e+00,5.81536e-01,9.73225e-01,7.15672e-01,8.34096e-01,9.99994e-01
1.111994531e+00,4.11937e-01,9.89991e-01,4.96719e-01,8.37090e-01,9.99989e-01
1.117554504e+00,2.71417e-01,9.97553e-01,3.23748e-01,8.40035e-01,9.99985e-01
1.123142276e+00,3.71083e-01,9.99839e-01,4.40268e-01,8.42933e-01,9.99983e-01
1.128757988e+00,4.97389e-01,9.99999e-01,5.88091e-01,8.45782e-01,9.99981e-01
1.134401778e+00,2.80637e-01,9.99999e-01,3.30718e-01,8.48585e-01,9.99979e-01
1.140073787e+00,6.19022e-01,9.99999e-01,7.27124e-01,8.51342e-01,9.99983e-01
1.145774156e+00,4.41606e-01,9.99999e-01,5.17078e-01,8.54052e-01,9.99985e-01
1.151503026e+00,4.11451e-01,9.99999e-01,4.80269e-01,8.56718e-01,9.99987e-01
1.157260541e+00,4.63807e-01,9.99999e-01,5.39730e-01,8.59339e-01,9.99990e-01
1.163046844e+00,5.46304e-01,9.99999e-01,6.33828e-01,8.61916e-01,9.99993e-01
1.168862078e+00,6.29273e-01,9.99999e-01,7.27947e-01,8.64449e-01,9.99996e-01
1.174706389e+00,7.12633e-01,9.99999e-01,8.22010e-01,8.66940e-01,9.99998e-01
1.180579921e+00,7.71566e-01,9.99999e-01,8.87481e-01,8.69389e-01,9.99998e-01
1.186482820e+00,8.14898e-01,9.99991e-01,9.34741e-01,8.71796e-01,9.99998e-01
1.192415234e+00,8.28901e-01,9.86164e-01,9.61373e-01,8.74161e-01,9.99998e-01
1.198377311e+00,4.77694e-01,5.60349e-01,9.67322e-01,8.76487e-01,9.99998e-01
1.204369197e+00,1.81285e-11,2.10070e-11,9.69064e-01,8.78772e-01,9.99999e-01
1.210391043e+00,7.92560e-42,9.14725e-42,9.70399e-01,8.81018e-01,9.99999e-01
1.216442998e+00,2.12806e-36,2.44780e-36,9.74785e-01,8.83225e-01,9.99999e-01
1.222525213e+00,7.15419e-36,8.16339e-36,9.80309e-01,8.85394e-01,9.99999e-01
1.228637839e+00,8.70109e-28,9.89783e-28,9.86284e-01,8.87526e-01,9.99999e-01
1.234781029e+00,5.36747e-18,6.06022e-18,9.89803e-01,8.89620e-01,9.99999e-01
1.240954934e+00,3.81171e-12,4.29273e-12,9.93539e-01,8.91677e-01,9.99999e-01
1.247159708e+00,9.64388e-07,1.08237e-06,9.94967e-01,8.93699e-01,9.99999e-01
1.253395507e+00,2.33777e-04,2.61879e-04,9.95528e-01,8.95685e-01,9.99999e-01
1.259662485e+00,7.88686e-03,8.81629e-03,9.95748e-01,8.97636e-01,9.99999e-01
1.265960797e+00,5.82127e-02,6.50633e-02,9.93219e-01,8.99553e-01,9.99999e-01
1.272290601e+00,2.79959e-01,3.13617e-01,9.89352e-01,9.01436e-01,9.99999e-01
1.278652054e+00,2.36260e-01,2.65994e-01,9.78935e-01,9.03285e-01,9.99999e-01
1.285045314e+00,4.51396e-03,5.07094e-03,9.62089e-01,9.05102e-01,9.99998e-01
1.291470541e+00,1.32150e-05,1.52181e-05,9.34865e-01,9.06886e-01,9.99998e-01
1.297927893e+00,7.56586e-03,8.74793e-03,9.08599e-01,9.08639e-01,9.99997e-01
1.304417533e+00,9.95128e-02,1.20919e-01,8.93266e-01,9.10360e-01,9.99995e-01
1.310939621e+00,2.42397e-02,2.87050e-02,8.78463e-01,9.12050e-01,9.99992e-01
1.317494319e+00,7.12819e-15,8.46141e-15,8.69340e-01,9.13710e-01,9.99987e-01
1.324081790e+00,2.63256e-10,3.17806e-10,8.10829e-01,9.15340e-01,9.99979e-01
1.330702199e+00,2.99729e-06,4.92589e-06,4.41965e-01,9.16941e-01,9.99966e-01
1.337355710e+00,1.56536e-06,6.69868e-06,1.22235e-01,9.18513e-01,9.99935e-01
1.344042489e+00,2.44820e-07,2.01702e-06,7.05819e-03,9.20056e-01,9.99862e-01
1.350762701e+00,3.21905e-10,3.06099e-06,2.77632e-05,9.21572e-01,9.99781e-01
1.357516515e+00,4.87940e-10,3.00025e-04,3.72960e-07,9.23060e-01,9.99729e-01
1.364304097e+00,7.38313e-07,4.97217e-03,7.58311e-05,9.24521e-01,9.99709e-01
1.371125618e+00,1.66148e-04,6.32367e-02,1.71000e-03,9.25955e-01,9.99707e-01
1.377981246e+00,5.32708e-04,1.03140e-01,4.24381e-03,9.27363e-01,9.99685e-01
1.384871152e+00,3.50930e-05,2.66719e-01,1.11521e-04,9.28745e-01,9.99694e-01
1.391795508e+00,3.51525e-05,2.94986e-01,1.00821e-04,9.30102e-01,9.99740e-01
1.398754485e+00,2.34388e-04,4.70420e-01,4.97315e-04,9.31435e-01,9.99777e-01
1.405748258e+00,2.61189e-04,5.74245e-01,4.42254e-04,9.32742e-01,9.99800e-01
1.412776999e+00,3.21460e-04,7.04387e-01,4.53013e-04,9.34026e-01,9.99839e-01
1.419840884e+00,5.69474e-04,6.30734e-01,7.81074e-04,9.35286e-01,9.99880e-01
1.426940089e+00,1.12109e-03,5.67779e-02,3.68101e-03,9.36523e-01,9.99925e-01
1.434074789e+00,0.00000e+00,0.00000e+00,1.38307e-02,9.37737e-01,9.99953e-01
1.441245163e+00,0.00000e+00,0.00000e+00,3.54319e-02,9.38928e-01,9.99963e-01
1.448451389e+00,0.00000e+00,0.00000e+00,9.43891e-02,9.40098e-01,9.99969e-01
1.455693646e+00,0.00000e+00,0.00000e+00,2.07040e-01,9.41245e-01,9.99974e-01
1.462972114e+00,3.15375e-163,7.67360e-163,2.55629e-01,9.42372e-01,9.99978e-01
1.470286975e+00,9.94083e-69,2.58016e-68,2.04280e-01,9.43477e-01,9.99980e-01
