#,Wave/freq,Total,CO2,H2O,Rayleigh,CIA
4.000000000e-01,3.07343e-07,9.99999e-01,9.99970e-01,3.07352e-07,9.99999e-01
4.020000000e-01,4.13424e-07,9.99999e-01,9.99981e-01,4.13431e-07,9.99999e-01
4.040100000e-01,5.52703e-07,9.99999e-01,9.99991e-01,5.52707e-07,9.99999e-01
4.060300500e-01,7.34676e-07,9.99999e-01,9.99997e-01,7.34677e-07,9.99999e-01
4.080602003e-01,9.71082e-07,9.99999e-01,9.99998e-01,9.71083e-07,9.99999e-01
4.101005013e-01,1.27651e-06,9.99999e-01,9.99999e-01,1.27651e-06,9.99999e-01
4.121510038e-01,1.66895e-06,9.99999e-01,9.99998e-01,1.66895e-06,9.99999e-01
4.142117588e-01,2.17051e-06,9.99999e-01,9.99991e-01,2.17052e-06,9.99999e-01
4.162828176e-01,2.80812e-06,9.99999e-01,9.99963e-01,2.80822e-06,9.99999e-01
4.183642317e-01,3.61476e-06,9.99999e-01,9.99977e-01,3.61484e-06,9.99999e-01
4.204560528e-01,4.62993e-06,9.99999e-01,9.99986e-01,4.62999e-06,9.99999e-01
4.225583331e-01,5.90127e-06,9.99999e-01,9.99994e-01,5.90130e-06,9.99999e-01
4.246711247e-01,7.48571e-06,9.99999e-01,9.99995e-01,7.48574e-06,9.99999e-01
4.267944804e-01,9.45102e-06,9.99999e-01,9.99993e-01,9.45107e-06,9.99999e-01
4.289284528e-01,1.18775e-05,9.99999e-01,9.99995e-01,1.18776e-05,9.99999e-01
4.310730950e-01,1.48598e-05,9.99999e-01,9.99997e-01,1.48598e-05,9.99999e-01
4.332284605e-01,1.85088e-05,9.99999e-01,9.99999e-01,1.85088e-05,9.99999e-01
4.353946028e-01,2.29541e-05,9.99999e-01,9.99999e-01,2.29541e-05,9.99999e-01
4.375715758e-01,2.83461e-05,9.99999e-01,9.99995e-01,2.83462e-05,9.99999e-01
4.397594337e-01,3.48582e-05,9.99999e-01,9.99967e-01,3.48593e-05,9.99999e-01
4.419582309e-01,4.26873e-05,9.99999e-01,9.99837e-01,4.26942e-05,9.99999e-01
4.441680220e-01,5.20745e-05,9.99999e-01,9.99873e-01,5.20811e-05,9.99999e-01
4.463888621e-01,6.32746e-05,9.99999e-01,9.99867e-01,6.32829e-05,9.99999e-01
4.486208064e-01,7.65924e-05,9.99999e-01,9.99917e-01,7.65987e-05,9.99999e-01
4.508639105e-01,9.23637e-05,9.99999e-01,9.99961e-01,9.23673e-05,9.99999e-01
4.531182300e-01,1.10969e-04,9.99999e-01,9.99984e-01,1.10971e-04,9.99999e-01
4.553838212e-01,1.32838e-04,9.99999e-01,9.99989e-01,1.32839e-04,9.99999e-01
4.576607403e-01,1.58452e-04,9.99999e-01,9.99994e-01,1.58453e-04,9.99999e-01
4.599490440e-01,1.88348e-04,9.99999e-01,9.99996e-01,1.88348e-04,9.99999e-01
4.622487892e-01,2.23121e-04,9.99999e-01,9.99998e-01,2.23121e-04,9.99999e-01
4.645600332e-01,2.63430e-04,9.99999e-01,9.99997e-01,2.63430e-04,9.99999e-01
4.668828333e-01,3.09991e-04,9.99999e-01,9.99960e-01,3.10003e-04,9.99999e-01
4.692172475e-01,3.63609e-04,9.99999e-01,9.99916e-01,3.63639e-04,9.99999e-01
4.715633337e-01,4.25189e-04,9.99999e-01,9.99945e-01,4.25212e-04,9.99999e-01
4.739211504e-01,4.95652e-04,9.99999e-01,9.99947e-01,4.95677e-04,9.99999e-01
4.762907561e-01,5.76057e-04,9.99999e-01,9.99972e-01,5.76072e-04,9.99999e-01
4.786722099e-01,6.67515e-04,9.99999e-01,9.99988e-01,6.67522e-04,9.99999e-01
4.810655710e-01,7.71239e-04,9.99999e-01,9.99996e-01,7.71241e-04,9.99999e-01
4.834708988e-01,8.88510e-04,9.99999e-01,9.99967e-01,8.88538e-04,9.99999e-01
4.858882533e-01,1.02076e-03,9.99999e-01,9.99941e-01,1.02082e-03,9.99999e-01
4.883176946e-01,1.16952e-03,9.99999e-01,9.99950e-01,1.16957e-03,9.99999e-01
4.907592831e-01,1.33636e-03,9.99999e-01,9.99955e-01,1.33642e-03,9.99999e-01
4.932130795e-01,1.52299e-03,9.99999e-01,9.99968e-01,1.52304e-03,9.99999e-01
4.956791449e-01,1.73122e-03,9.99999e-01,9.99982e-01,1.73125e-03,9.99999e-01
4.981575406e-01,1.96279e-03,9.99999e-01,9.99916e-01,1.96295e-03,9.99999e-01
5.006483283e-01,2.21966e-03,9.99999e-01,9.99784e-01,2.22014e-03,9.99999e-01
5.031515699e-01,2.50220e-03,9.99999e-01,9.98908e-01,2.50493e-03,9.99999e-01
5.056673278e-01,2.81791e-03,9.99999e-01,9.99423e-01,2.81953e-03,9.99999e-01
5.081956644e-01,3.16393e-03,9.99999e-01,9.99273e-01,3.16623e-03,9.99999e-01
5.107366428e-01,3.54568e-03,9.99999e-01,9.99509e-01,3.54742e-03,9.99999e-01
5.132903260e-01,3.96448e-03,9.99999e-01,9.99719e-01,3.96559e-03,9.99999e-01
5.158567776e-01,4.42278e-03,9.99999e-01,9.99881e-01,4.42331e-03,9.99999e-01
5.184360615e-01,4.92299e-03,9.99999e-01,9.99952e-01,4.92322e-03,9.99999e-01
5.210282418e-01,5.46796e-03,9.99999e-01,9.99981e-01,5.46806e-03,9.99999e-01
5.236333830e-01,6.06018e-03,9.99999e-01,9.99928e-01,6.06061e-03,9.99999e-01
5.262515499e-01,6.70344e-03,9.99999e-01,9.99955e-01,6.70374e-03,9.99999e-01
5.288828077e-01,7.40006e-03,9.99999e-01,9.99958e-01,7.40036e-03,9.99999e-01
5.315272217e-01,8.15314e-03,9.99999e-01,9.99963e-01,8.15343e-03,9.99999e-01
5.341848578e-01,8.96575e-03,9.99999e-01,9.99976e-01,8.96596e-03,9.99999e-01
5.368557821e-01,9.84015e-03,9.99999e-01,9.99916e-01,9.84097e-03,9.99999e-01
5.395400610e-01,1.07783e-02,9.99999e-01,9.99700e-01,1.07815e-02,9.99999e-01
5.422377613e-01,1.17862e-02,9.99999e-01,9.99613e-01,1.17907e-02,9.99999e-01
5.449489501e-01,1.28669e-02,9.99999e-01,9.99640e-01,1.28716e-02,9.99999e-01
5.476736949e-01,1.40227e-02,9.99999e-01,9.99681e-01,1.40272e-02,9.99999e-01
5.504120634e-01,1.52571e-02,9.99999e-01,9.99768e-01,1.52606e-02,9.99999e-01
5.531641237e-01,1.65730e-02,9.99999e-01,9.99883e-01,1.65749e-02,9.99999e-01
5.559299443e-01,1.79721e-02,9.99999e-01,9.99943e-01,1.79731e-02,9.99999e-01
5.587095940e-01,1.94573e-02,9.99999e-01,9.99964e-01,1.94580e-02,9.99999e-01
5.615031420e-01,2.10317e-02,9.99999e-01,9.99960e-01,2.10326e-02,9.99999e-01
5.643106577e-01,2.26986e-02,9.99999e-01,9.99955e-01,2.26997e-02,9.99999e-01
5.671322110e-01,2.44488e-02,9.99999e-01,9.99458e-01,2.44620e-02,9.99999e-01
5.699678720e-01,2.63072e-02,9.99999e-01,9.99426e-01,2.63223e-02,9.99999e-01
5.728177114e-01,2.82661e-02,9.99999e-01,9.99401e-01,2.82830e-02,9.99999e-01
5.756818000e-01,3.03301e-02,9.99999e-01,9.99451e-01,3.03467e-02,9.99999e-01
5.785602090e-01,3.25002e-02,9.99999e-01,9.99521e-01,3.25158e-02,9.99999e-01
5.814530100e-01,3.47757e-02,9.99999e-01,9.99519e-01,3.47924e-02,9.99999e-01
5.843602750e-01,3.71573e-02,9.99999e-01,9.99426e-01,3.71786e-02,9.99999e-01
5.872820764e-01,3.94809e-02,9.99999e-01,9.95069e-01,3.96765e-02,9.99999e-01
5.902184868e-01,4.20356e-02,9.99999e-01,9.94033e-01,4.22879e-02,9.99999e-01
5.931695792e-01,4.48245e-02,9.99999e-01,9.95781e-01,4.50144e-02,9.99999e-01
5.961354271e-01,4.76364e-02,9.99999e-01,9.95376e-01,4.78576e-02,9.99999e-01
5.991161043e-01,5.06475e-02,9.99999e-01,9.96626e-01,5.08189e-02,9.99999e-01
6.021116848e-01,5.37963e-02,9.99999e-01,9.98084e-01,5.38995e-02,9.99999e-01
6.051222432e-01,5.70450e-02,9.99999e-01,9.99030e-01,5.71004e-02,9.99999e-01
6.081478544e-01,6.03972e-02,9.99999e-01,9.99581e-01,6.04224e-02,9.99999e-01
6.111885937e-01,6.38551e-02,9.99999e-01,9.99822e-01,6.38664e-02,9.99999e-01
6.142445367e-01,6.74275e-02,9.99999e-01,9.99920e-01,6.74328e-02,9.99999e-01
6.173157594e-01,7.11189e-02,9.99999e-01,9.99955e-01,7.11220e-02,9.99999e-01
6.204023382e-01,7.49314e-02,9.99999e-01,9.99962e-01,7.49342e-02,9.99999e-01
6.235043498e-01,7.88564e-02,9.99999e-01,9.99836e-01,7.88693e-02,9.99999e-01
6.266218716e-01,8.28558e-02,9.99999e-01,9.99139e-01,8.29271e-02,9.99999e-01
6.297549810e-01,8.70799e-02,9.99999e-01,9.99684e-01,8.71074e-02,9.99999e-01
6.329037559e-01,9.13526e-02,9.99999e-01,9.99376e-01,9.14095e-02,9.99999e-01
6.360682746e-01,9.57820e-02,9.99999e-01,9.99468e-01,9.58329e-02,9.99999e-01
6.392486160e-01,1.00307e-01,9.99999e-01,9.99311e-01,1.00377e-01,9.99999e-01
6.424448591e-01,1.04943e-01,9.99999e-01,9.99078e-01,1.05039e-01,9.99999e-01
6.456570834e-01,1.09351e-01,9.99999e-01,9.95727e-01,1.09820e-01,9.99999e-01
6.488853688e-01,1.14359e-01,9.99999e-01,9.96873e-01,1.14718e-01,9.99999e-01
6.521297956e-01,1.19349e-01,9.99999e-01,9.96813e-01,1.19731e-01,9.99999e-01
6.553904446e-01,1.24461e-01,9.99999e-01,9.96826e-01,1.24857e-01,9.99999e-01
6.586673968e-01,1.29742e-01,9.99999e-01,9.97282e-01,1.30095e-01,9.99999e-01
6.619607338e-01,1.35238e-01,9.99999e-01,9.98485e-01,1.35443e-01,9.99999e-01
6.652705375e-01,1.40771e-01,9.99999e-01,9.99090e-01,1.40899e-01,9.99999e-01
6.685968902e-01,1.46398e-01,9.99999e-01,9.99577e-01,1.46460e-01,9.99999e-01
6.719398746e-01,1.52094e-01,9.99999e-01,9.99803e-01,1.52124e-01,9.99999e-01
6.752995740e-01,1.57872e-01,9.99999e-01,9.99893e-01,1.57889e-01,9.99999e-01
6.786760719e-01,1.63727e-01,9.99999e-01,9.99846e-01,1.63752e-01,9.99999e-01
6.820694522e-01,1.69666e-01,9.99999e-01,9.99737e-01,1.69710e-01,9.99999e-01
6.854797995e-01,1.75702e-01,9.99999e-01,9.99661e-01,1.75761e-01,9.99999e-01
6.889071985e-01,1.81753e-01,9.99999e-01,9.99179e-01,1.81902e-01,9.99999e-01
6.923517345e-01,1.85625e-01,9.99999e-01,9.86683e-01,1.88130e-01,9.99999e-01
6.958134932e-01,1.93094e-01,9.99999e-01,9.93070e-01,1.94441e-01,9.99999e-01
6.992925606e-01,1.99509e-01,9.99999e-01,9.93401e-01,2.00834e-01,9.99999e-01
7.027890234e-01,2.05617e-01,9.99999e-01,9.91863e-01,2.07304e-01,9.99999e-01
7.063029686e-01,2.12385e-01,9.99999e-01,9.93155e-01,2.13849e-01,9.99999e-01
7.098344834e-01,2.19016e-01,9.99999e-01,9.93431e-01,2.20464e-01,9.99999e-01
7.133836558e-01,2.25159e-01,9.99999e-01,9.91244e-01,2.27148e-01,9.99999e-01
7.169505741e-01,2.17936e-01,9.99999e-01,9.31764e-01,2.33896e-01,9.99998e-01
7.205353270e-01,2.32537e-01,9.99999e-01,9.66062e-01,2.40706e-01,9.99998e-01
7.241380036e-01,2.36931e-01,9.99999e-01,9.57014e-01,2.47574e-01,9.99998e-01
7.277586936e-01,2.44604e-01,9.99999e-01,9.61134e-01,2.54495e-01,9.99998e-01
7.313974871e-01,2.50678e-01,9.99999e-01,9.58730e-01,2.61468e-01,9.99998e-01
7.350544745e-01,2.62379e-01,9.99999e-01,9.77242e-01,2.68489e-01,9.99999e-01
7.387297469e-01,2.70926e-01,9.99999e-01,9.83204e-01,2.75554e-01,9.99999e-01
7.424233956e-01,2.80328e-01,9.99999e-01,9.91751e-01,2.82660e-01,9.99999e-01
7.461355126e-01,2.88352e-01,9.99999e-01,9.94993e-01,2.89803e-01,9.99999e-01
7.498661902e-01,2.96288e-01,9.99999e-01,9.97666e-01,2.96980e-01,9.99999e-01
7.536155211e-01,3.03840e-01,9.99999e-01,9.98854e-01,3.04188e-01,9.99999e-01
7.573835987e-01,3.11240e-01,9.99999e-01,9.99410e-01,3.11424e-01,9.99999e-01
7.611705167e-01,3.18567e-01,9.99999e-01,9.99633e-01,3.18683e-01,9.99999e-01
7.649763693e-01,3.25889e-01,9.99999e-01,9.99769e-01,3.25964e-01,9.99999e-01
7.688012511e-01,3.33208e-01,9.99999e-01,9.99839e-01,3.33262e-01,9.99999e-01
7.726452574e-01,3.40529e-01,9.99999e-01,9.99868e-01,3.40574e-01,9.99999e-01
7.765084837e-01,3.47833e-01,9.99999e-01,9.99812e-01,3.47898e-01,9.99999e-01
7.803910261e-01,3.38351e-01,9.53221e-01,9.99191e-01,3.55230e-01,9.99999e-01
7.842929812e-01,2.91457e-01,8.05994e-01,9.97178e-01,3.62566e-01,9.99999e-01
7.882144461e-01,2.92162e-01,7.94184e-01,9.94199e-01,3.69905e-01,9.99999e-01
7.921555184e-01,3.28231e-01,8.72762e-01,9.96817e-01,3.77244e-01,9.99999e-01
7.961162960e-01,3.49090e-01,9.12788e-01,9.94375e-01,3.84578e-01,9.99999e-01
8.000968774e-01,3.70573e-01,9.51717e-01,9.93507e-01,3.91906e-01,9.99999e-01
8.040973618e-01,3.86604e-01,9.74696e-01,9.93505e-01,3.99225e-01,9.99999e-01
8.081178486e-01,3.95922e-01,9.88296e-01,9.85404e-01,4.06532e-01,9.99999e-01
8.121584379e-01,3.87839e-01,9.96376e-01,9.40566e-01,4.13825e-01,9.99998e-01
8.162192301e-01,3.91281e-01,9.99198e-01,9.29913e-01,4.21100e-01,9.99998e-01
8.203003262e-01,4.13142e-01,9.99987e-01,9.64494e-01,4.28356e-01,9.99998e-01
8.244018279e-01,4.14194e-01,9.99999e-01,9.50882e-01,4.35589e-01,9.99998e-01
8.285238370e-01,4.23994e-01,9.99999e-01,9.57532e-01,4.42799e-01,9.99998e-01
8.326664562e-01,4.30678e-01,9.99999e-01,9.57101e-01,4.49981e-01,9.99998e-01
8.368297885e-01,4.43039e-01,9.99999e-01,9.69162e-01,4.57135e-01,9.99999e-01
8.410139374e-01,4.55701e-01,9.99999e-01,9.81566e-01,4.64258e-01,9.99999e-01
8.452190071e-01,4.67070e-01,9.99999e-01,9.90921e-01,4.71348e-01,9.99999e-01
8.494451021e-01,4.75879e-01,9.99999e-01,9.94722e-01,4.78404e-01,9.99999e-01
8.536923276e-01,4.83906e-01,9.99999e-01,9.96877e-01,4.85422e-01,9.99999e-01
8.579607893e-01,4.91454e-01,9.99999e-01,9.98075e-01,4.92401e-01,9.99999e-01
8.622505932e-01,4.98730e-01,9.99999e-01,9.98777e-01,4.99340e-01,9.99999e-01
8.665618462e-01,4.59299e-01,9.07933e-01,9.99243e-01,5.06237e-01,9.99999e-01
8.708946554e-01,2.97844e-01,5.80970e-01,9.99133e-01,5.13090e-01,9.99999e-01
8.752491287e-01,3.34079e-01,6.43301e-01,9.98841e-01,5.19898e-01,9.99999e-01
8.796253743e-01,4.11963e-01,7.83425e-01,9.98395e-01,5.26659e-01,9.99999e-01
8.840235012e-01,4.68867e-01,8.80641e-01,9.98166e-01,5.33372e-01,9.99999e-01
8.884436187e-01,5.10243e-01,9.51101e-01,9.93317e-01,5.40035e-01,9.99999e-01
8.928858368e-01,4.99285e-01,9.79884e-01,9.31873e-01,5.46647e-01,9.99998e-01
8.973502660e-01,4.86043e-01,9.95082e-01,8.82807e-01,5.53207e-01,9.99997e-01
9.018370173e-01,5.24966e-01,9.99457e-01,9.38406e-01,5.59715e-01,9.99997e-01
9.063462024e-01,5.28215e-01,9.86145e-01,9.45486e-01,5.66167e-01,9.99997e-01
9.108779334e-01,5.08394e-01,9.68456e-01,9.16334e-01,5.72565e-01,9.99997e-01
9.154323231e-01,5.20381e-01,9.92514e-01,9.05477e-01,5.78906e-01,9.99997e-01
9.200094847e-01,4.89509e-01,8.99045e-01,9.25237e-01,5.85191e-01,9.99996e-01
9.246095321e-01,4.49774e-01,8.54960e-01,8.86137e-01,5.91417e-01,9.99994e-01
9.292325798e-01,2.42329e-01,8.84753e-01,4.50671e-01,5.97585e-01,9.99988e-01
9.338787427e-01,1.95655e-01,8.88207e-01,3.59054e-01,6.03693e-01,9.99984e-01
9.385481364e-01,3.71669e-01,9.16418e-01,6.60633e-01,6.09741e-01,9.99984e-01
9.432408771e-01,3.31320e-01,9.47930e-01,5.65424e-01,6.15729e-01,9.99982e-01
9.479570815e-01,2.77465e-01,9.72928e-01,4.57855e-01,6.21655e-01,9.99984e-01
9.526968669e-01,3.42836e-01,9.86862e-01,5.52772e-01,6.27520e-01,9.99988e-01
9.574603512e-01,3.62268e-01,9.94361e-01,5.74961e-01,6.33322e-01,9.99991e-01
9.622476530e-01,4.05820e-01,9.98238e-01,6.36054e-01,6.39062e-01,9.99993e-01
9.670588912e-01,4.96160e-01,9.99471e-01,7.69930e-01,6.44739e-01,9.99995e-01
9.718941857e-01,5.51735e-01,9.99962e-01,8.48392e-01,6.50353e-01,9.99997e-01
9.767536566e-01,5.72197e-01,9.99999e-01,8.72380e-01,6.55904e-01,9.99998e-01
9.816374249e-01,5.97705e-01,9.99999e-01,9.03710e-01,6.61390e-01,9.99998e-01
9.865456120e-01,6.25921e-01,9.99999e-01,9.38675e-01,6.66813e-01,9.99999e-01
9.914783401e-01,6.46378e-01,9.99999e-01,9.61624e-01,6.72172e-01,9.99999e-01
9.964357318e-01,6.63186e-01,9.99999e-01,9.78918e-01,6.77467e-01,9.99999e-01
1.001417910e+00,6.74037e-01,9.99999e-01,9.87312e-01,6.82698e-01,9.99999e-01
1.006425000e+00,6.82876e-01,9.99999e-01,9.92747e-01,6.87865e-01,9.99999e-01
1.011457125e+00,6.89846e-01,9.99999e-01,9.95494e-01,6.92967e-01,9.99999e-01
1.016514411e+00,6.95870e-01,9.99999e-01,9.96938e-01,6.98006e-01,9.99999e-01
1.021596983e+00,7.01213e-01,9.99925e-01,9.97560e-01,7.02980e-01,9.99999e-01
1.026704968e+00,7.02704e-01,9.94561e-01,9.98096e-01,7.07891e-01,9.99999e-01
1.031838492e+00,6.70956e-01,9.42632e-01,9.98616e-01,7.12738e-01,9.99999e-01
1.036997685e+00,7.78504e-02,1.08568e-01,9.99177e-01,7.17522e-01,9.99999e-01
1.042182673e+00,3.73803e-02,5.17992e-02,9.99019e-01,7.22242e-01,9.99999e-01
1.047393587e+00,5.48081e-02,7.54850e-02,9.98700e-01,7.26899e-01,9.99999e-01
1.052630555e+00,4.18614e-04,5.72987e-04,9.98216e-01,7.31493e-01,9.99999e-01
1.057893707e+00,1.27938e-03,1.74143e-03,9.97023e-01,7.36025e-01,9.99999e-01
1.063183176e+00,6.56845e-03,8.89944e-03,9.95106e-01,7.40494e-01,9.99999e-01
1.068499092e+00,2.55783e-02,3.45622e-02,9.91818e-01,7.44901e-01,9.99999e-01
1.073841587e+00,8.79798e-02,1.18347e-01,9.90430e-01,7.49247e-01,9.99999e-01
1.079210795e+00,1.92958e-01,2.58857e-01,9.87754e-01,7.53532e-01,9.99999e-01
1.084606849e+00,3.51971e-01,4.72673e-01,9.81517e-01,7.57756e-01,9.99998e-01
1.090029883e+00,5.02746e-01,6.77065e-01,9.73545e-01,7.61919e-01,9.99998e-01
1.095480033e+00,5.88165e-01,8.25064e-01,9.29568e-01,7.66022e-01,9.99997e-01
1.100957433e+00,5.83987e-01,9.11418e-01,8.30919e-01,7.70066e-01,9.99996e-01
1.106462220e+00,4.68173e-01,9.62364e-01,6.27286e-01,7.74050e-01,9.99992e-01
1.111994531e+00,2.90669e-01,9.85878e-01,3.78452e-01,7.77976e-01,9.99985e-01
1.117554504e+00,1.64426e-01,9.96537e-01,2.10861e-01,7.81844e-01,9.99979e-01
1.123142276e+00,2.57522e-01,9.99772e-01,3.27815e-01,7.85654e-01,9.99976e-01
1.128757988e+00,3.79390e-01,9.99999e-01,4.80613e-01,7.89406e-01,9.99974e-01
1.134401778e+00,1.93788e-01,9.99999e-01,2.44349e-01,7.93102e-01,9.99971e-01
1.140073787e+00,5.10970e-01,9.99999e-01,6.41338e-01,7.96742e-01,9.99976e-01
1.145774156e+00,3.22420e-01,9.99999e-01,4.02868e-01,8.00326e-01,9.99980e-01
1.151503026e+00,2.93787e-01,9.99999e-01,3.65479e-01,8.03855e-01,9.99982e-01
1.157260541e+00,3.41609e-01,9.99999e-01,4.23139e-01,8.07329e-01,9.99986e-01
1.163046844e+00,4.28359e-01,9.99999e-01,5.28353e-01,8.10749e-01,9.99991e-01
1.168862078e+00,5.20673e-01,9.99999e-01,6.39558e-01,8.14116e-01,9.99995e-01
1.174706389e+00,6.20271e-01,9.99999e-01,7.58807e-01,8.17430e-01,9.99997e-01
1.180579921e+00,6.93566e-01,9.99999e-01,8.45100e-01,8.20691e-01,9.99998e-01
1.186482820e+00,7.49039e-01,9.99989e-01,9.09145e-01,8.23901e-01,9.99998e-01
1.192415234e+00,7.67574e-01,9.80846e-01,9.45904e-01,8.27059e-01,9.99998e-01
1.198377311e+00,4.39765e-01,5.50868e-01,9.54208e-01,8.30167e-01,9.99998e-01
1.204369197e+00,2.90288e-15,3.57430e-15,9.56646e-01,8.33224e-01,9.99998e-01
1.210391043e+00,4.01337e-58,4.91369e-58,9.58487e-01,8.36233e-01,9.99998e-01
1.216442998e+00,1.85270e-50,2.25753e-50,9.64583e-01,8.39192e-01,9.99999e-01
1.222525213e+00,1.02529e-49,1.23526e-49,9.72309e-01,8.42103e-01,9.99999e-01
1.228637839e+00,1.69934e-38,2.03811e-38,9.80689e-01,8.44967e-01,9.99999e-01
1.234781029e+00,1.76199e-24,2.09138e-24,9.85628e-01,8.47783e-01,9.99999e-01
1.240954934e+00,1.92682e-16,2.27860e-16,9.90889e-01,8.50553e-01,9.99999e-01
1.247159708e+00,1.23717e-08,1.45602e-08,9.92899e-01,8.53276e-01,9.99999e-01
1.253395507e+00,1.03245e-05,1.21176e-05,9.93692e-01,8.55955e-01,9.99999e-01
1.259662485e+00,1.28800e-03,1.50709e-03,9.94006e-01,8.58589e-01,9.99999e-01
1.265960797e+00,2.06586e-02,2.41595e-02,9.90440e-01,8.61178e-01,9.99999e-01
1.272290601e+00,1.68813e-01,1.98070e-01,9.85018e-01,8.63724e-01,9.99999e-01
1.278652054e+00,1.42452e-01,1.68190e-01,9.70433e-01,8.66227e-01,9.99998e-01
1.285045314e+00,1.42020e-03,1.67260e-03,9.47020e-01,8.68688e-01,9.99998e-01
1.291470541e+00,1.88425e-07,2.29178e-07,9.09516e-01,8.71107e-01,9.99997e-01
1.297927893e+00,7.61145e-04,9.23486e-04,8.83757e-01,8.73484e-01,9.99996e-01
1.304417533e+00,3.96731e-02,5.19272e-02,8.53192e-01,8.75821e-01,9.99993e-01
1.310939621e+00,9.56085e-03,1.21063e-02,8.33638e-01,8.78118e-01,9.99989e-01
1.317494319e+00,2.18081e-20,2.76588e-20,8.21179e-01,8.80375e-01,9.99982e-01
1.324081790e+00,8.00123e-14,1.03868e-13,7.45401e-01,8.82594e-01,9.99971e-01
1.330702199e+00,2.23905e-08,4.19264e-08,3.43596e-01,8.84773e-01,9.99952e-01
1.337355710e+00,1.32587e-08,9.97728e-08,5.80364e-02,8.86916e-01,9.99909e-01
1.344042489e+00,1.94338e-09,3.48233e-08,2.32069e-03,8.89020e-01,9.99806e-01
1.350762701e+00,9.83411e-14,2.38569e-08,8.36039e-07,8.91088e-01,9.99691e-01
1.357516515e+00,1.95917e-13,1.69303e-05,1.60351e-09,8.93120e-01,9.99617e-01
1.364304097e+00,4.69996e-09,6.17225e-04,2.97370e-06,8.95117e-01,9.99590e-01
1.371125618e+00,8.75122e-06,2.19905e-02,2.21659e-04,8.97078e-01,9.99587e-01
1.377981246e+00,3.73598e-05,4.10937e-02,6.57109e-04,8.99004e-01,9.99556e-01
1.384871152e+00,1.77014e-06,1.56077e-01,8.97172e-06,9.00897e-01,9.99568e-01
1.391795508e+00,8.65558e-07,1.79728e-01,3.67021e-06,9.02756e-01,9.99634e-01
1.398754485e+00,1.35241e-05,3.44960e-01,3.86492e-05,9.04582e-01,9.99685e-01
1.405748258e+00,1.74043e-05,4.57790e-01,3.63799e-05,9.06376e-01,9.99718e-01
1.412776999e+00,2.19860e-05,6.09818e-01,3.49725e-05,9.08137e-01,9.99773e-01
1.419840884e+00,4.47967e-05,5.45370e-01,6.96871e-05,9.09867e-01,9.99830e-01
1.426940089e+00,2.07940e-04,3.78353e-02,6.23942e-04,9.11567e-01,9.99895e-01
1.434074789e+00,0.00000e+00,0.00000e+00,3.34409e-03,9.13235e-01,9.99934e-01
1.441245163e+00,0.00000e+00,0.00000e+00,1.06364e-02,9.14874e-01,9.99948e-01
1.448451389e+00,0.00000e+00,0.00000e+00,4.15628e-02,9.16483e-01,9.99957e-01
1.455693646e+00,0.00000e+00,0.00000e+00,1.15963e-01,9.18063e-01,9.99964e-01
1.462972114e+00,1.66550e-229,5.84402e-229,1.52167e-01,9.19615e-01,9.99969e-01
1.470286975e+00,4.23397e-96,1.62750e-95,1.12311e-01,9.21138e-01,9.99972e-01
