#,Wave/freq,Total,CO2,H2O,Rayleigh,CIA
4.000000000e-01,4.29208e-19,9.99999e-01,9.99916e-01,4.29243e-19,9.99999e-01
4.020000000e-01,9.90478e-19,9.99999e-01,9.99948e-01,9.90529e-19,9.99999e-01
4.040100000e-01,2.24638e-18,9.99999e-01,9.99977e-01,2.24643e-18,9.99999e-01
4.060300500e-01,5.01294e-18,9.99999e-01,9.99994e-01,5.01297e-18,9.99999e-01
4.080602003e-01,1.10106e-17,9.99999e-01,9.99997e-01,1.10106e-17,9.99999e-01
4.101005013e-01,2.38110e-17,9.99999e-01,9.99999e-01,2.38110e-17,9.99999e-01
4.121510038e-01,5.07138e-17,9.99999e-01,9.99996e-01,5.07139e-17,9.99999e-01
4.142117588e-01,1.06410e-16,9.99999e-01,9.99976e-01,1.06412e-16,9.99999e-01
4.162828176e-01,2.20016e-16,9.99999e-01,9.99897e-01,2.20038e-16,9.99999e-01
4.183642317e-01,4.48483e-16,9.99999e-01,9.99938e-01,4.48510e-16,9.99999e-01
4.204560528e-01,9.01408e-16,9.99999e-01,9.99962e-01,9.01442e-16,9.99999e-01
4.225583331e-01,1.78694e-15,9.99999e-01,9.99985e-01,1.78696e-15,9.99999e-01
4.246711247e-01,3.49476e-15,9.99999e-01,9.99988e-01,3.49480e-15,9.99999e-01
4.267944804e-01,6.74479e-15,9.99999e-01,9.99983e-01,6.74490e-15,9.99999e-01
4.289284528e-01,1.28494e-14,9.99999e-01,9.99986e-01,1.28496e-14,9.99999e-01
4.310730950e-01,2.41696e-14,9.99999e-01,9.99994e-01,2.41698e-14,9.99999e-01
4.332284605e-01,4.48989e-14,9.99999e-01,9.99998e-01,4.48990e-14,9.99999e-01
4.353946028e-01,8.23925e-14,9.99999e-01,9.99998e-01,8.23925e-14,9.99999e-01
4.375715758e-01,1.49392e-13,9.99999e-01,9.99989e-01,1.49393e-13,9.99999e-01
4.397594337e-01,2.67689e-13,9.99999e-01,9.99908e-01,2.67713e-13,9.99999e-01
4.419582309e-01,4.74027e-13,9.99999e-01,9.99534e-01,4.74247e-13,9.99999e-01
4.441680220e-01,8.30387e-13,9.99999e-01,9.99645e-01,8.30681e-13,9.99999e-01
4.463888621e-01,1.43845e-12,9.99999e-01,9.99628e-01,1.43898e-12,9.99999e-01
4.486208064e-01,2.46526e-12,9.99999e-01,9.99770e-01,2.46583e-12,9.99999e-01
4.508639105e-01,4.18027e-12,9.99999e-01,9.99892e-01,4.18071e-12,9.99999e-01
4.531182300e-01,7.01440e-12,9.99999e-01,9.99957e-01,7.01470e-12,9.99999e-01
4.553838212e-01,1.16497e-11,9.99999e-01,9.99970e-01,1.16501e-11,9.99999e-01
4.576607403e-01,1.91553e-11,9.99999e-01,9.99986e-01,1.91556e-11,9.99999e-01
4.599490440e-01,3.11883e-11,9.99999e-01,9.99990e-01,3.11886e-11,9.99999e-01
4.622487892e-01,5.02939e-11,9.99999e-01,9.99997e-01,5.02940e-11,9.99999e-01
4.645600332e-01,8.03403e-11,9.99999e-01,9.99992e-01,8.03409e-11,9.99999e-01
4.668828333e-01,1.27143e-10,9.99999e-01,9.99889e-01,1.27157e-10,9.99999e-01
4.692172475e-01,1.99389e-10,9.99999e-01,9.99766e-01,1.99436e-10,9.99999e-01
4.715633337e-01,3.09984e-10,9.99999e-01,9.99847e-01,3.10031e-10,9.99999e-01
4.739211504e-01,4.77706e-10,9.99999e-01,9.99854e-01,4.77776e-10,9.99999e-01
4.762907561e-01,7.29961e-10,9.99999e-01,9.99924e-01,7.30016e-10,9.99999e-01
4.786722099e-01,1.10609e-09,9.99999e-01,9.99968e-01,1.10613e-09,9.99999e-01
4.810655710e-01,1.66229e-09,9.99999e-01,9.99990e-01,1.66231e-09,9.99999e-01
4.834708988e-01,2.47790e-09,9.99999e-01,9.99907e-01,2.47813e-09,9.99999e-01
4.858882533e-01,3.66471e-09,9.99999e-01,9.99835e-01,3.66532e-09,9.99999e-01
4.883176946e-01,5.37875e-09,9.99999e-01,9.99861e-01,5.37949e-09,9.99999e-01
4.907592831e-01,7.83476e-09,9.99999e-01,9.99875e-01,7.83573e-09,9.99999e-01
4.932130795e-01,1.13280e-08,9.99999e-01,9.99911e-01,1.13290e-08,9.99999e-01
4.956791449e-01,1.62600e-08,9.99999e-01,9.99952e-01,1.62608e-08,9.99999e-01
4.981575406e-01,2.31680e-08,9.99999e-01,9.99764e-01,2.31734e-08,9.99999e-01
5.006483283e-01,3.27743e-08,9.99999e-01,9.99385e-01,3.27945e-08,9.99999e-01
5.031515699e-01,4.59507e-08,9.99999e-01,9.96919e-01,4.60927e-08,9.99999e-01
5.056673278e-01,6.42450e-08,9.99999e-01,9.98379e-01,6.43492e-08,9.99999e-01
5.081956644e-01,8.90645e-08,9.99999e-01,9.97956e-01,8.92468e-08,9.99999e-01
5.107366428e-01,1.22811e-07,9.99999e-01,9.98620e-01,1.22980e-07,9.99999e-01
5.132903260e-01,1.68262e-07,9.99999e-01,9.99213e-01,1.68395e-07,9.99999e-01
5.158567776e-01,2.29077e-07,9.99999e-01,9.99667e-01,2.29153e-07,9.99999e-01
5.184360615e-01,3.09900e-07,9.99999e-01,9.99866e-01,3.09941e-07,9.99999e-01
5.210282418e-01,4.16698e-07,9.99999e-01,9.99949e-01,4.16718e-07,9.99999e-01
5.236333830e-01,5.56903e-07,9.99999e-01,9.99798e-01,5.57015e-07,9.99999e-01
5.262515499e-01,7.40196e-07,9.99999e-01,9.99874e-01,7.40289e-07,9.99999e-01
5.288828077e-01,9.78240e-07,9.99999e-01,9.99883e-01,9.78353e-07,9.99999e-01
5.315272217e-01,1.28574e-06,9.99999e-01,9.99899e-01,1.28587e-06,9.99999e-01
5.341848578e-01,1.68084e-06,9.99999e-01,9.99932e-01,1.68096e-06,9.99999e-01
5.368557821e-01,2.18531e-06,9.99999e-01,9.99764e-01,2.18583e-06,9.99999e-01
5.395400610e-01,2.82521e-06,9.99999e-01,9.99145e-01,2.82763e-06,9.99999e-01
5.422377613e-01,3.63537e-06,9.99999e-01,9.98914e-01,3.63932e-06,9.99999e-01
5.449489501e-01,4.65599e-06,9.99999e-01,9.98981e-01,4.66073e-06,9.99999e-01
5.476736949e-01,5.93441e-06,9.99999e-01,9.99106e-01,5.93971e-06,9.99999e-01
5.504120634e-01,7.52861e-06,9.99999e-01,9.99351e-01,7.53349e-06,9.99999e-01
5.531641237e-01,9.50707e-06,9.99999e-01,9.99673e-01,9.51017e-06,9.99999e-01
5.559299443e-01,1.19485e-05,9.99999e-01,9.99842e-01,1.19504e-05,9.99999e-01
5.587095940e-01,1.49476e-05,9.99999e-01,9.99900e-01,1.49491e-05,9.99999e-01
5.615031420e-01,1.86158e-05,9.99999e-01,9.99889e-01,1.86178e-05,9.99999e-01
5.643106577e-01,2.30836e-05,9.99999e-01,9.99872e-01,2.30866e-05,9.99999e-01
5.671322110e-01,2.84623e-05,9.99999e-01,9.98447e-01,2.85065e-05,9.99999e-01
5.699678720e-01,3.49965e-05,9.99999e-01,9.98398e-01,3.50526e-05,9.99999e-01
5.728177114e-01,4.28538e-05,9.99999e-01,9.98310e-01,4.29263e-05,9.99999e-01
5.756818000e-01,5.22777e-05,9.99999e-01,9.98453e-01,5.23586e-05,9.99999e-01
5.785602090e-01,6.35279e-05,9.99999e-01,9.98655e-01,6.36134e-05,9.99999e-01
5.814530100e-01,7.68865e-05,9.99999e-01,9.98645e-01,7.69908e-05,9.99999e-01
5.843602750e-01,9.26797e-05,9.99999e-01,9.98372e-01,9.28307e-05,9.99999e-01
5.872820764e-01,1.09965e-04,9.99999e-01,9.86086e-01,1.11517e-04,9.99999e-01
5.902184868e-01,1.31252e-04,9.99999e-01,9.83308e-01,1.33480e-04,9.99999e-01
5.931695792e-01,1.57316e-04,9.99999e-01,9.88154e-01,1.59202e-04,9.99999e-01
5.961354271e-01,1.86769e-04,9.99999e-01,9.87043e-01,1.89221e-04,9.99999e-01
5.991161043e-01,2.22014e-04,9.99999e-01,9.90543e-01,2.24134e-04,9.99999e-01
6.021116848e-01,2.63182e-04,9.99999e-01,9.94630e-01,2.64602e-04,9.99999e-01
6.051222432e-01,3.10509e-04,9.99999e-01,9.97281e-01,3.11355e-04,9.99999e-01
6.081478544e-01,3.64765e-04,9.99999e-01,9.98824e-01,3.65194e-04,9.99999e-01
6.111885937e-01,4.26783e-04,9.99999e-01,9.99504e-01,4.26994e-04,9.99999e-01
6.142445367e-01,4.97603e-04,9.99999e-01,9.99777e-01,4.97714e-04,9.99999e-01
6.173157594e-01,5.78321e-04,9.99999e-01,9.99877e-01,5.78392e-04,9.99999e-01
6.204023382e-01,6.70087e-04,9.99999e-01,9.99895e-01,6.70157e-04,9.99999e-01
6.235043498e-01,7.73864e-04,9.99999e-01,9.99532e-01,7.74225e-04,9.99999e-01
6.266218716e-01,8.89746e-04,9.99999e-01,9.97575e-01,8.91908e-04,9.99999e-01
6.297549810e-01,1.02370e-03,9.99999e-01,9.99109e-01,1.02461e-03,9.99999e-01
6.329037559e-01,1.17178e-03,9.99999e-01,9.98247e-01,1.17384e-03,9.99999e-01
6.360682746e-01,1.33918e-03,9.99999e-01,9.98499e-01,1.34119e-03,9.99999e-01
6.392486160e-01,1.52541e-03,9.99999e-01,9.98060e-01,1.52837e-03,9.99999e-01
6.424448591e-01,1.73264e-03,9.99999e-01,9.97381e-01,1.73719e-03,9.99999e-01
6.456570834e-01,1.94573e-03,9.99999e-01,9.87905e-01,1.96955e-03,9.99999e-01
6.488853688e-01,2.20796e-03,9.99999e-01,9.91245e-01,2.22746e-03,9.99999e-01
6.521297956e-01,2.49062e-03,9.99999e-01,9.91081e-01,2.51303e-03,9.99999e-01
6.553904446e-01,2.80319e-03,9.99999e-01,9.91063e-01,2.82846e-03,9.99999e-01
6.586673968e-01,3.15187e-03,9.99999e-01,9.92382e-01,3.17606e-03,9.99999e-01
6.619607338e-01,3.54309e-03,9.99999e-01,9.95748e-01,3.55822e-03,9.99999e-01
6.652705375e-01,3.96727e-03,9.99999e-01,9.97446e-01,3.97742e-03,9.99999e-01
6.685968902e-01,4.43143e-03,9.99999e-01,9.98914e-01,4.43624e-03,9.99999e-01
6.719398746e-01,4.93462e-03,9.99999e-01,9.99450e-01,4.93734e-03,9.99999e-01
6.752995740e-01,5.48183e-03,9.99999e-01,9.99709e-01,5.48342e-03,9.99999e-01
6.786760719e-01,6.07466e-03,9.99999e-01,9.99564e-01,6.07731e-03,9.99999e-01
6.820694522e-01,6.71682e-03,9.99999e-01,9.99251e-01,6.72184e-03,9.99999e-01
6.854797995e-01,7.41286e-03,9.99999e-01,9.99043e-01,7.41995e-03,9.99999e-01
6.889071985e-01,8.15538e-03,9.99999e-01,9.97650e-01,8.17459e-03,9.99999e-01
6.923517345e-01,8.65390e-03,9.99999e-01,9.62747e-01,8.98876e-03,9.99999e-01
6.958134932e-01,9.67730e-03,9.99999e-01,9.80923e-01,9.86550e-03,9.99999e-01
6.992925606e-01,1.06070e-02,9.99999e-01,9.81410e-01,1.08079e-02,9.99998e-01
7.027890234e-01,1.15506e-02,9.99999e-01,9.77295e-01,1.18189e-02,9.99999e-01
7.063029686e-01,1.26546e-02,9.99999e-01,9.80843e-01,1.29018e-02,9.99999e-01
7.098344834e-01,1.38009e-02,9.99999e-01,9.81608e-01,1.40595e-02,9.99998e-01
7.133836558e-01,1.49170e-02,9.99999e-01,9.75282e-01,1.52951e-02,9.99998e-01
7.169505741e-01,1.36424e-02,9.99999e-01,8.21257e-01,1.66116e-02,9.99997e-01
7.205353270e-01,1.63810e-02,9.99999e-01,9.09450e-01,1.80120e-02,9.99996e-01
7.241380036e-01,1.72426e-02,9.99999e-01,8.84269e-01,1.94993e-02,9.99996e-01
7.277586936e-01,1.88657e-02,9.99999e-01,8.95115e-01,2.10764e-02,9.99997e-01
7.313974871e-01,2.02247e-02,9.99999e-01,8.89154e-01,2.27460e-02,9.99997e-01
7.350544745e-01,2.29808e-02,9.99999e-01,9.37574e-01,2.45110e-02,9.99998e-01
7.387297469e-01,2.51506e-02,9.99999e-01,9.53617e-01,2.63739e-02,9.99999e-01
7.424233956e-01,2.76875e-02,9.99999e-01,9.77066e-01,2.83374e-02,9.99999e-01
7.461355126e-01,2.99787e-02,9.99999e-01,9.86012e-01,3.04039e-02,9.99999e-01
7.498661902e-01,3.23636e-02,9.99999e-01,9.93484e-01,3.25758e-02,9.99999e-01
7.536155211e-01,3.47434e-02,9.99999e-01,9.96787e-01,3.48554e-02,9.99999e-01
7.573835987e-01,3.71830e-02,9.99999e-01,9.98346e-01,3.72446e-02,9.99999e-01
7.611705167e-01,3.97047e-02,9.99999e-01,9.98971e-01,3.97455e-02,9.99999e-01
7.649763693e-01,4.23327e-02,9.99999e-01,9.99354e-01,4.23600e-02,9.99999e-01
7.688012511e-01,4.50694e-02,9.99999e-01,9.99549e-01,4.50897e-02,9.99999e-01
7.726452574e-01,4.79183e-02,9.99999e-01,9.99629e-01,4.79361e-02,9.99999e-01
7.765084837e-01,5.08735e-02,9.99999e-01,9.99468e-01,5.09005e-02,9.99999e-01
7.803910261e-01,4.79658e-02,8.90358e-01,9.97701e-01,5.39844e-02,9.99999e-01
7.842929812e-01,3.21853e-02,5.66673e-01,9.92000e-01,5.71885e-02,9.99999e-01
7.882144461e-01,3.27265e-02,5.48653e-01,9.83739e-01,6.05139e-02,9.99999e-01
7.921555184e-01,4.35402e-02,6.86330e-01,9.91106e-01,6.39612e-02,9.99999e-01
7.961162960e-01,5.15726e-02,7.75588e-01,9.84134e-01,6.75309e-02,9.99999e-01
8.000968774e-01,6.09065e-02,8.70825e-01,9.81796e-01,7.12234e-02,9.99999e-01
8.040973618e-01,6.85951e-02,9.30971e-01,9.81767e-01,7.50389e-02,9.99999e-01
8.081178486e-01,7.33107e-02,9.67510e-01,9.59198e-01,7.89773e-02,9.99998e-01
8.121584379e-01,6.92469e-02,9.89968e-01,8.42039e-01,8.30384e-02,9.99997e-01
8.162192301e-01,7.11790e-02,9.97774e-01,8.17758e-01,8.72220e-02,9.99996e-01
8.203003262e-01,8.28255e-02,9.99969e-01,9.04945e-01,9.15274e-02,9.99996e-01
8.244018279e-01,8.38821e-02,9.99999e-01,8.74192e-01,9.59540e-02,9.99996e-01
8.285238370e-01,8.89855e-02,9.99999e-01,8.85421e-01,1.00501e-01,9.99997e-01
8.326664562e-01,9.30701e-02,9.99999e-01,8.84975e-01,1.05167e-01,9.99997e-01
8.368297885e-01,1.00723e-01,9.99999e-01,9.16075e-01,1.09951e-01,9.99998e-01
8.410139374e-01,1.09018e-01,9.99999e-01,9.49200e-01,1.14852e-01,9.99999e-01
8.452190071e-01,1.16843e-01,9.99999e-01,9.74767e-01,1.19868e-01,9.99999e-01
8.494451021e-01,1.23149e-01,9.99999e-01,9.85215e-01,1.24997e-01,9.99999e-01
8.536923276e-01,1.29101e-01,9.99999e-01,9.91264e-01,1.30239e-01,9.99999e-01
8.579607893e-01,1.34856e-01,9.99999e-01,9.94594e-01,1.35589e-01,9.99999e-01
8.622505932e-01,1.40564e-01,9.99999e-01,9.96571e-01,1.41048e-01,9.99999e-01
8.665618462e-01,1.24112e-01,8.48214e-01,9.97869e-01,1.46612e-01,9.99999e-01
8.708946554e-01,3.78409e-02,2.49044e-01,9.97554e-01,1.52278e-01,9.99999e-01
8.752491287e-01,4.89127e-02,3.10414e-01,9.96733e-01,1.58046e-01,9.99999e-01
8.796253743e-01,8.43169e-02,5.16518e-01,9.95463e-01,1.63912e-01,9.99999e-01
8.840235012e-01,1.18963e-01,7.03741e-01,9.94824e-01,1.69872e-01,9.99999e-01
8.884436187e-01,1.50254e-01,8.70011e-01,9.80960e-01,1.75926e-01,9.99998e-01
8.928858368e-01,1.41523e-01,9.44841e-01,8.21044e-01,1.82069e-01,9.99996e-01
8.973502660e-01,1.31937e-01,9.86387e-01,7.09597e-01,1.88299e-01,9.99995e-01
9.018370173e-01,1.63405e-01,9.98496e-01,8.40759e-01,1.94613e-01,9.99994e-01
9.063462024e-01,1.66097e-01,9.61628e-01,8.55321e-01,2.01008e-01,9.99993e-01
9.108779334e-01,1.49529e-01,9.14373e-01,7.85032e-01,2.07480e-01,9.99993e-01
9.154323231e-01,1.59390e-01,9.79431e-01,7.59115e-01,2.14026e-01,9.99992e-01
9.200094847e-01,1.42188e-01,7.72332e-01,8.07060e-01,2.20644e-01,9.99990e-01
9.246095321e-01,1.08385e-01,6.47249e-01,7.20574e-01,2.27330e-01,9.99984e-01
9.292325798e-01,2.49208e-02,7.14555e-01,1.37201e-01,2.34080e-01,9.99966e-01
9.338787427e-01,1.43791e-02,7.21047e-01,7.69024e-02,2.40891e-01,9.99956e-01
9.385481364e-01,7.08667e-02,7.84200e-01,3.51181e-01,2.47760e-01,9.99956e-01
9.432408771e-01,5.49863e-02,8.61065e-01,2.45206e-01,2.54683e-01,9.99950e-01
9.479570815e-01,3.46456e-02,9.25858e-01,1.41398e-01,2.61658e-01,9.99957e-01
9.526968669e-01,5.72056e-02,9.63671e-01,2.19216e-01,2.68679e-01,9.99967e-01
9.574603512e-01,6.37844e-02,9.84294e-01,2.34246e-01,2.75745e-01,9.99975e-01
9.622476530e-01,8.46458e-02,9.95080e-01,3.00449e-01,2.82852e-01,9.99983e-01
9.670588912e-01,1.43341e-01,9.98526e-01,4.94889e-01,2.89997e-01,9.99989e-01
9.718941857e-01,1.88350e-01,9.99898e-01,6.33854e-01,2.97175e-01,9.99993e-01
9.767536566e-01,2.08280e-01,9.99999e-01,6.84269e-01,3.04384e-01,9.99995e-01
9.816374249e-01,2.34981e-01,9.99999e-01,7.54063e-01,3.11620e-01,9.99996e-01
9.865456120e-01,2.67141e-01,9.99999e-01,8.37748e-01,3.18880e-01,9.99998e-01
9.914783401e-01,2.92237e-01,9.99999e-01,8.95989e-01,3.26161e-01,9.99999e-01
9.964357318e-01,3.14098e-01,9.99999e-01,9.41936e-01,3.33459e-01,9.99999e-01
1.001417910e+00,3.28770e-01,9.99999e-01,9.64781e-01,3.40772e-01,9.99999e-01
1.006425000e+00,3.41033e-01,9.99999e-01,9.79711e-01,3.48096e-01,9.99999e-01
1.011457125e+00,3.50948e-01,9.99999e-01,9.87396e-01,3.55428e-01,9.99999e-01
1.016514411e+00,3.59650e-01,9.99999e-01,9.91412e-01,3.62765e-01,9.99999e-01
1.021596983e+00,3.67479e-01,9.99756e-01,9.93147e-01,3.70104e-01,9.99999e-01
1.026704968e+00,3.69613e-01,9.84499e-01,9.94648e-01,3.77442e-01,9.99999e-01
1.031838492e+00,3.38340e-01,8.82517e-01,9.96116e-01,3.84776e-01,9.99999e-01
1.036997685e+00,1.42175e-02,3.63227e-02,9.97686e-01,3.92104e-01,9.99999e-01
1.042182673e+00,4.06636e-04,1.02013e-03,9.97230e-01,3.99423e-01,9.99999e-01
1.047393587e+00,1.15669e-03,2.85241e-03,9.96336e-01,4.06729e-01,9.99999e-01
1.052630555e+00,1.60235e-08,3.88227e-08,9.94968e-01,4.14021e-01,9.99999e-01
1.057893707e+00,6.13942e-08,1.46330e-07,9.91600e-01,4.21296e-01,9.99999e-01
1.063183176e+00,4.25774e-06,1.00108e-05,9.86234e-01,4.28551e-01,9.99999e-01
1.068499092e+00,6.33924e-05,1.47508e-04,9.77099e-01,4.35784e-01,9.99999e-01
1.073841587e+00,1.40909e-03,3.24005e-03,9.73231e-01,4.42993e-01,9.99999e-01
1.079210795e+00,1.22628e-02,2.79581e-02,9.65921e-01,4.50175e-01,9.99998e-01
1.084606849e+00,5.63048e-02,1.28761e-01,9.48826e-01,4.57328e-01,9.99997e-01
1.090029883e+00,1.47614e-01,3.40249e-01,9.27002e-01,4.64450e-01,9.99996e-01
1.095480033e+00,2.27039e-01,5.86498e-01,8.14040e-01,4.71540e-01,9.99994e-01
1.100957433e+00,2.22936e-01,7.71708e-01,5.97334e-01,4.78594e-01,9.99990e-01
1.106462220e+00,1.26626e-01,8.98298e-01,2.86663e-01,4.85611e-01,9.99980e-01
1.111994531e+00,3.76840e-02,9.60950e-01,7.89471e-02,4.92589e-01,9.99960e-01
1.117554504e+00,9.70101e-03,9.90379e-01,1.95220e-02,4.99527e-01,9.99944e-01
1.123142276e+00,3.54834e-02,9.99370e-01,7.00752e-02,5.06423e-01,9.99934e-01
1.128757988e+00,7.75109e-02,9.99999e-01,1.51023e-01,5.13275e-01,9.99928e-01
1.134401778e+00,3.60515e-02,9.99999e-01,6.93244e-02,5.20081e-01,9.99919e-01
1.140073787e+00,1.60203e-01,9.99999e-01,3.04102e-01,5.26841e-01,9.99935e-01
1.145774156e+00,5.46174e-02,9.99999e-01,1.02371e-01,5.33552e-01,9.99945e-01
1.151503026e+00,4.30895e-02,9.99999e-01,7.97674e-02,5.40214e-01,9.99952e-01
1.157260541e+00,5.53947e-02,9.99999e-01,1.01306e-01,5.46825e-01,9.99964e-01
1.163046844e+00,1.00433e-01,9.99999e-01,1.81492e-01,5.53384e-01,9.99977e-01
1.168862078e+00,1.64062e-01,9.99999e-01,2.93028e-01,5.59890e-01,9.99988e-01
1.174706389e+00,2.64455e-01,9.99999e-01,4.66955e-01,5.66341e-01,9.99993e-01
1.180579921e+00,3.59037e-01,9.99999e-01,6.26881e-01,5.72737e-01,9.99995e-01
1.186482820e+00,4.43518e-01,9.99962e-01,7.65928e-01,5.79077e-01,9.99996e-01
1.192415234e+00,4.75697e-01,9.48007e-01,8.55244e-01,5.85360e-01,9.99996e-01
1.198377311e+00,2.63350e-01,4.96659e-01,8.76387e-01,5.91584e-01,9.99997e-01
1.204369197e+00,5.87143e-39,1.05585e-38,8.83168e-01,5.97751e-01,9.99997e-01
1.210391043e+00,7.47644e-160,1.32314e-159,8.87741e-01,6.03857e-01,9.99998e-01
1.216442998e+00,3.11366e-138,5.43681e-138,9.03882e-01,6.09904e-01,9.99998e-01
1.222525213e+00,3.87852e-136,6.55951e-136,9.24108e-01,6.15890e-01,9.99998e-01
1.228637839e+00,7.15439e-105,1.19385e-104,9.46602e-01,6.21814e-01,9.99999e-01
1.234781029e+00,5.88891e-65,9.54894e-65,9.60128e-01,6.27677e-01,9.99999e-01
1.240954934e+00,6.74770e-43,1.08197e-42,9.74569e-01,6.33478e-01,9.99999e-01
1.247159708e+00,2.86306e-20,4.53239e-20,9.80154e-01,6.39216e-01,9.99999e-01
1.253395507e+00,8.36108e-14,1.31255e-13,9.82332e-01,6.44892e-01,9.99999e-01
1.259662485e+00,4.35916e-08,6.78109e-08,9.83168e-01,6.50504e-01,9.99999e-01
1.265960797e+00,8.85397e-05,1.37210e-04,9.73313e-01,6.56053e-01,9.99998e-01
1.272290601e+00,8.58022e-03,1.33997e-02,9.58268e-01,6.61538e-01,9.99998e-01
1.278652054e+00,8.13430e-03,1.28449e-02,9.19004e-01,6.66959e-01,9.99997e-01
1.285045314e+00,2.42738e-06,3.83820e-06,8.58329e-01,6.72316e-01,9.99996e-01
1.291470541e+00,1.72272e-18,2.93654e-18,7.66654e-01,6.77609e-01,9.99994e-01
1.297927893e+00,2.66029e-06,4.55188e-06,6.86733e-01,6.82839e-01,9.99990e-01
1.304417533e+00,1.70513e-04,3.42309e-04,6.44726e-01,6.88003e-01,9.99982e-01
1.310939621e+00,3.64828e-05,6.98195e-05,5.74574e-01,6.93104e-01,9.99970e-01
1.317494319e+00,6.40073e-55,1.23709e-54,5.81500e-01,6.98141e-01,9.99950e-01
1.324081790e+00,6.52274e-25,1.34313e-24,4.52398e-01,7.03114e-01,9.99920e-01
1.330702199e+00,2.45441e-21,9.62690e-21,1.01283e-01,7.08023e-01,9.99867e-01
1.337355710e+00,3.60349e-21,8.66860e-19,9.76552e-04,7.12868e-01,9.99745e-01
1.344042489e+00,1.58180e-22,5.14281e-19,1.28708e-05,7.17650e-01,9.99455e-01
1.350762701e+00,2.78243e-35,4.51392e-21,6.52113e-16,7.22368e-01,9.99130e-01
1.357516515e+00,4.64343e-34,1.61421e-12,1.46228e-23,7.27024e-01,9.98923e-01
1.364304097e+00,3.12264e-22,2.93612e-09,1.50688e-14,7.31616e-01,9.98846e-01
1.371125618e+00,5.46904e-13,4.68296e-05,4.21582e-09,7.36146e-01,9.98836e-01
1.377981246e+00,6.62295e-12,1.68296e-04,1.30921e-08,7.40614e-01,9.98750e-01
1.384871152e+00,3.10858e-14,6.10871e-03,3.00344e-12,7.45020e-01,9.98785e-01
1.391795508e+00,2.35155e-16,9.46699e-03,1.02832e-14,7.49364e-01,9.98970e-01
1.398754485e+00,1.00419e-12,5.07674e-02,1.73368e-11,7.53647e-01,9.99115e-01
1.405748258e+00,2.35709e-12,1.15908e-01,1.83616e-11,7.57869e-01,9.99206e-01
1.412776999e+00,8.60800e-12,2.52540e-01,2.93331e-11,7.62031e-01,9.99362e-01
1.419840884e+00,1.47584e-11,2.43487e-01,5.02109e-11,7.66132e-01,9.99523e-01
1.426940089e+00,1.67081e-08,7.24959e-03,1.00235e-07,7.70174e-01,9.99704e-01
1.434074789e+00,0.00000e+00,0.00000e+00,1.14415e-06,7.74157e-01,9.99815e-01
1.441245163e+00,0.00000e+00,0.00000e+00,1.33672e-05,7.78081e-01,9.99856e-01
1.448451389e+00,0.00000e+00,0.00000e+00,4.97702e-04,7.81947e-01,9.99881e-01
1.455693646e+00,0.00000e+00,0.00000e+00,5.65034e-03,7.85756e-01,9.99901e-01
1.462972114e+00,0.00000e+00,0.00000e+00,8.20080e-03,7.89507e-01,9.99915e-01
1.470286975e+00,5.78064e-267,2.57873e-265,4.07326e-03,7.93201e-01,9.99924e-01
