#,Wave/freq,Total,CO2,H2O,Rayleigh,CIA
4.000000000e-01,7.01241e-05,9.99999e-01,9.99980e-01,7.01254e-05,9.99999e-01
4.020000000e-01,8.47241e-05,9.99999e-01,9.99987e-01,8.47251e-05,9.99999e-01
4.040100000e-01,1.01963e-04,9.99999e-01,9.99994e-01,1.01963e-04,9.99999e-01
4.060300500e-01,1.22261e-04,9.99999e-01,9.99998e-01,1.22261e-04,9.99999e-01
4.080602003e-01,1.46074e-04,9.99999e-01,9.99999e-01,1.46074e-04,9.99999e-01
4.101005013e-01,1.73913e-04,9.99999e-01,9.99999e-01,1.73913e-04,9.99999e-01
4.121510038e-01,2.06345e-04,9.99999e-01,9.99998e-01,2.06345e-04,9.99999e-01
4.142117588e-01,2.43999e-04,9.99999e-01,9.99994e-01,2.44000e-04,9.99999e-01
4.162828176e-01,2.87567e-04,9.99999e-01,9.99976e-01,2.87573e-04,9.99999e-01
4.183642317e-01,3.37824e-04,9.99999e-01,9.99985e-01,3.37829e-04,9.99999e-01
4.204560528e-01,3.95604e-04,9.99999e-01,9.99991e-01,3.95607e-04,9.99999e-01
4.225583331e-01,4.61822e-04,9.99999e-01,9.99996e-01,4.61824e-04,9.99999e-01
4.246711247e-01,5.37477e-04,9.99999e-01,9.99996e-01,5.37479e-04,9.99999e-01
4.267944804e-01,6.23653e-04,9.99999e-01,9.99995e-01,6.23655e-04,9.99999e-01
4.289284528e-01,7.21525e-04,9.99999e-01,9.99996e-01,7.21527e-04,9.99999e-01
4.310730950e-01,8.32356e-04,9.99999e-01,9.99998e-01,8.32357e-04,9.99999e-01
4.332284605e-01,9.57505e-04,9.99999e-01,9.99999e-01,9.57505e-04,9.99999e-01
4.353946028e-01,1.09843e-03,9.99999e-01,9.99999e-01,1.09843e-03,9.99999e-01
4.375715758e-01,1.25667e-03,9.99999e-01,9.99997e-01,1.25668e-03,9.99999e-01
4.397594337e-01,1.43388e-03,9.99999e-01,9.99978e-01,1.43391e-03,9.99999e-01
4.419582309e-01,1.63170e-03,9.99999e-01,9.99894e-01,1.63187e-03,9.99999e-01
4.441680220e-01,1.85229e-03,9.99999e-01,9.99919e-01,1.85243e-03,9.99999e-01
4.463888621e-01,2.09737e-03,9.99999e-01,9.99915e-01,2.09755e-03,9.99999e-01
4.486208064e-01,2.36915e-03,9.99999e-01,9.99947e-01,2.36927e-03,9.99999e-01
4.508639105e-01,2.66970e-03,9.99999e-01,9.99975e-01,2.66976e-03,9.99999e-01
4.531182300e-01,3.00125e-03,9.99999e-01,9.99989e-01,3.00128e-03,9.99999e-01
4.553838212e-01,3.36614e-03,9.99999e-01,9.99992e-01,3.36616e-03,9.99999e-01
4.576607403e-01,3.76686e-03,9.99999e-01,9.99996e-01,3.76687e-03,9.99999e-01
4.599490440e-01,4.20591e-03,9.99999e-01,9.99997e-01,4.20592e-03,9.99999e-01
4.622487892e-01,4.68593e-03,9.99999e-01,9.99999e-01,4.68593e-03,9.99999e-01
4.645600332e-01,5.20958e-03,9.99999e-01,9.99998e-01,5.20958e-03,9.99999e-01
4.668828333e-01,5.77951e-03,9.99999e-01,9.99974e-01,5.77965e-03,9.99999e-01
4.692172475e-01,6.39863e-03,9.99999e-01,9.99946e-01,6.39897e-03,9.99999e-01
4.715633337e-01,7.07017e-03,9.99999e-01,9.99965e-01,7.07041e-03,9.99999e-01
4.739211504e-01,7.79667e-03,9.99999e-01,9.99966e-01,7.79693e-03,9.99999e-01
4.762907561e-01,8.58135e-03,9.99999e-01,9.99982e-01,8.58150e-03,9.99999e-01
4.786722099e-01,9.42708e-03,9.99999e-01,9.99992e-01,9.42715e-03,9.99999e-01
4.810655710e-01,1.03369e-02,9.99999e-01,9.99997e-01,1.03369e-02,9.99999e-01
4.834708988e-01,1.13137e-02,9.99999e-01,9.99978e-01,1.13139e-02,9.99999e-01
4.858882533e-01,1.23607e-02,9.99999e-01,9.99962e-01,1.23611e-02,9.99999e-01
4.883176946e-01,1.34813e-02,9.99999e-01,9.99968e-01,1.34817e-02,9.99999e-01
4.907592831e-01,1.46783e-02,9.99999e-01,9.99971e-01,1.46787e-02,9.99999e-01
4.932130795e-01,1.59548e-02,9.99999e-01,9.99979e-01,1.59551e-02,9.99999e-01
4.956791449e-01,1.73138e-02,9.99999e-01,9.99988e-01,1.73140e-02,9.99999e-01
4.981575406e-01,1.87573e-02,9.99999e-01,9.99946e-01,1.87583e-02,9.99999e-01
5.006483283e-01,2.02881e-02,9.99999e-01,9.99860e-01,2.02909e-02,9.99999e-01
5.031515699e-01,2.18994e-02,9.99999e-01,9.99301e-01,2.19147e-02,9.99999e-01
5.056673278e-01,2.36239e-02,9.99999e-01,9.99632e-01,2.36326e-02,9.99999e-01
5.081956644e-01,2.54353e-02,9.99999e-01,9.99536e-01,2.54471e-02,9.99999e-01
5.107366428e-01,2.73524e-02,9.99999e-01,9.99687e-01,2.73609e-02,9.99999e-01
5.132903260e-01,2.93713e-02,9.99999e-01,9.99821e-01,2.93766e-02,9.99999e-01
5.158567776e-01,3.14941e-02,9.99999e-01,9.99924e-01,3.14965e-02,9.99999e-01
5.184360615e-01,3.37219e-02,9.99999e-01,9.99969e-01,3.37229e-02,9.99999e-01
5.210282418e-01,3.60576e-02,9.99999e-01,9.99988e-01,3.60580e-02,9.99999e-01
5.236333830e-01,3.85022e-02,9.99999e-01,9.99954e-01,3.85039e-02,9.99999e-01
5.262515499e-01,4.10613e-02,9.99999e-01,9.99971e-01,4.10624e-02,9.99999e-01
5.288828077e-01,4.37342e-02,9.99999e-01,9.99973e-01,4.37353e-02,9.99999e-01
5.315272217e-01,4.65232e-02,9.99999e-01,9.99976e-01,4.65242e-02,9.99999e-01
5.341848578e-01,4.94299e-02,9.99999e-01,9.99984e-01,4.94306e-02,9.99999e-01
5.368557821e-01,5.24529e-02,9.99999e-01,9.99946e-01,5.24557e-02,9.99999e-01
5.395400610e-01,5.55899e-02,9.99999e-01,9.99806e-01,5.56007e-02,9.99999e-01
5.422377613e-01,5.88520e-02,9.99999e-01,9.99753e-01,5.88664e-02,9.99999e-01
5.449489501e-01,6.22395e-02,9.99999e-01,9.99769e-01,6.22538e-02,9.99999e-01
5.476736949e-01,6.57501e-02,9.99999e-01,9.99797e-01,6.57634e-02,9.99999e-01
5.504120634e-01,6.93854e-02,9.99999e-01,9.99852e-01,6.93956e-02,9.99999e-01
5.531641237e-01,7.31453e-02,9.99999e-01,9.99925e-01,7.31507e-02,9.99999e-01
5.559299443e-01,7.70260e-02,9.99999e-01,9.99963e-01,7.70288e-02,9.99999e-01
5.587095940e-01,8.10279e-02,9.99999e-01,9.99977e-01,8.10297e-02,9.99999e-01
5.615031420e-01,8.51511e-02,9.99999e-01,9.99974e-01,8.51533e-02,9.99999e-01
5.643106577e-01,8.93964e-02,9.99999e-01,9.99970e-01,8.93990e-02,9.99999e-01
5.671322110e-01,9.37333e-02,9.99999e-01,9.99648e-01,9.37662e-02,9.99999e-01
5.699678720e-01,9.82185e-02,9.99999e-01,9.99636e-01,9.82541e-02,9.99999e-01
5.728177114e-01,1.02823e-01,9.99999e-01,9.99617e-01,1.02862e-01,9.99999e-01
5.756818000e-01,1.07551e-01,9.99999e-01,9.99649e-01,1.07588e-01,9.99999e-01
5.785602090e-01,1.12398e-01,9.99999e-01,9.99695e-01,1.12432e-01,9.99999e-01
5.814530100e-01,1.17356e-01,9.99999e-01,9.99693e-01,1.17392e-01,9.99999e-01
5.843602750e-01,1.22421e-01,9.99999e-01,9.99631e-01,1.22466e-01,9.99999e-01
5.872820764e-01,1.27248e-01,9.99999e-01,9.96830e-01,1.27652e-01,9.99999e-01
5.902184868e-01,1.32444e-01,9.99999e-01,9.96195e-01,1.32949e-01,9.99999e-01
5.931695792e-01,1.37982e-01,9.99999e-01,9.97303e-01,1.38355e-01,9.99999e-01
5.961354271e-01,1.43443e-01,9.99999e-01,9.97050e-01,1.43868e-01,9.99999e-01
5.991161043e-01,1.49163e-01,9.99999e-01,9.97851e-01,1.49484e-01,9.99999e-01
6.021116848e-01,1.55014e-01,9.99999e-01,9.98781e-01,1.55203e-01,9.99999e-01
6.051222432e-01,1.60921e-01,9.99999e-01,9.99383e-01,1.61020e-01,9.99999e-01
6.081478544e-01,1.66890e-01,9.99999e-01,9.99733e-01,1.66935e-01,9.99999e-01
6.111885937e-01,1.72924e-01,9.99999e-01,9.99887e-01,1.72943e-01,9.99999e-01
6.142445367e-01,1.79034e-01,9.99999e-01,9.99949e-01,1.79043e-01,9.99999e-01
6.173157594e-01,1.85225e-01,9.99999e-01,9.99971e-01,1.85231e-01,9.99999e-01
6.204023382e-01,1.91499e-01,9.99999e-01,9.99975e-01,1.91504e-01,9.99999e-01
6.235043498e-01,1.97838e-01,9.99999e-01,9.99894e-01,1.97859e-01,9.99999e-01
6.266218716e-01,2.04181e-01,9.99999e-01,9.99450e-01,2.04294e-01,9.99999e-01
6.297549810e-01,2.10762e-01,9.99999e-01,9.99798e-01,2.10804e-01,9.99999e-01
6.329037559e-01,2.17301e-01,9.99999e-01,9.99602e-01,2.17387e-01,9.99999e-01
6.360682746e-01,2.23964e-01,9.99999e-01,9.99660e-01,2.24040e-01,9.99999e-01
6.392486160e-01,2.30657e-01,9.99999e-01,9.99560e-01,2.30759e-01,9.99999e-01
6.424448591e-01,2.37400e-01,9.99999e-01,9.99407e-01,2.37540e-01,9.99999e-01
6.456570834e-01,2.43710e-01,9.99999e-01,9.97251e-01,2.44381e-01,9.99999e-01
6.488853688e-01,2.50778e-01,9.99999e-01,9.98008e-01,2.51278e-01,9.99999e-01
6.521297956e-01,2.57704e-01,9.99999e-01,9.97970e-01,2.58228e-01,9.99999e-01
6.553904446e-01,2.64689e-01,9.99999e-01,9.97970e-01,2.65227e-01,9.99999e-01
6.586673968e-01,2.71801e-01,9.99999e-01,9.98269e-01,2.72272e-01,9.99999e-01
6.619607338e-01,2.79090e-01,9.99999e-01,9.99035e-01,2.79359e-01,9.99999e-01
6.652705375e-01,2.86320e-01,9.99999e-01,9.99421e-01,2.86485e-01,9.99999e-01
6.685968902e-01,2.93575e-01,9.99999e-01,9.99753e-01,2.93647e-01,9.99999e-01
6.719398746e-01,3.00804e-01,9.99999e-01,9.99875e-01,3.00842e-01,9.99999e-01
6.752995740e-01,3.08044e-01,9.99999e-01,9.99933e-01,3.08065e-01,9.99999e-01
6.786760719e-01,3.15282e-01,9.99999e-01,9.99901e-01,3.15313e-01,9.99999e-01
6.820694522e-01,3.22530e-01,9.99999e-01,9.99830e-01,3.22585e-01,9.99999e-01
6.854797995e-01,3.29803e-01,9.99999e-01,9.99783e-01,3.29875e-01,9.99999e-01
6.889071985e-01,3.37002e-01,9.99999e-01,9.99468e-01,3.37181e-01,9.99999e-01
6.923517345e-01,3.41546e-01,9.99999e-01,9.91426e-01,3.44500e-01,9.99999e-01
6.958134932e-01,3.50289e-01,9.99999e-01,9.95625e-01,3.51828e-01,9.99999e-01
6.992925606e-01,3.57640e-01,9.99999e-01,9.95759e-01,3.59163e-01,9.99999e-01
7.027890234e-01,3.64599e-01,9.99999e-01,9.94808e-01,3.66501e-01,9.99999e-01
7.063029686e-01,3.72207e-01,9.99999e-01,9.95630e-01,3.73840e-01,9.99999e-01
7.098344834e-01,3.79579e-01,9.99999e-01,9.95807e-01,3.81177e-01,9.99999e-01
7.133836558e-01,3.86311e-01,9.99999e-01,9.94343e-01,3.88508e-01,9.99999e-01
7.169505741e-01,3.78238e-01,9.99999e-01,9.55551e-01,3.95832e-01,9.99998e-01
7.205353270e-01,3.94443e-01,9.99999e-01,9.78414e-01,4.03145e-01,9.99998e-01
7.241380036e-01,3.99047e-01,9.99999e-01,9.72231e-01,4.10444e-01,9.99998e-01
7.277586936e-01,4.07256e-01,9.99999e-01,9.74932e-01,4.17728e-01,9.99998e-01
7.313974871e-01,4.13750e-01,9.99999e-01,9.73545e-01,4.24993e-01,9.99999e-01
7.350544745e-01,4.25946e-01,9.99999e-01,9.85445e-01,4.32237e-01,9.99999e-01
7.387297469e-01,4.34748e-01,9.99999e-01,9.89282e-01,4.39458e-01,9.99999e-01
7.424233956e-01,4.44311e-01,9.99999e-01,9.94755e-01,4.46653e-01,9.99999e-01
7.461355126e-01,4.52376e-01,9.99999e-01,9.96814e-01,4.53821e-01,9.99999e-01
7.498661902e-01,4.60277e-01,9.99999e-01,9.98520e-01,4.60959e-01,9.99999e-01
7.536155211e-01,4.67723e-01,9.99999e-01,9.99271e-01,4.68064e-01,9.99999e-01
7.573835987e-01,4.74958e-01,9.99999e-01,9.99625e-01,4.75136e-01,9.99999e-01
7.611705167e-01,4.82059e-01,9.99999e-01,9.99766e-01,4.82171e-01,9.99999e-01
7.649763693e-01,4.89097e-01,9.99999e-01,9.99853e-01,4.89169e-01,9.99999e-01
7.688012511e-01,4.96076e-01,9.99999e-01,9.99897e-01,4.96127e-01,9.99999e-01
7.726452574e-01,5.03001e-01,9.99999e-01,9.99915e-01,5.03044e-01,9.99999e-01
7.765084837e-01,5.09856e-01,9.99999e-01,9.99879e-01,5.09917e-01,9.99999e-01
7.803910261e-01,4.99608e-01,9.67321e-01,9.99479e-01,5.16746e-01,9.99999e-01
7.842929812e-01,4.54763e-01,8.70158e-01,9.98185e-01,5.23529e-01,9.99999e-01
7.882144461e-01,4.54745e-01,8.60652e-01,9.96295e-01,5.30264e-01,9.99999e-01
7.921555184e-01,4.91061e-01,9.16349e-01,9.97977e-01,5.36950e-01,9.99999e-01
7.961162960e-01,5.11122e-01,9.43658e-01,9.96386e-01,5.43587e-01,9.99999e-01
8.000968774e-01,5.30908e-01,9.68996e-01,9.95851e-01,5.50171e-01,9.99999e-01
8.040973618e-01,5.45461e-01,9.83885e-01,9.95844e-01,5.56703e-01,9.99999e-01
8.081178486e-01,5.53729e-01,9.92542e-01,9.90591e-01,5.63181e-01,9.99999e-01
8.121584379e-01,5.46362e-01,9.97714e-01,9.61372e-01,5.69605e-01,9.99999e-01
8.162192301e-01,5.49627e-01,9.99494e-01,9.54733e-01,5.75972e-01,9.99998e-01
8.203003262e-01,5.68741e-01,9.99992e-01,9.76750e-01,5.82283e-01,9.99998e-01
8.244018279e-01,5.69952e-01,9.99999e-01,9.68422e-01,5.88536e-01,9.99998e-01
8.285238370e-01,5.78431e-01,9.99999e-01,9.72591e-01,5.94731e-01,9.99999e-01
8.326664562e-01,5.84285e-01,9.99999e-01,9.72402e-01,6.00867e-01,9.99999e-01
8.368297885e-01,5.94964e-01,9.99999e-01,9.80262e-01,6.06943e-01,9.99999e-01
8.410139374e-01,6.05749e-01,9.99999e-01,9.88236e-01,6.12959e-01,9.99999e-01
8.452190071e-01,6.15340e-01,9.99999e-01,9.94224e-01,6.18914e-01,9.99999e-01
8.494451021e-01,6.22705e-01,9.99999e-01,9.96634e-01,6.24807e-01,9.99999e-01
8.536923276e-01,6.29387e-01,9.99999e-01,9.98015e-01,6.30639e-01,9.99999e-01
8.579607893e-01,6.35628e-01,9.99999e-01,9.98773e-01,6.36408e-01,9.99999e-01
8.622505932e-01,6.41615e-01,9.99999e-01,9.99222e-01,6.42114e-01,9.99999e-01
8.665618462e-01,5.99842e-01,9.26458e-01,9.99517e-01,6.47757e-01,9.99999e-01
8.708946554e-01,4.57404e-01,7.00479e-01,9.99446e-01,6.53337e-01,9.99999e-01
8.752491287e-01,4.95055e-01,7.51929e-01,9.99259e-01,6.58853e-01,9.99999e-01
8.796253743e-01,5.67676e-01,8.55394e-01,9.98971e-01,6.64306e-01,9.99999e-01
8.840235012e-01,6.16914e-01,9.22254e-01,9.98826e-01,6.69695e-01,9.99999e-01
8.884436187e-01,6.51105e-01,9.68752e-01,9.95645e-01,6.75019e-01,9.99999e-01
8.928858368e-01,6.41764e-01,9.87200e-01,9.55514e-01,6.80280e-01,9.99998e-01
8.973502660e-01,6.30966e-01,9.96894e-01,9.23291e-01,6.85476e-01,9.99998e-01
9.018370173e-01,6.63035e-01,9.99658e-01,9.60393e-01,6.90609e-01,9.99998e-01
9.063462024e-01,6.65085e-01,9.90944e-01,9.64512e-01,6.95677e-01,9.99998e-01
9.108779334e-01,6.49257e-01,9.79825e-01,9.45470e-01,7.00681e-01,9.99998e-01
9.154323231e-01,6.59107e-01,9.95280e-01,9.38423e-01,7.05621e-01,9.99997e-01
9.200094847e-01,6.31162e-01,9.31314e-01,9.51550e-01,7.10498e-01,9.99997e-01
9.246095321e-01,5.98832e-01,9.04924e-01,9.23539e-01,7.15311e-01,9.99996e-01
9.292325798e-01,3.96726e-01,9.23856e-01,5.91624e-01,7.20060e-01,9.99991e-01
9.338787427e-01,3.46088e-01,9.27069e-01,5.11252e-01,7.24747e-01,9.99989e-01
9.385481364e-01,5.28172e-01,9.45863e-01,7.63318e-01,7.29370e-01,9.99989e-01
9.432408771e-01,4.86228e-01,9.66596e-01,6.84192e-01,7.33931e-01,9.99988e-01
9.479570815e-01,4.30452e-01,9.82688e-01,5.92658e-01,7.38429e-01,9.99989e-01
9.526968669e-01,4.99411e-01,9.91634e-01,6.77483e-01,7.42865e-01,9.99992e-01
9.574603512e-01,5.20223e-01,9.96418e-01,6.98545e-01,7.47239e-01,9.99994e-01
9.622476530e-01,5.61149e-01,9.98882e-01,7.47445e-01,7.51552e-01,9.99995e-01
9.670588912e-01,6.38691e-01,9.99665e-01,8.45319e-01,7.55804e-01,9.99997e-01
9.718941857e-01,6.84113e-01,9.99976e-01,9.00174e-01,7.59995e-01,9.99998e-01
9.767536566e-01,7.00233e-01,9.99999e-01,9.16384e-01,7.64126e-01,9.99998e-01
9.816374249e-01,7.20192e-01,9.99999e-01,9.37508e-01,7.68198e-01,9.99998e-01
9.865456120e-01,7.41712e-01,9.99999e-01,9.60506e-01,7.72210e-01,9.99999e-01
9.914783401e-01,7.57065e-01,9.99999e-01,9.75394e-01,7.76163e-01,9.99999e-01
9.964357318e-01,7.69550e-01,9.99999e-01,9.86529e-01,7.80057e-01,9.99999e-01
1.001417910e+00,7.77553e-01,9.99999e-01,9.91910e-01,7.83894e-01,9.99999e-01
1.006425000e+00,7.84028e-01,9.99999e-01,9.95371e-01,7.87673e-01,9.99999e-01
1.011457125e+00,7.89126e-01,9.99999e-01,9.97132e-01,7.91395e-01,9.99999e-01
1.016514411e+00,7.93510e-01,9.99999e-01,9.98049e-01,7.95061e-01,9.99999e-01
1.021596983e+00,7.97385e-01,9.99945e-01,9.98444e-01,7.98670e-01,9.99999e-01
1.026704968e+00,7.98407e-01,9.96448e-01,9.98786e-01,8.02225e-01,9.99999e-01
1.031838492e+00,7.68697e-01,9.54858e-01,9.99119e-01,8.05724e-01,9.99999e-01
1.036997685e+00,1.31181e-01,1.62186e-01,9.99475e-01,8.09169e-01,9.99999e-01
1.042182673e+00,1.13815e-01,1.40148e-01,9.99372e-01,8.12561e-01,9.99999e-01
1.047393587e+00,1.27802e-01,1.56755e-01,9.99169e-01,8.15899e-01,9.99999e-01
1.052630555e+00,4.53688e-03,5.54296e-03,9.98859e-01,8.19185e-01,9.99999e-01
1.057893707e+00,1.13317e-02,1.37966e-02,9.98093e-01,8.22418e-01,9.99999e-01
1.063183176e+00,3.50961e-02,4.26068e-02,9.96867e-01,8.25600e-01,9.99999e-01
1.068499092e+00,9.24004e-02,1.11994e-01,9.94766e-01,8.28732e-01,9.99999e-01
1.073841587e+00,2.08381e-01,2.51845e-01,9.93864e-01,8.31812e-01,9.99999e-01
1.079210795e+00,3.46135e-01,4.17612e-01,9.92169e-01,8.34844e-01,9.99999e-01
1.084606849e+00,5.12881e-01,6.19189e-01,9.88146e-01,8.37825e-01,9.99999e-01
1.090029883e+00,6.44486e-01,7.79543e-01,9.82904e-01,8.40759e-01,9.99998e-01
1.095480033e+00,7.12515e-01,8.84704e-01,9.54188e-01,8.43644e-01,9.99998e-01
1.100957433e+00,7.08712e-01,9.42674e-01,8.87653e-01,8.46482e-01,9.99997e-01
1.106462220e+00,6.12443e-01,9.75925e-01,7.38319e-01,8.49274e-01,9.99995e-01
1.111994531e+00,4.48369e-01,9.91008e-01,5.30699e-01,8.52019e-01,9.99990e-01
1.117554504e+00,3.06993e-01,9.97809e-01,3.59830e-01,8.54718e-01,9.99987e-01
1.123142276e+00,4.06955e-01,9.99856e-01,4.74694e-01,8.57373e-01,9.99984e-01
1.128757988e+00,5.31352e-01,9.99999e-01,6.17874e-01,8.59982e-01,9.99983e-01
1.134401778e+00,3.10657e-01,9.99999e-01,3.60168e-01,8.62549e-01,9.99981e-01
1.140073787e+00,6.48342e-01,9.99999e-01,7.49476e-01,8.65072e-01,9.99984e-01
1.145774156e+00,4.77316e-01,9.99999e-01,5.50194e-01,8.67552e-01,9.99987e-01
1.151503026e+00,4.47109e-01,9.99999e-01,5.13929e-01,8.69990e-01,9.99988e-01
1.157260541e+00,4.99764e-01,9.99999e-01,5.72874e-01,8.72386e-01,9.99991e-01
1.163046844e+00,5.79884e-01,9.99999e-01,6.62923e-01,8.74742e-01,9.99994e-01
1.168862078e+00,6.59027e-01,9.99999e-01,7.51408e-01,8.77058e-01,9.99996e-01
1.174706389e+00,7.37106e-01,9.99999e-01,8.38256e-01,8.79333e-01,9.99998e-01
1.180579921e+00,7.91801e-01,9.99999e-01,8.98171e-01,8.81569e-01,9.99998e-01
1.186482820e+00,8.31693e-01,9.99991e-01,9.41084e-01,8.83767e-01,9.99998e-01
1.192415234e+00,8.44314e-01,9.87300e-01,9.65160e-01,8.85927e-01,9.99998e-01
1.198377311e+00,4.87213e-01,5.62527e-01,9.70505e-01,8.88049e-01,9.99998e-01
1.204369197e+00,1.49182e-10,1.70356e-10,9.72090e-01,8.90134e-01,9.99999e-01
1.210391043e+00,6.74574e-38,7.67538e-38,9.73302e-01,8.92182e-01,9.99999e-01
1.216442998e+00,5.23461e-33,5.93792e-33,9.77291e-01,8.94195e-01,9.99999e-01
1.222525213e+00,1.56127e-32,1.75829e-32,9.82264e-01,8.96173e-01,9.99999e-01
1.228637839e+00,3.39926e-25,3.81769e-25,9.87644e-01,8.98115e-01,9.99999e-01
1.234781029e+00,1.96612e-16,2.19325e-16,9.90822e-01,9.00023e-01,9.99999e-01
1.240954934e+00,4.29785e-11,4.78348e-11,9.94182e-01,9.01898e-01,9.99999e-01
1.247159708e+00,2.85523e-06,3.16811e-06,9.95471e-01,9.03739e-01,9.99999e-01
1.253395507e+00,5.07598e-04,5.62255e-04,9.95973e-01,9.05548e-01,9.99999e-01
1.259662485e+00,1.24102e-02,1.37205e-02,9.96166e-01,9.07324e-01,9.99999e-01
1.265960797e+00,7.60181e-02,8.40377e-02,9.93892e-01,9.09069e-01,9.99999e-01
1.272290601e+00,3.17304e-01,3.51497e-01,9.90388e-01,9.10782e-01,9.99999e-01
1.278652054e+00,2.66965e-01,2.97111e-01,9.80980e-01,9.12465e-01,9.99999e-01
1.285045314e+00,5.99817e-03,6.66189e-03,9.65717e-01,9.14118e-01,9.99998e-01
1.291470541e+00,3.74726e-05,4.25878e-05,9.41017e-01,9.15740e-01,9.99998e-01
1.297927893e+00,1.10011e-02,1.25605e-02,9.17143e-01,9.17334e-01,9.99997e-01
1.304417533e+00,1.24620e-01,1.48672e-01,9.03240e-01,9.18899e-01,9.99995e-01
1.310939621e+00,2.09614e-02,2.43951e-02,8.79250e-01,9.20435e-01,9.99993e-01
1.317494319e+00,1.33903e-13,1.56593e-13,8.81448e-01,9.21944e-01,9.99988e-01
1.324081790e+00,2.26127e-07,2.66328e-07,8.30167e-01,9.23425e-01,9.99981e-01
1.330702199e+00,9.82832e-06,1.57181e-05,4.68874e-01,9.24879e-01,9.99969e-01
1.337355710e+00,5.06000e-06,1.89345e-05,1.46954e-01,9.26307e-01,9.99942e-01
1.344042489e+00,7.89208e-07,5.46916e-06,9.61863e-03,9.27708e-01,9.99876e-01
1.350762701e+00,2.30221e-09,1.01628e-05,6.55547e-05,9.29084e-01,9.99802e-01
1.357516515e+00,3.35104e-09,6.27308e-04,1.41813e-06,9.30435e-01,9.99756e-01
1.364304097e+00,2.58003e-06,8.32631e-03,1.70442e-04,9.31761e-01,9.99738e-01
1.371125618e+00,3.52800e-04,8.24340e-02,2.92164e-03,9.33063e-01,9.99736e-01
1.377981246e+00,1.02424e-03,1.29146e-01,6.70096e-03,9.34341e-01,9.99716e-01
1.384871152e+00,7.50249e-05,3.04146e-01,2.13288e-04,9.35595e-01,9.99724e-01
1.391795508e+00,8.76219e-05,3.33160e-01,2.27922e-04,9.36826e-01,9.99766e-01
1.398754485e+00,4.80406e-04,5.07407e-01,9.47899e-04,9.38034e-01,9.99799e-01
1.405748258e+00,5.09766e-04,6.07160e-01,8.20139e-04,9.39220e-01,9.99820e-01
1.412776999e+00,6.39492e-04,7.29792e-01,8.73989e-04,9.40384e-01,9.99855e-01
1.419840884e+00,1.07052e-03,6.52808e-01,1.42460e-03,9.41527e-01,9.99891e-01
1.426940089e+00,1.74068e-03,6.25864e-02,5.90954e-03,9.42648e-01,9.99932e-01
1.434074789e+00,0.00000e+00,0.00000e+00,1.98845e-02,9.43748e-01,9.99957e-01
1.441245163e+00,0.00000e+00,0.00000e+00,4.78460e-02,9.44828e-01,9.99967e-01
1.448451389e+00,0.00000e+00,0.00000e+00,1.16137e-01,9.45888e-01,9.99972e-01
1.455693646e+00,2.30204e-303,5.13341e-303,2.40208e-01,9.46928e-01,9.99977e-01
1.462972114e+00,3.03769e-147,6.76655e-147,2.90636e-01,9.47948e-01,9.99980e-01
1.470286975e+00,3.96514e-62,9.36168e-62,2.37106e-01,9.48950e-01,9.99982e-01
