#,Wave/freq,Total,CO2,H2O,Rayleigh,CIA
4.000000000e-01,6.50447e-05,9.99999e-01,9.99980e-01,6.50459e-05,9.99999e-01
4.020000000e-01,7.87048e-05,9.99999e-01,9.99987e-01,7.87057e-05,9.99999e-01
4.040100000e-01,9.48567e-05,9.99999e-01,9.99994e-01,9.48572e-05,9.99999e-01
4.060300500e-01,1.13902e-04,9.99999e-01,9.99998e-01,1.13902e-04,9.99999e-01
4.080602003e-01,1.36278e-04,9.99999e-01,9.99999e-01,1.36278e-04,9.99999e-01
4.101005013e-01,1.62473e-04,9.99999e-01,9.99999e-01,1.62473e-04,9.99999e-01
4.121510038e-01,1.93031e-04,9.99999e-01,9.99998e-01,1.93031e-04,9.99999e-01
4.142117588e-01,2.28556e-04,9.99999e-01,9.99994e-01,2.28557e-04,9.99999e-01
4.162828176e-01,2.69714e-04,9.99999e-01,9.99976e-01,2.69721e-04,9.99999e-01
4.183642317e-01,3.17254e-04,9.99999e-01,9.99985e-01,3.17258e-04,9.99999e-01
4.204560528e-01,3.71976e-04,9.99999e-01,9.99990e-01,3.71979e-04,9.99999e-01
4.225583331e-01,4.34768e-04,9.99999e-01,9.99996e-01,4.34769e-04,9.99999e-01
4.246711247e-01,5.06595e-04,9.99999e-01,9.99997e-01,5.06596e-04,9.99999e-01
4.267944804e-01,5.88506e-04,9.99999e-01,9.99995e-01,5.88509e-04,9.99999e-01
4.289284528e-01,6.81643e-04,9.99999e-01,9.99996e-01,6.81645e-04,9.99999e-01
4.310730950e-01,7.87232e-04,9.99999e-01,9.99998e-01,7.87233e-04,9.99999e-01
4.332284605e-01,9.06594e-04,9.99999e-01,9.99999e-01,9.06594e-04,9.99999e-01
4.353946028e-01,1.04115e-03,9.99999e-01,9.99999e-01,1.04115e-03,9.99999e-01
4.375715758e-01,1.19240e-03,9.99999e-01,9.99997e-01,1.19240e-03,9.99999e-01
4.397594337e-01,1.36195e-03,9.99999e-01,9.99979e-01,1.36198e-03,9.99999e-01
4.419582309e-01,1.55143e-03,9.99999e-01,9.99896e-01,1.55159e-03,9.99999e-01
4.441680220e-01,1.76292e-03,9.99999e-01,9.99917e-01,1.76306e-03,9.99999e-01
4.463888621e-01,1.99813e-03,9.99999e-01,9.99914e-01,1.99830e-03,9.99999e-01
4.486208064e-01,2.25921e-03,9.99999e-01,9.99946e-01,2.25933e-03,9.99999e-01
4.508639105e-01,2.54820e-03,9.99999e-01,9.99974e-01,2.54826e-03,9.99999e-01
4.531182300e-01,2.86730e-03,9.99999e-01,9.99989e-01,2.86733e-03,9.99999e-01
4.553838212e-01,3.21881e-03,9.99999e-01,9.99992e-01,3.21883e-03,9.99999e-01
4.576607403e-01,3.60518e-03,9.99999e-01,9.99996e-01,3.60519e-03,9.99999e-01
4.599490440e-01,4.02887e-03,9.99999e-01,9.99997e-01,4.02888e-03,9.99999e-01
4.622487892e-01,4.49250e-03,9.99999e-01,9.99999e-01,4.49250e-03,9.99999e-01
4.645600332e-01,4.99869e-03,9.99999e-01,9.99998e-01,4.99870e-03,9.99999e-01
4.668828333e-01,5.55009e-03,9.99999e-01,9.99974e-01,5.55022e-03,9.99999e-01
4.692172475e-01,6.14954e-03,9.99999e-01,9.99946e-01,6.14987e-03,9.99999e-01
4.715633337e-01,6.80027e-03,9.99999e-01,9.99964e-01,6.80051e-03,9.99999e-01
4.739211504e-01,7.50481e-03,9.99999e-01,9.99966e-01,7.50506e-03,9.99999e-01
4.762907561e-01,8.26634e-03,9.99999e-01,9.99982e-01,8.26649e-03,9.99999e-01
4.786722099e-01,9.08774e-03,9.99999e-01,9.99992e-01,9.08780e-03,9.99999e-01
4.810655710e-01,9.97203e-03,9.99999e-01,9.99997e-01,9.97205e-03,9.99999e-01
4.834708988e-01,1.09221e-02,9.99999e-01,9.99979e-01,1.09223e-02,9.99999e-01
4.858882533e-01,1.19411e-02,9.99999e-01,9.99961e-01,1.19416e-02,9.99999e-01
4.883176946e-01,1.30326e-02,9.99999e-01,9.99968e-01,1.30330e-02,9.99999e-01
4.907592831e-01,1.41992e-02,9.99999e-01,9.99971e-01,1.41996e-02,9.99999e-01
4.932130795e-01,1.54442e-02,9.99999e-01,9.99979e-01,1.54445e-02,9.99999e-01
4.956791449e-01,1.67705e-02,9.99999e-01,9.99988e-01,1.67707e-02,9.99999e-01
4.981575406e-01,1.81801e-02,9.99999e-01,9.99946e-01,1.81811e-02,9.99999e-01
5.006483283e-01,1.96760e-02,9.99999e-01,9.99862e-01,1.96787e-02,9.99999e-01
5.031515699e-01,2.12515e-02,9.99999e-01,9.99299e-01,2.12664e-02,9.99999e-01
5.056673278e-01,2.29385e-02,9.99999e-01,9.99628e-01,2.29470e-02,9.99999e-01
5.081956644e-01,2.47117e-02,9.99999e-01,9.99531e-01,2.47233e-02,9.99999e-01
5.107366428e-01,2.65894e-02,9.99999e-01,9.99683e-01,2.65978e-02,9.99999e-01
5.132903260e-01,2.85681e-02,9.99999e-01,9.99818e-01,2.85732e-02,9.99999e-01
5.158567776e-01,3.06496e-02,9.99999e-01,9.99922e-01,3.06520e-02,9.99999e-01
5.184360615e-01,3.28353e-02,9.99999e-01,9.99968e-01,3.28363e-02,9.99999e-01
5.210282418e-01,3.51281e-02,9.99999e-01,9.99988e-01,3.51285e-02,9.99999e-01
5.236333830e-01,3.75290e-02,9.99999e-01,9.99953e-01,3.75307e-02,9.99999e-01
5.262515499e-01,4.00437e-02,9.99999e-01,9.99970e-01,4.00448e-02,9.99999e-01
5.288828077e-01,4.26715e-02,9.99999e-01,9.99973e-01,4.26726e-02,9.99999e-01
5.315272217e-01,4.54148e-02,9.99999e-01,9.99976e-01,4.54158e-02,9.99999e-01
5.341848578e-01,4.82752e-02,9.99999e-01,9.99984e-01,4.82759e-02,9.99999e-01
5.368557821e-01,5.12516e-02,9.99999e-01,9.99946e-01,5.12543e-02,9.99999e-01
5.395400610e-01,5.43418e-02,9.99999e-01,9.99809e-01,5.43521e-02,9.99999e-01
5.422377613e-01,5.75560e-02,9.99999e-01,9.99750e-01,5.75704e-02,9.99999e-01
5.449489501e-01,6.08959e-02,9.99999e-01,9.99769e-01,6.09099e-02,9.99999e-01
5.476736949e-01,6.43583e-02,9.99999e-01,9.99794e-01,6.43715e-02,9.99999e-01
5.504120634e-01,6.79454e-02,9.99999e-01,9.99850e-01,6.79555e-02,9.99999e-01
5.531641237e-01,7.16570e-02,9.99999e-01,9.99924e-01,7.16624e-02,9.99999e-01
5.559299443e-01,7.54895e-02,9.99999e-01,9.99963e-01,7.54922e-02,9.99999e-01
5.587095940e-01,7.94431e-02,9.99999e-01,9.99976e-01,7.94449e-02,9.99999e-01
5.615031420e-01,8.35183e-02,9.99999e-01,9.99974e-01,8.35204e-02,9.99999e-01
5.643106577e-01,8.77158e-02,9.99999e-01,9.99971e-01,8.77182e-02,9.99999e-01
5.671322110e-01,9.20065e-02,9.99999e-01,9.99658e-01,9.20379e-02,9.99999e-01
5.699678720e-01,9.64427e-02,9.99999e-01,9.99627e-01,9.64785e-02,9.99999e-01
5.728177114e-01,1.01001e-01,9.99999e-01,9.99616e-01,1.01039e-01,9.99999e-01
5.756818000e-01,1.05682e-01,9.99999e-01,9.99647e-01,1.05719e-01,9.99999e-01
5.785602090e-01,1.10483e-01,9.99999e-01,9.99691e-01,1.10517e-01,9.99999e-01
5.814530100e-01,1.15396e-01,9.99999e-01,9.99690e-01,1.15432e-01,9.99999e-01
5.843602750e-01,1.20417e-01,9.99999e-01,9.99634e-01,1.20461e-01,9.99999e-01
5.872820764e-01,1.25208e-01,9.99999e-01,9.96849e-01,1.25603e-01,9.99999e-01
5.902184868e-01,1.30354e-01,9.99999e-01,9.96151e-01,1.30857e-01,9.99999e-01
5.931695792e-01,1.35852e-01,9.99999e-01,9.97287e-01,1.36221e-01,9.99999e-01
5.961354271e-01,1.41270e-01,9.99999e-01,9.97020e-01,1.41692e-01,9.99999e-01
5.991161043e-01,1.46947e-01,9.99999e-01,9.97824e-01,1.47268e-01,9.99999e-01
6.021116848e-01,1.52757e-01,9.99999e-01,9.98763e-01,1.52947e-01,9.99999e-01
6.051222432e-01,1.58626e-01,9.99999e-01,9.99373e-01,1.58726e-01,9.99999e-01
6.081478544e-01,1.64558e-01,9.99999e-01,9.99729e-01,1.64602e-01,9.99999e-01
6.111885937e-01,1.70555e-01,9.99999e-01,9.99885e-01,1.70574e-01,9.99999e-01
6.142445367e-01,1.76629e-01,9.99999e-01,9.99948e-01,1.76638e-01,9.99999e-01
6.173157594e-01,1.82787e-01,9.99999e-01,9.99971e-01,1.82792e-01,9.99999e-01
6.204023382e-01,1.89027e-01,9.99999e-01,9.99975e-01,1.89032e-01,9.99999e-01
6.235043498e-01,1.95335e-01,9.99999e-01,9.99896e-01,1.95355e-01,9.99999e-01
6.266218716e-01,2.01648e-01,9.99999e-01,9.99447e-01,2.01759e-01,9.99999e-01
6.297549810e-01,2.08198e-01,9.99999e-01,9.99797e-01,2.08240e-01,9.99999e-01
6.329037559e-01,2.14709e-01,9.99999e-01,9.99598e-01,2.14795e-01,9.99999e-01
6.360682746e-01,2.21346e-01,9.99999e-01,9.99659e-01,2.21421e-01,9.99999e-01
6.392486160e-01,2.28013e-01,9.99999e-01,9.99557e-01,2.28114e-01,9.99999e-01
6.424448591e-01,2.34734e-01,9.99999e-01,9.99412e-01,2.34872e-01,9.99999e-01
6.456570834e-01,2.41031e-01,9.99999e-01,9.97272e-01,2.41690e-01,9.99999e-01
6.488853688e-01,2.47977e-01,9.99999e-01,9.97633e-01,2.48565e-01,9.99999e-01
6.521297956e-01,2.54969e-01,9.99999e-01,9.97944e-01,2.55495e-01,9.99999e-01
6.553904446e-01,2.61942e-01,9.99999e-01,9.97970e-01,2.62475e-01,9.99999e-01
6.586673968e-01,2.69029e-01,9.99999e-01,9.98245e-01,2.69502e-01,9.99999e-01
6.619607338e-01,2.76293e-01,9.99999e-01,9.98986e-01,2.76573e-01,9.99999e-01
6.652705375e-01,2.83517e-01,9.99999e-01,9.99411e-01,2.83684e-01,9.99999e-01
6.685968902e-01,2.90753e-01,9.99999e-01,9.99726e-01,2.90833e-01,9.99999e-01
6.719398746e-01,2.97977e-01,9.99999e-01,9.99872e-01,2.98015e-01,9.99999e-01
6.752995740e-01,3.05206e-01,9.99999e-01,9.99931e-01,3.05227e-01,9.99999e-01
6.786760719e-01,3.12435e-01,9.99999e-01,9.99901e-01,3.12466e-01,9.99999e-01
6.820694522e-01,3.19675e-01,9.99999e-01,9.99831e-01,3.19729e-01,9.99999e-01
6.854797995e-01,3.26941e-01,9.99999e-01,9.99782e-01,3.27012e-01,9.99999e-01
6.889071985e-01,3.34139e-01,9.99999e-01,9.99481e-01,3.34312e-01,9.99999e-01
6.923517345e-01,3.38712e-01,9.99999e-01,9.91470e-01,3.41626e-01,9.99999e-01
6.958134932e-01,3.47372e-01,9.99999e-01,9.95473e-01,3.48951e-01,9.99999e-01
6.992925606e-01,3.54780e-01,9.99999e-01,9.95778e-01,3.56284e-01,9.99999e-01
7.027890234e-01,3.61713e-01,9.99999e-01,9.94751e-01,3.63621e-01,9.99999e-01
7.063029686e-01,3.69325e-01,9.99999e-01,9.95590e-01,3.70960e-01,9.99999e-01
7.098344834e-01,3.76698e-01,9.99999e-01,9.95768e-01,3.78298e-01,9.99999e-01
7.133836558e-01,3.83484e-01,9.99999e-01,9.94429e-01,3.85632e-01,9.99999e-01
7.169505741e-01,3.75543e-01,9.99999e-01,9.55679e-01,3.92959e-01,9.99998e-01
7.205353270e-01,3.91354e-01,9.99999e-01,9.77709e-01,4.00276e-01,9.99998e-01
7.241380036e-01,3.96239e-01,9.99999e-01,9.72171e-01,4.07581e-01,9.99998e-01
7.277586936e-01,4.04430e-01,9.99999e-01,9.74831e-01,4.14871e-01,9.99998e-01
7.313974871e-01,4.10793e-01,9.99999e-01,9.73111e-01,4.22144e-01,9.99999e-01
7.350544745e-01,4.23066e-01,9.99999e-01,9.85256e-01,4.29397e-01,9.99999e-01
7.387297469e-01,4.31880e-01,9.99999e-01,9.89127e-01,4.36627e-01,9.99999e-01
7.424233956e-01,4.41461e-01,9.99999e-01,9.94655e-01,4.43833e-01,9.99999e-01
7.461355126e-01,4.49552e-01,9.99999e-01,9.96764e-01,4.51011e-01,9.99999e-01
7.498661902e-01,4.57469e-01,9.99999e-01,9.98488e-01,4.58161e-01,9.99999e-01
7.536155211e-01,4.64936e-01,9.99999e-01,9.99260e-01,4.65280e-01,9.99999e-01
7.573835987e-01,4.72185e-01,9.99999e-01,9.99618e-01,4.72365e-01,9.99999e-01
7.611705167e-01,4.79301e-01,9.99999e-01,9.99763e-01,4.79415e-01,9.99999e-01
7.649763693e-01,4.86355e-01,9.99999e-01,9.99851e-01,4.86427e-01,9.99999e-01
7.688012511e-01,4.93350e-01,9.99999e-01,9.99896e-01,4.93401e-01,9.99999e-01
7.726452574e-01,5.00292e-01,9.99999e-01,9.99914e-01,5.00334e-01,9.99999e-01
7.765084837e-01,5.07164e-01,9.99999e-01,9.99880e-01,5.07225e-01,9.99999e-01
7.803910261e-01,4.98188e-01,9.69587e-01,9.99484e-01,5.14072e-01,9.99999e-01
7.842929812e-01,4.51319e-01,8.67957e-01,9.98200e-01,5.20873e-01,9.99999e-01
7.882144461e-01,4.52133e-01,8.60010e-01,9.96266e-01,5.27627e-01,9.99999e-01
7.921555184e-01,4.88475e-01,9.16022e-01,9.97941e-01,5.34332e-01,9.99999e-01
7.961162960e-01,5.08123e-01,9.42610e-01,9.96401e-01,5.40988e-01,9.99999e-01
8.000968774e-01,5.28148e-01,9.68524e-01,9.95822e-01,5.47593e-01,9.99999e-01
8.040973618e-01,5.42738e-01,9.83510e-01,9.95826e-01,5.54146e-01,9.99999e-01
8.081178486e-01,5.51214e-01,9.92428e-01,9.90665e-01,5.60645e-01,9.99999e-01
8.121584379e-01,5.43994e-01,9.97637e-01,9.61523e-01,5.67090e-01,9.99999e-01
8.162192301e-01,5.46851e-01,9.99477e-01,9.54055e-01,5.73480e-01,9.99998e-01
8.203003262e-01,5.66576e-01,9.99990e-01,9.77177e-01,5.79813e-01,9.99998e-01
8.244018279e-01,5.67028e-01,9.99999e-01,9.67477e-01,5.86089e-01,9.99998e-01
8.285238370e-01,5.76024e-01,9.99999e-01,9.72509e-01,5.92307e-01,9.99998e-01
8.326664562e-01,5.81771e-01,9.99999e-01,9.72102e-01,5.98466e-01,9.99999e-01
8.368297885e-01,5.92462e-01,9.99999e-01,9.79979e-01,6.04566e-01,9.99999e-01
8.410139374e-01,6.03313e-01,9.99999e-01,9.88057e-01,6.10606e-01,9.99999e-01
8.452190071e-01,6.12961e-01,9.99999e-01,9.94122e-01,6.16584e-01,9.99999e-01
8.494451021e-01,6.20385e-01,9.99999e-01,9.96598e-01,6.22502e-01,9.99999e-01
8.536923276e-01,6.27089e-01,9.99999e-01,9.97981e-01,6.28358e-01,9.99999e-01
8.579607893e-01,6.33365e-01,9.99999e-01,9.98760e-01,6.34151e-01,9.99999e-01
8.622505932e-01,6.39377e-01,9.99999e-01,9.99210e-01,6.39882e-01,9.99999e-01
8.665618462e-01,6.00643e-01,9.30871e-01,9.99513e-01,6.45550e-01,9.99999e-01
8.708946554e-01,4.54652e-01,6.98599e-01,9.99443e-01,6.51155e-01,9.99999e-01
8.752491287e-01,4.91237e-01,7.48584e-01,9.99255e-01,6.56696e-01,9.99999e-01
8.796253743e-01,5.64252e-01,8.52973e-01,9.98971e-01,6.62174e-01,9.99999e-01
8.840235012e-01,6.14097e-01,9.20942e-01,9.98824e-01,6.67588e-01,9.99999e-01
8.884436187e-01,6.48651e-01,9.67955e-01,9.95784e-01,6.72937e-01,9.99999e-01
8.928858368e-01,6.39888e-01,9.86931e-01,9.55870e-01,6.78223e-01,9.99998e-01
8.973502660e-01,6.28534e-01,9.96792e-01,9.22560e-01,6.83445e-01,9.99998e-01
9.018370173e-01,6.60434e-01,9.99645e-01,9.59425e-01,6.88602e-01,9.99998e-01
9.063462024e-01,6.63511e-01,9.91202e-01,9.64730e-01,6.93696e-01,9.99998e-01
9.108779334e-01,6.47090e-01,9.79488e-01,9.45272e-01,6.98725e-01,9.99998e-01
9.154323231e-01,6.56872e-01,9.95106e-01,9.37967e-01,7.03690e-01,9.99997e-01
9.200094847e-01,6.29839e-01,9.32404e-01,9.50959e-01,7.08592e-01,9.99997e-01
9.246095321e-01,5.97667e-01,9.03595e-01,9.25566e-01,7.13430e-01,9.99995e-01
9.292325798e-01,3.96573e-01,9.24279e-01,5.92802e-01,7.18204e-01,9.99992e-01
9.338787427e-01,3.41680e-01,9.26093e-01,5.06413e-01,7.22915e-01,9.99989e-01
9.385481364e-01,5.24124e-01,9.45175e-01,7.59824e-01,7.27563e-01,9.99989e-01
9.432408771e-01,4.85104e-01,9.65976e-01,6.84695e-01,7.32148e-01,9.99988e-01
9.479570815e-01,4.29911e-01,9.82447e-01,5.93487e-01,7.36671e-01,9.99989e-01
9.526968669e-01,4.95714e-01,9.91484e-01,6.74122e-01,7.41131e-01,9.99992e-01
9.574603512e-01,5.17236e-01,9.96348e-01,6.96170e-01,7.45530e-01,9.99994e-01
9.622476530e-01,5.57422e-01,9.98858e-01,7.44165e-01,7.49867e-01,9.99995e-01
9.670588912e-01,6.36001e-01,9.99657e-01,8.43619e-01,7.54143e-01,9.99997e-01
9.718941857e-01,6.81979e-01,9.99974e-01,8.99305e-01,7.58358e-01,9.99998e-01
9.767536566e-01,6.98235e-01,9.99999e-01,9.15704e-01,7.62512e-01,9.99998e-01
9.816374249e-01,7.18081e-01,9.99999e-01,9.36700e-01,7.66607e-01,9.99998e-01
9.865456120e-01,7.39790e-01,9.99999e-01,9.59966e-01,7.70642e-01,9.99999e-01
9.914783401e-01,7.55317e-01,9.99999e-01,9.75082e-01,7.74618e-01,9.99999e-01
9.964357318e-01,7.67910e-01,9.99999e-01,9.86351e-01,7.78536e-01,9.99999e-01
1.001417910e+00,7.75978e-01,9.99999e-01,9.91797e-01,7.82395e-01,9.99999e-01
1.006425000e+00,7.82522e-01,9.99999e-01,9.95325e-01,7.86196e-01,9.99999e-01
1.011457125e+00,7.87642e-01,9.99999e-01,9.97089e-01,7.89941e-01,9.99999e-01
1.016514411e+00,7.92063e-01,9.99999e-01,9.98026e-01,7.93629e-01,9.99999e-01
1.021596983e+00,7.95974e-01,9.99956e-01,9.98428e-01,7.97260e-01,9.99999e-01
1.026704968e+00,7.97117e-01,9.96574e-01,9.98774e-01,8.00836e-01,9.99999e-01
1.031838492e+00,7.72069e-01,9.60691e-01,9.99107e-01,8.04357e-01,9.99999e-01
1.036997685e+00,1.33074e-01,1.64801e-01,9.99470e-01,8.07824e-01,9.99999e-01
1.042182673e+00,1.10680e-01,1.36510e-01,9.99371e-01,8.11236e-01,9.99999e-01
1.047393587e+00,1.28949e-01,1.58415e-01,9.99164e-01,8.14595e-01,9.99999e-01
1.052630555e+00,4.41988e-03,5.40850e-03,9.98855e-01,8.17902e-01,9.99999e-01
1.057893707e+00,1.07202e-02,1.30720e-02,9.98092e-01,8.21155e-01,9.99999e-01
1.063183176e+00,3.38244e-02,4.11249e-02,9.96858e-01,8.24358e-01,9.99999e-01
1.068499092e+00,9.09186e-02,1.10363e-01,9.94737e-01,8.27509e-01,9.99999e-01
1.073841587e+00,2.04510e-01,2.47520e-01,9.93853e-01,8.30609e-01,9.99999e-01
1.079210795e+00,3.42037e-01,4.13274e-01,9.92105e-01,8.33660e-01,9.99999e-01
1.084606849e+00,5.08421e-01,6.14681e-01,9.88088e-01,8.36661e-01,9.99999e-01
1.090029883e+00,6.41577e-01,7.76998e-01,9.83015e-01,8.39613e-01,9.99998e-01
1.095480033e+00,7.10257e-01,8.82966e-01,9.54305e-01,8.42518e-01,9.99998e-01
1.100957433e+00,7.07370e-01,9.41821e-01,8.87932e-01,8.45374e-01,9.99997e-01
1.106462220e+00,6.12649e-01,9.75495e-01,7.39847e-01,8.48184e-01,9.99995e-01
1.111994531e+00,4.46823e-01,9.90847e-01,5.29620e-01,8.50947e-01,9.99990e-01
1.117554504e+00,3.04949e-01,9.97748e-01,3.57892e-01,8.53664e-01,9.99986e-01
1.123142276e+00,4.02565e-01,9.99850e-01,4.70143e-01,8.56336e-01,9.99984e-01
1.128757988e+00,5.29643e-01,9.99999e-01,6.16617e-01,8.58963e-01,9.99983e-01
1.134401778e+00,3.04177e-01,9.99999e-01,3.53065e-01,8.61547e-01,9.99981e-01
1.140073787e+00,6.47260e-01,9.99999e-01,7.49079e-01,8.64087e-01,9.99984e-01
1.145774156e+00,4.74382e-01,9.99999e-01,5.47423e-01,8.66583e-01,9.99987e-01
1.151503026e+00,4.44793e-01,9.99999e-01,5.11827e-01,8.69038e-01,9.99988e-01
1.157260541e+00,4.97048e-01,9.99999e-01,5.70372e-01,8.71451e-01,9.99991e-01
1.163046844e+00,5.76386e-01,9.99999e-01,6.59617e-01,8.73823e-01,9.99994e-01
1.168862078e+00,6.55973e-01,9.99999e-01,7.48697e-01,8.76154e-01,9.99996e-01
1.174706389e+00,7.34795e-01,9.99999e-01,8.36473e-01,8.78445e-01,9.99998e-01
1.180579921e+00,7.89906e-01,9.99999e-01,8.96911e-01,8.80696e-01,9.99998e-01
1.186482820e+00,8.30313e-01,9.99994e-01,9.40432e-01,8.82909e-01,9.99998e-01
1.192415234e+00,8.43711e-01,9.87876e-01,9.64830e-01,8.85084e-01,9.99998e-01
1.198377311e+00,4.88139e-01,5.64233e-01,9.70326e-01,8.87220e-01,9.99998e-01
1.204369197e+00,1.29250e-10,1.47749e-10,9.71872e-01,8.89320e-01,9.99999e-01
1.210391043e+00,3.64513e-38,4.15166e-38,9.73081e-01,8.91383e-01,9.99999e-01
1.216442998e+00,3.07769e-33,3.49465e-33,9.77011e-01,8.93409e-01,9.99999e-01
1.222525213e+00,9.25525e-33,1.04329e-32,9.82074e-01,8.95401e-01,9.99999e-01
1.228637839e+00,2.27934e-25,2.56228e-25,9.87528e-01,8.97357e-01,9.99999e-01
1.234781029e+00,1.53885e-16,1.71810e-16,9.90715e-01,8.99279e-01,9.99999e-01
1.240954934e+00,3.34116e-11,3.72175e-11,9.94125e-01,9.01166e-01,9.99999e-01
1.247159708e+00,2.63222e-06,2.92302e-06,9.95419e-01,9.03021e-01,9.99999e-01
1.253395507e+00,4.64877e-04,5.15344e-04,9.95938e-01,9.04842e-01,9.99999e-01
1.259662485e+00,8.47868e-03,9.38066e-03,9.96179e-01,9.06631e-01,9.99999e-01
1.265960797e+00,7.26204e-02,8.03395e-02,9.93863e-01,9.08388e-01,9.99999e-01
1.272290601e+00,2.87411e-01,3.18400e-01,9.90976e-01,9.10114e-01,9.99999e-01
1.278652054e+00,2.69265e-01,2.99886e-01,9.81002e-01,9.11808e-01,9.99999e-01
1.285045314e+00,8.33260e-03,9.26494e-03,9.70296e-01,9.13473e-01,9.99998e-01
1.291470541e+00,3.46317e-05,3.93668e-05,9.41058e-01,9.15107e-01,9.99998e-01
1.297927893e+00,5.43631e-03,6.17207e-03,9.23686e-01,9.16712e-01,9.99997e-01
1.304417533e+00,1.21656e-01,1.45246e-01,9.02624e-01,9.18288e-01,9.99995e-01
1.310939621e+00,3.15418e-02,3.68020e-02,8.89792e-01,9.19835e-01,9.99992e-01
1.317494319e+00,1.27404e-13,1.48996e-13,8.80301e-01,9.21355e-01,9.99988e-01
1.324081790e+00,1.61119e-09,1.91173e-09,8.26757e-01,9.22847e-01,9.99981e-01
1.330702199e+00,9.17656e-06,1.44616e-05,4.77446e-01,9.24312e-01,9.99969e-01
1.337355710e+00,4.52375e-06,1.69577e-05,1.46669e-01,9.25750e-01,9.99941e-01
1.344042489e+00,7.31929e-07,5.20473e-06,9.81164e-03,9.27161e-01,9.99875e-01
1.350762701e+00,2.03314e-09,8.98460e-06,6.34166e-05,9.28547e-01,9.99801e-01
1.357516515e+00,2.88850e-09,5.65095e-04,1.31853e-06,9.29908e-01,9.99754e-01
1.364304097e+00,2.28070e-06,7.87681e-03,1.55574e-04,9.31244e-01,9.99736e-01
1.371125618e+00,3.20799e-04,7.94071e-02,2.70126e-03,9.32555e-01,9.99734e-01
1.377981246e+00,9.92026e-04,1.26427e-01,6.64384e-03,9.33842e-01,9.99714e-01
1.384871152e+00,7.06729e-05,2.99945e-01,2.02389e-04,9.35106e-01,9.99717e-01
1.391795508e+00,8.10212e-05,3.28481e-01,2.13486e-04,9.36346e-01,9.99758e-01
1.398754485e+00,4.33672e-04,5.03263e-01,8.59694e-04,9.37563e-01,9.99797e-01
1.405748258e+00,5.02653e-04,6.02824e-01,8.12353e-04,9.38758e-01,9.99818e-01
1.412776999e+00,5.92141e-04,7.26261e-01,8.12245e-04,9.39930e-01,9.99854e-01
1.419840884e+00,1.01863e-03,6.58905e-01,1.35773e-03,9.41081e-01,9.99891e-01
1.426940089e+00,1.65344e-03,6.42823e-02,5.47639e-03,9.42210e-01,9.99932e-01
1.434074789e+00,0.00000e+00,0.00000e+00,1.89207e-02,9.43319e-01,9.99957e-01
1.441245163e+00,0.00000e+00,0.00000e+00,4.67723e-02,9.44407e-01,9.99966e-01
1.448451389e+00,0.00000e+00,0.00000e+00,1.13875e-01,9.45474e-01,9.99972e-01
1.455693646e+00,1.27087e-305,2.85112e-305,2.34798e-01,9.46522e-01,9.99977e-01
1.462972114e+00,2.48430e-148,5.56731e-148,2.88093e-01,9.47550e-01,9.99980e-01
1.470286975e+00,1.40990e-62,3.35033e-62,2.34132e-01,9.48559e-01,9.99982e-01
