#,Wave/freq,Total,CO2,H2O,Rayleigh,CIA
4.000000000e-01,8.41792e-04,9.99999e-01,9.99985e-01,8.41804e-04,9.99999e-01
4.020000000e-01,9.68285e-04,9.99999e-01,9.99990e-01,9.68293e-04,9.99999e-01
4.040100000e-01,1.11055e-03,9.99999e-01,9.99995e-01,1.11056e-03,9.99999e-01
4.060300500e-01,1.27028e-03,9.99999e-01,9.99998e-01,1.27028e-03,9.99999e-01
4.080602003e-01,1.44912e-03,9.99999e-01,9.99999e-01,1.44912e-03,9.99999e-01
4.101005013e-01,1.64884e-03,9.99999e-01,9.99999e-01,1.64884e-03,9.99999e-01
4.121510038e-01,1.87131e-03,9.99999e-01,9.99998e-01,1.87131e-03,9.99999e-01
4.142117588e-01,2.11849e-03,9.99999e-01,9.99995e-01,2.11850e-03,9.99999e-01
4.162828176e-01,2.39243e-03,9.99999e-01,9.99982e-01,2.39247e-03,9.99999e-01
4.183642317e-01,2.69535e-03,9.99999e-01,9.99989e-01,2.69538e-03,9.99999e-01
4.204560528e-01,3.02949e-03,9.99999e-01,9.99993e-01,3.02951e-03,9.99999e-01
4.225583331e-01,3.39719e-03,9.99999e-01,9.99997e-01,3.39720e-03,9.99999e-01
4.246711247e-01,3.80090e-03,9.99999e-01,9.99997e-01,3.80091e-03,9.99999e-01
4.267944804e-01,4.24316e-03,9.99999e-01,9.99996e-01,4.24317e-03,9.99999e-01
4.289284528e-01,4.72660e-03,9.99999e-01,9.99997e-01,4.72661e-03,9.99999e-01
4.310730950e-01,5.25391e-03,9.99999e-01,9.99998e-01,5.25392e-03,9.99999e-01
4.332284605e-01,5.82786e-03,9.99999e-01,9.99999e-01,5.82786e-03,9.99999e-01
4.353946028e-01,6.45128e-03,9.99999e-01,9.99999e-01,6.45128e-03,9.99999e-01
4.375715758e-01,7.12705e-03,9.99999e-01,9.99997e-01,7.12707e-03,9.99999e-01
4.397594337e-01,7.85805e-03,9.99999e-01,9.99984e-01,7.85817e-03,9.99999e-01
4.419582309e-01,8.64689e-03,9.99999e-01,9.99922e-01,8.64756e-03,9.99999e-01
4.441680220e-01,9.49772e-03,9.99999e-01,9.99940e-01,9.49829e-03,9.99999e-01
4.463888621e-01,1.04127e-02,9.99999e-01,9.99937e-01,1.04134e-02,9.99999e-01
4.486208064e-01,1.13955e-02,9.99999e-01,9.99961e-01,1.13959e-02,9.99999e-01
4.508639105e-01,1.24487e-02,9.99999e-01,9.99981e-01,1.24490e-02,9.99999e-01
4.531182300e-01,1.35755e-02,9.99999e-01,9.99992e-01,1.35756e-02,9.99999e-01
4.553838212e-01,1.47788e-02,9.99999e-01,9.99994e-01,1.47789e-02,9.99999e-01
4.576607403e-01,1.60618e-02,9.99999e-01,9.99997e-01,1.60619e-02,9.99999e-01
4.599490440e-01,1.74275e-02,9.99999e-01,9.99997e-01,1.74275e-02,9.99999e-01
4.622487892e-01,1.88789e-02,9.99999e-01,9.99999e-01,1.88789e-02,9.99999e-01
4.645600332e-01,2.04187e-02,9.99999e-01,9.99998e-01,2.04188e-02,9.99999e-01
4.668828333e-01,2.20497e-02,9.99999e-01,9.99981e-01,2.20501e-02,9.99999e-01
4.692172475e-01,2.37747e-02,9.99999e-01,9.99960e-01,2.37756e-02,9.99999e-01
4.715633337e-01,2.55974e-02,9.99999e-01,9.99974e-01,2.55981e-02,9.99999e-01
4.739211504e-01,2.75194e-02,9.99999e-01,9.99975e-01,2.75201e-02,9.99999e-01
4.762907561e-01,2.95437e-02,9.99999e-01,9.99986e-01,2.95441e-02,9.99999e-01
4.786722099e-01,3.16723e-02,9.99999e-01,9.99994e-01,3.16725e-02,9.99999e-01
4.810655710e-01,3.39076e-02,9.99999e-01,9.99997e-01,3.39076e-02,9.99999e-01
4.834708988e-01,3.62511e-02,9.99999e-01,9.99984e-01,3.62516e-02,9.99999e-01
4.858882533e-01,3.87055e-02,9.99999e-01,9.99971e-01,3.87066e-02,9.99999e-01
4.883176946e-01,4.12733e-02,9.99999e-01,9.99976e-01,4.12743e-02,9.99999e-01
4.907592831e-01,4.39556e-02,9.99999e-01,9.99978e-01,4.39565e-02,9.99999e-01
4.932130795e-01,4.67542e-02,9.99999e-01,9.99984e-01,4.67549e-02,9.99999e-01
4.956791449e-01,4.96704e-02,9.99999e-01,9.99991e-01,4.96708e-02,9.99999e-01
4.981575406e-01,5.27035e-02,9.99999e-01,9.99960e-01,5.27055e-02,9.99999e-01
5.006483283e-01,5.58545e-02,9.99999e-01,9.99897e-01,5.58602e-02,9.99999e-01
5.031515699e-01,5.91053e-02,9.99999e-01,9.99483e-01,5.91358e-02,9.99999e-01
5.056673278e-01,6.25161e-02,9.99999e-01,9.99727e-01,6.25330e-02,9.99999e-01
5.081956644e-01,6.60299e-02,9.99999e-01,9.99657e-01,6.60525e-02,9.99999e-01
5.107366428e-01,6.96785e-02,9.99999e-01,9.99768e-01,6.96946e-02,9.99999e-01
5.132903260e-01,7.34500e-02,9.99999e-01,9.99867e-01,7.34597e-02,9.99999e-01
5.158567776e-01,7.73434e-02,9.99999e-01,9.99943e-01,7.73477e-02,9.99999e-01
5.184360615e-01,8.13568e-02,9.99999e-01,9.99977e-01,8.13586e-02,9.99999e-01
5.210282418e-01,8.54913e-02,9.99999e-01,9.99991e-01,8.54920e-02,9.99999e-01
5.236333830e-01,8.97446e-02,9.99999e-01,9.99965e-01,8.97476e-02,9.99999e-01
5.262515499e-01,9.41226e-02,9.99999e-01,9.99978e-01,9.41246e-02,9.99999e-01
5.288828077e-01,9.86204e-02,9.99999e-01,9.99980e-01,9.86223e-02,9.99999e-01
5.315272217e-01,1.03238e-01,9.99999e-01,9.99982e-01,1.03240e-01,9.99999e-01
5.341848578e-01,1.07974e-01,9.99999e-01,9.99988e-01,1.07976e-01,9.99999e-01
5.368557821e-01,1.12824e-01,9.99999e-01,9.99960e-01,1.12829e-01,9.99999e-01
5.395400610e-01,1.17781e-01,9.99999e-01,9.99857e-01,1.17798e-01,9.99999e-01
5.422377613e-01,1.22858e-01,9.99999e-01,9.99817e-01,1.22881e-01,9.99999e-01
5.449489501e-01,1.28055e-01,9.99999e-01,9.99829e-01,1.28076e-01,9.99999e-01
5.476736949e-01,1.33362e-01,9.99999e-01,9.99849e-01,1.33382e-01,9.99999e-01
5.504120634e-01,1.38782e-01,9.99999e-01,9.99890e-01,1.38797e-01,9.99999e-01
5.531641237e-01,1.44310e-01,9.99999e-01,9.99944e-01,1.44318e-01,9.99999e-01
5.559299443e-01,1.49939e-01,9.99999e-01,9.99973e-01,1.49943e-01,9.99999e-01
5.587095940e-01,1.55667e-01,9.99999e-01,9.99982e-01,1.55669e-01,9.99999e-01
5.615031420e-01,1.61492e-01,9.99999e-01,9.99981e-01,1.61495e-01,9.99999e-01
5.643106577e-01,1.67414e-01,9.99999e-01,9.99978e-01,1.67417e-01,9.99999e-01
5.671322110e-01,1.73388e-01,9.99999e-01,9.99740e-01,1.73433e-01,9.99999e-01
5.699678720e-01,1.79492e-01,9.99999e-01,9.99730e-01,1.79540e-01,9.99999e-01
5.728177114e-01,1.85682e-01,9.99999e-01,9.99716e-01,1.85735e-01,9.99999e-01
5.756818000e-01,1.91965e-01,9.99999e-01,9.99740e-01,1.92015e-01,9.99999e-01
5.785602090e-01,1.98332e-01,9.99999e-01,9.99774e-01,1.98376e-01,9.99999e-01
5.814530100e-01,2.04771e-01,9.99999e-01,9.99772e-01,2.04817e-01,9.99999e-01
5.843602750e-01,2.11276e-01,9.99999e-01,9.99727e-01,2.11334e-01,9.99999e-01
5.872820764e-01,2.17412e-01,9.99999e-01,9.97655e-01,2.17923e-01,9.99999e-01
5.902184868e-01,2.23948e-01,9.99999e-01,9.97181e-01,2.24581e-01,9.99999e-01
5.931695792e-01,2.30843e-01,9.99999e-01,9.98003e-01,2.31305e-01,9.99999e-01
5.961354271e-01,2.37571e-01,9.99999e-01,9.97815e-01,2.38091e-01,9.99999e-01
5.991161043e-01,2.44547e-01,9.99999e-01,9.98408e-01,2.44937e-01,9.99999e-01
6.021116848e-01,2.51611e-01,9.99999e-01,9.99097e-01,2.51838e-01,9.99999e-01
6.051222432e-01,2.58674e-01,9.99999e-01,9.99543e-01,2.58792e-01,9.99999e-01
6.081478544e-01,2.65743e-01,9.99999e-01,9.99802e-01,2.65795e-01,9.99999e-01
6.111885937e-01,2.72821e-01,9.99999e-01,9.99916e-01,2.72843e-01,9.99999e-01
6.142445367e-01,2.79924e-01,9.99999e-01,9.99962e-01,2.79934e-01,9.99999e-01
6.173157594e-01,2.87057e-01,9.99999e-01,9.99978e-01,2.87063e-01,9.99999e-01
6.204023382e-01,2.94223e-01,9.99999e-01,9.99982e-01,2.94228e-01,9.99999e-01
6.235043498e-01,3.01401e-01,9.99999e-01,9.99921e-01,3.01425e-01,9.99999e-01
6.266218716e-01,3.08524e-01,9.99999e-01,9.99593e-01,3.08650e-01,9.99999e-01
6.297549810e-01,3.15854e-01,9.99999e-01,9.99850e-01,3.15901e-01,9.99999e-01
6.329037559e-01,3.23078e-01,9.99999e-01,9.99705e-01,3.23173e-01,9.99999e-01
6.360682746e-01,3.30382e-01,9.99999e-01,9.99748e-01,3.30465e-01,9.99999e-01
6.392486160e-01,3.37662e-01,9.99999e-01,9.99674e-01,3.37772e-01,9.99999e-01
6.424448591e-01,3.44941e-01,9.99999e-01,9.99561e-01,3.45092e-01,9.99999e-01
6.456570834e-01,3.51705e-01,9.99999e-01,9.97967e-01,3.52421e-01,9.99999e-01
6.488853688e-01,3.59226e-01,9.99999e-01,9.98524e-01,3.59756e-01,9.99999e-01
6.521297956e-01,3.66543e-01,9.99999e-01,9.98496e-01,3.67095e-01,9.99999e-01
6.553904446e-01,3.73871e-01,9.99999e-01,9.98498e-01,3.74434e-01,9.99999e-01
6.586673968e-01,3.81281e-01,9.99999e-01,9.98717e-01,3.81770e-01,9.99999e-01
6.619607338e-01,3.88823e-01,9.99999e-01,9.99285e-01,3.89101e-01,9.99999e-01
6.652705375e-01,3.96254e-01,9.99999e-01,9.99571e-01,3.96424e-01,9.99999e-01
6.685968902e-01,4.03662e-01,9.99999e-01,9.99817e-01,4.03735e-01,9.99999e-01
6.719398746e-01,4.10996e-01,9.99999e-01,9.99907e-01,4.11034e-01,9.99999e-01
6.752995740e-01,4.18295e-01,9.99999e-01,9.99950e-01,4.18316e-01,9.99999e-01
6.786760719e-01,4.25548e-01,9.99999e-01,9.99926e-01,4.25579e-01,9.99999e-01
6.820694522e-01,4.32768e-01,9.99999e-01,9.99875e-01,4.32822e-01,9.99999e-01
6.854797995e-01,4.39970e-01,9.99999e-01,9.99839e-01,4.40041e-01,9.99999e-01
6.889071985e-01,4.47059e-01,9.99999e-01,9.99607e-01,4.47234e-01,9.99999e-01
6.923517345e-01,4.51516e-01,9.99999e-01,9.93653e-01,4.54399e-01,9.99999e-01
6.958134932e-01,4.60035e-01,9.99999e-01,9.96750e-01,4.61534e-01,9.99999e-01
6.992925606e-01,4.67167e-01,9.99999e-01,9.96863e-01,4.68637e-01,9.99999e-01
7.027890234e-01,4.73876e-01,9.99999e-01,9.96152e-01,4.75706e-01,9.99999e-01
7.063029686e-01,4.81176e-01,9.99999e-01,9.96762e-01,4.82738e-01,9.99999e-01
7.098344834e-01,4.88212e-01,9.99999e-01,9.96894e-01,4.89733e-01,9.99999e-01
7.133836558e-01,4.94611e-01,9.99999e-01,9.95818e-01,4.96688e-01,9.99999e-01
7.169505741e-01,4.86925e-01,9.99999e-01,9.66887e-01,5.03601e-01,9.99999e-01
7.205353270e-01,5.02261e-01,9.99999e-01,9.83917e-01,5.10471e-01,9.99999e-01
7.241380036e-01,5.06621e-01,9.99999e-01,9.79363e-01,5.17296e-01,9.99999e-01
7.277586936e-01,5.14313e-01,9.99999e-01,9.81372e-01,5.24075e-01,9.99999e-01
7.313974871e-01,5.20361e-01,9.99999e-01,9.80321e-01,5.30807e-01,9.99999e-01
7.350544745e-01,5.31682e-01,9.99999e-01,9.89196e-01,5.37489e-01,9.99999e-01
7.387297469e-01,5.39795e-01,9.99999e-01,9.92048e-01,5.44121e-01,9.99999e-01
7.424233956e-01,5.48560e-01,9.99999e-01,9.96110e-01,5.50701e-01,9.99999e-01
7.461355126e-01,5.55914e-01,9.99999e-01,9.97639e-01,5.57229e-01,9.99999e-01
7.498661902e-01,5.63084e-01,9.99999e-01,9.98902e-01,5.63703e-01,9.99999e-01
7.536155211e-01,5.69814e-01,9.99999e-01,9.99460e-01,5.70121e-01,9.99999e-01
7.573835987e-01,5.76325e-01,9.99999e-01,9.99722e-01,5.76485e-01,9.99999e-01
7.611705167e-01,5.82690e-01,9.99999e-01,9.99827e-01,5.82791e-01,9.99999e-01
7.649763693e-01,5.88976e-01,9.99999e-01,9.99891e-01,5.89039e-01,9.99999e-01
7.688012511e-01,5.95185e-01,9.99999e-01,9.99924e-01,5.95230e-01,9.99999e-01
7.726452574e-01,6.01323e-01,9.99999e-01,9.99937e-01,6.01361e-01,9.99999e-01
7.765084837e-01,6.07378e-01,9.99999e-01,9.99910e-01,6.07432e-01,9.99999e-01
7.803910261e-01,5.98098e-01,9.75350e-01,9.99615e-01,6.13443e-01,9.99999e-01
7.842929812e-01,5.57578e-01,9.01368e-01,9.98658e-01,6.19393e-01,9.99999e-01
7.882144461e-01,5.57490e-01,8.93967e-01,9.97256e-01,6.25281e-01,9.99999e-01
7.921555184e-01,5.90651e-01,9.37278e-01,9.98500e-01,6.31107e-01,9.99999e-01
7.961162960e-01,6.08445e-01,9.57909e-01,9.97326e-01,6.36871e-01,9.99999e-01
8.000968774e-01,6.25824e-01,9.76930e-01,9.96927e-01,6.42573e-01,9.99999e-01
8.040973618e-01,6.38483e-01,9.88027e-01,9.96923e-01,6.48211e-01,9.99999e-01
8.081178486e-01,6.45647e-01,9.94469e-01,9.93035e-01,6.53786e-01,9.99999e-01
8.121584379e-01,6.39274e-01,9.98302e-01,9.71266e-01,6.59297e-01,9.99999e-01
8.162192301e-01,6.42053e-01,9.99624e-01,9.66222e-01,6.64744e-01,9.99999e-01
8.203003262e-01,6.58548e-01,9.99994e-01,9.82724e-01,6.70128e-01,9.99998e-01
8.244018279e-01,6.59490e-01,9.99999e-01,9.76376e-01,6.75447e-01,9.99998e-01
8.285238370e-01,6.66839e-01,9.99999e-01,9.79633e-01,6.80702e-01,9.99999e-01
8.326664562e-01,6.71814e-01,9.99999e-01,9.79472e-01,6.85894e-01,9.99999e-01
8.368297885e-01,6.80889e-01,9.99999e-01,9.85337e-01,6.91021e-01,9.99999e-01
8.410139374e-01,6.90008e-01,9.99999e-01,9.91271e-01,6.96084e-01,9.99999e-01
8.452190071e-01,6.98081e-01,9.99999e-01,9.95717e-01,7.01083e-01,9.99999e-01
8.494451021e-01,7.04258e-01,9.99999e-01,9.97506e-01,7.06018e-01,9.99999e-01
8.536923276e-01,7.09844e-01,9.99999e-01,9.98528e-01,7.10889e-01,9.99999e-01
8.579607893e-01,7.15048e-01,9.99999e-01,9.99091e-01,7.15697e-01,9.99999e-01
8.622505932e-01,7.20027e-01,9.99999e-01,9.99423e-01,7.20442e-01,9.99999e-01
8.665618462e-01,6.81269e-01,9.39846e-01,9.99642e-01,7.25123e-01,9.99999e-01
8.708946554e-01,5.58382e-01,7.65483e-01,9.99589e-01,7.29741e-01,9.99999e-01
8.752491287e-01,5.93108e-01,8.08155e-01,9.99452e-01,7.34297e-01,9.99999e-01
8.796253743e-01,6.57279e-01,8.90332e-01,9.99239e-01,7.38790e-01,9.99999e-01
8.840235012e-01,6.99304e-01,9.41718e-01,9.99131e-01,7.43221e-01,9.99999e-01
8.884436187e-01,7.27862e-01,9.76728e-01,9.96786e-01,7.47590e-01,9.99999e-01
8.928858368e-01,7.20125e-01,9.90494e-01,9.66878e-01,7.51898e-01,9.99999e-01
8.973502660e-01,7.11049e-01,9.97694e-01,9.42502e-01,7.56145e-01,9.99998e-01
9.018370173e-01,7.37649e-01,9.99746e-01,9.70409e-01,7.60332e-01,9.99998e-01
9.063462024e-01,7.39394e-01,9.93298e-01,9.73599e-01,7.64458e-01,9.99998e-01
9.108779334e-01,7.26273e-01,9.85007e-01,9.59285e-01,7.68524e-01,9.99998e-01
9.154323231e-01,7.34432e-01,9.96492e-01,9.53979e-01,7.72531e-01,9.99998e-01
9.200094847e-01,7.10431e-01,9.47986e-01,9.63824e-01,7.76480e-01,9.99997e-01
9.246095321e-01,6.83750e-01,9.28589e-01,9.42652e-01,7.80369e-01,9.99996e-01
9.292325798e-01,5.01521e-01,9.42937e-01,6.75086e-01,7.84201e-01,9.99993e-01
9.338787427e-01,4.51934e-01,9.45352e-01,6.04019e-01,7.87976e-01,9.99992e-01
9.385481364e-01,6.21408e-01,9.59583e-01,8.16580e-01,7.91693e-01,9.99992e-01
9.432408771e-01,5.83208e-01,9.75137e-01,7.51206e-01,7.95355e-01,9.99991e-01
9.479570815e-01,5.30613e-01,9.87147e-01,6.72420e-01,7.98960e-01,9.99992e-01
9.526968669e-01,5.94981e-01,9.93793e-01,7.45730e-01,8.02510e-01,9.99994e-01
9.574603512e-01,6.15110e-01,9.97344e-01,7.65098e-01,8.06005e-01,9.99995e-01
9.622476530e-01,6.51130e-01,9.99171e-01,8.05055e-01,8.09446e-01,9.99996e-01
9.670588912e-01,7.17161e-01,9.99751e-01,8.82510e-01,8.12833e-01,9.99997e-01
9.718941857e-01,7.54932e-01,9.99982e-01,9.24988e-01,8.16167e-01,9.99998e-01
9.767536566e-01,7.68090e-01,9.99999e-01,9.37326e-01,8.19448e-01,9.99998e-01
9.816374249e-01,7.84256e-01,9.99999e-01,9.53296e-01,8.22677e-01,9.99999e-01
9.865456120e-01,8.01562e-01,9.99999e-01,9.70583e-01,8.25855e-01,9.99999e-01
9.914783401e-01,8.13825e-01,9.99999e-01,9.81715e-01,8.28983e-01,9.99999e-01
9.964357318e-01,8.23743e-01,9.99999e-01,9.90005e-01,8.32059e-01,9.99999e-01
1.001417910e+00,8.30077e-01,9.99999e-01,9.94001e-01,8.35086e-01,9.99999e-01
1.006425000e+00,8.35191e-01,9.99999e-01,9.96571e-01,8.38064e-01,9.99999e-01
1.011457125e+00,8.39207e-01,9.99999e-01,9.97875e-01,8.40994e-01,9.99999e-01
1.016514411e+00,8.42657e-01,9.99999e-01,9.98555e-01,8.43876e-01,9.99999e-01
1.021596983e+00,8.45702e-01,9.99960e-01,9.98848e-01,8.46710e-01,9.99999e-01
1.026704968e+00,8.46511e-01,9.97379e-01,9.99101e-01,8.49497e-01,9.99999e-01
1.031838492e+00,8.20709e-01,9.63614e-01,9.99347e-01,8.52239e-01,9.99999e-01
1.036997685e+00,1.82391e-01,2.13406e-01,9.99611e-01,8.54934e-01,9.99999e-01
1.042182673e+00,1.93877e-01,2.26168e-01,9.99535e-01,8.57585e-01,9.99999e-01
1.047393587e+00,1.94813e-01,2.26600e-01,9.99385e-01,8.60192e-01,9.99999e-01
1.052630555e+00,1.48803e-02,1.72586e-02,9.99155e-01,8.62754e-01,9.99999e-01
1.057893707e+00,3.23170e-02,3.73876e-02,9.98589e-01,8.65274e-01,9.99999e-01
1.063183176e+00,7.83701e-02,9.04751e-02,9.97681e-01,8.67750e-01,9.99999e-01
1.068499092e+00,1.68768e-01,1.94609e-01,9.96123e-01,8.70185e-01,9.99999e-01
1.073841587e+00,3.10321e-01,3.57076e-01,9.95456e-01,8.72578e-01,9.99999e-01
1.079210795e+00,4.53727e-01,5.21422e-01,9.94196e-01,8.74931e-01,9.99999e-01
1.084606849e+00,6.09178e-01,7.00380e-01,9.91212e-01,8.77243e-01,9.99999e-01
1.090029883e+00,7.22069e-01,8.31317e-01,9.87333e-01,8.79515e-01,9.99999e-01
1.095480033e+00,7.77914e-01,9.13150e-01,9.65901e-01,8.81749e-01,9.99998e-01
1.100957433e+00,7.74859e-01,9.57193e-01,9.15509e-01,8.83943e-01,9.99997e-01
1.106462220e+00,6.94789e-01,9.82100e-01,7.98023e-01,8.86100e-01,9.99996e-01
1.111994531e+00,5.49734e-01,9.93329e-01,6.22862e-01,8.88219e-01,9.99992e-01
1.117554504e+00,4.12906e-01,9.98374e-01,4.64439e-01,8.90301e-01,9.99990e-01
1.123142276e+00,5.06643e-01,9.99893e-01,5.67806e-01,8.92346e-01,9.99988e-01
1.128757988e+00,6.22804e-01,9.99999e-01,6.96379e-01,8.94356e-01,9.99987e-01
1.134401778e+00,3.96945e-01,9.99999e-01,4.42861e-01,8.96331e-01,9.99986e-01
1.140073787e+00,7.24499e-01,9.99999e-01,8.06556e-01,8.98271e-01,9.99988e-01
1.145774156e+00,5.74526e-01,9.99999e-01,6.38242e-01,9.00176e-01,9.99990e-01
1.151503026e+00,5.46032e-01,9.99999e-01,6.05329e-01,9.02048e-01,9.99991e-01
1.157260541e+00,5.96562e-01,9.99999e-01,6.60000e-01,9.03887e-01,9.99993e-01
1.163046844e+00,6.66803e-01,9.99999e-01,7.36238e-01,9.05693e-01,9.99995e-01
1.168862078e+00,7.34032e-01,9.99999e-01,8.08881e-01,9.07466e-01,9.99997e-01
1.174706389e+00,7.97657e-01,9.99999e-01,8.77309e-01,9.09209e-01,9.99998e-01
1.180579921e+00,8.41193e-01,9.99999e-01,9.23455e-01,9.10919e-01,9.99998e-01
1.186482820e+00,8.72451e-01,9.99993e-01,9.56011e-01,9.12600e-01,9.99998e-01
1.192415234e+00,8.82243e-01,9.90592e-01,9.74084e-01,9.14250e-01,9.99999e-01
1.198377311e+00,5.13552e-01,5.71223e-01,9.78081e-01,9.15870e-01,9.99999e-01
1.204369197e+00,2.14497e-08,2.36639e-08,9.79254e-01,9.17461e-01,9.99999e-01
1.210391043e+00,1.23616e-28,1.36012e-28,9.80161e-01,9.19024e-01,9.99999e-01
1.216442998e+00,5.14886e-25,5.65244e-25,9.83127e-01,9.20558e-01,9.99999e-01
1.222525213e+00,1.16429e-24,1.27137e-24,9.86835e-01,9.22064e-01,9.99999e-01
1.228637839e+00,4.63298e-19,5.04908e-19,9.90837e-01,9.23543e-01,9.99999e-01
1.234781029e+00,9.59125e-13,1.03997e-12,9.93195e-01,9.24995e-01,9.99999e-01
1.240954934e+00,1.25609e-08,1.35972e-08,9.95689e-01,9.26421e-01,9.99999e-01
1.247159708e+00,4.24325e-05,4.58335e-05,9.96644e-01,9.27821e-01,9.99999e-01
1.253395507e+00,3.16652e-03,3.41578e-03,9.97017e-01,9.29195e-01,9.99999e-01
1.259662485e+00,3.62791e-02,3.90803e-02,9.97161e-01,9.30543e-01,9.99999e-01
1.265960797e+00,1.42038e-01,1.53013e-01,9.95474e-01,9.31867e-01,9.99999e-01
1.272290601e+00,4.24804e-01,4.58291e-01,9.92879e-01,9.33167e-01,9.99999e-01
1.278652054e+00,3.64048e-01,3.94235e-01,9.85887e-01,9.34443e-01,9.99999e-01
1.285045314e+00,1.30032e-02,1.40620e-02,9.74507e-01,9.35695e-01,9.99999e-01
1.291470541e+00,4.50524e-04,4.96117e-04,9.55986e-01,9.36925e-01,9.99998e-01
1.297927893e+00,2.73559e-02,3.02933e-02,9.37935e-01,9.38131e-01,9.99997e-01
1.304417533e+00,2.12078e-01,2.42108e-01,9.27310e-01,9.39315e-01,9.99996e-01
1.310939621e+00,3.75781e-02,4.21010e-02,9.08979e-01,9.40478e-01,9.99994e-01
1.317494319e+00,2.24600e-10,2.52716e-10,9.10630e-01,9.41618e-01,9.99991e-01
1.324081790e+00,2.12457e-07,2.41842e-07,8.68763e-01,9.42738e-01,9.99986e-01
1.330702199e+00,1.69313e-04,2.46886e-04,5.55690e-01,9.43836e-01,9.99977e-01
1.337355710e+00,8.11970e-05,2.20205e-04,2.32176e-01,9.44915e-01,9.99956e-01
1.344042489e+00,1.29229e-05,6.40516e-05,2.31212e-02,9.45973e-01,9.99908e-01
1.350762701e+00,2.52227e-07,1.73508e-04,5.39711e-04,9.47011e-01,9.99853e-01
1.357516515e+00,3.36588e-07,3.58411e-03,3.54246e-05,9.48030e-01,9.99819e-01
1.364304097e+00,5.03323e-05,2.79415e-02,1.17024e-03,9.49030e-01,9.99806e-01
1.371125618e+00,2.13932e-03,1.53023e-01,1.06171e-02,9.50011e-01,9.99804e-01
1.377981246e+00,5.00760e-03,2.18745e-01,2.06240e-02,9.50974e-01,9.99790e-01
1.384871152e+00,5.03046e-04,4.13176e-01,1.10168e-03,9.51919e-01,9.99796e-01
1.391795508e+00,7.71972e-04,4.42087e-01,1.59698e-03,9.52846e-01,9.99827e-01
1.398754485e+00,2.59369e-03,6.04909e-01,4.30607e-03,9.53755e-01,9.99851e-01
1.405748258e+00,2.68157e-03,6.90530e-01,3.82653e-03,9.54647e-01,9.99866e-01
1.412776999e+00,3.35178e-03,7.91730e-01,4.25634e-03,9.55523e-01,9.99892e-01
1.419840884e+00,4.90683e-03,7.18430e-01,6.08067e-03,9.56382e-01,9.99919e-01
1.426940089e+00,5.13747e-03,8.22523e-02,1.84651e-02,9.57225e-01,9.99950e-01
1.434074789e+00,0.00000e+00,0.00000e+00,4.73176e-02,9.58052e-01,9.99968e-01
1.441245163e+00,0.00000e+00,0.00000e+00,9.87581e-02,9.58863e-01,9.99975e-01
1.448451389e+00,0.00000e+00,0.00000e+00,1.91623e-01,9.59659e-01,9.99979e-01
1.455693646e+00,4.03283e-225,7.30133e-225,3.40310e-01,9.60440e-01,9.99983e-01
1.462972114e+00,1.44121e-109,2.60719e-109,3.95528e-01,9.61206e-01,9.99985e-01
1.470286975e+00,1.43807e-46,2.71621e-46,3.38513e-01,9.61957e-01,9.99986e-01
