#,Wave/freq,Total,CO2,H2O,Rayleigh,CIA
4.000000000e-01,6.57179e-09,9.99999e-01,9.99962e-01,6.57203e-09,9.99999e-01
4.020000000e-01,9.53838e-09,9.99999e-01,9.99976e-01,9.53860e-09,9.99999e-01
4.040100000e-01,1.37374e-08,9.99999e-01,9.99989e-01,1.37376e-08,9.99999e-01
4.060300500e-01,1.96429e-08,9.99999e-01,9.99997e-01,1.96429e-08,9.99999e-01
4.080602003e-01,2.78890e-08,9.99999e-01,9.99998e-01,2.78891e-08,9.99999e-01
4.101005013e-01,3.93238e-08,9.99999e-01,9.99999e-01,3.93238e-08,9.99999e-01
4.121510038e-01,5.50717e-08,9.99999e-01,9.99998e-01,5.50718e-08,9.99999e-01
4.142117588e-01,7.66142e-08,9.99999e-01,9.99989e-01,7.66150e-08,9.99999e-01
4.162828176e-01,1.05888e-07,9.99999e-01,9.99953e-01,1.05893e-07,9.99999e-01
4.183642317e-01,1.45422e-07,9.99999e-01,9.99972e-01,1.45426e-07,9.99999e-01
4.204560528e-01,1.98468e-07,9.99999e-01,9.99982e-01,1.98471e-07,9.99999e-01
4.225583331e-01,2.69204e-07,9.99999e-01,9.99993e-01,2.69206e-07,9.99999e-01
4.246711247e-01,3.62956e-07,9.99999e-01,9.99994e-01,3.62958e-07,9.99999e-01
4.267944804e-01,4.86477e-07,9.99999e-01,9.99992e-01,4.86480e-07,9.99999e-01
4.289284528e-01,6.48274e-07,9.99999e-01,9.99993e-01,6.48278e-07,9.99999e-01
4.310730950e-01,8.59000e-07,9.99999e-01,9.99997e-01,8.59002e-07,9.99999e-01
4.332284605e-01,1.13191e-06,9.99999e-01,9.99998e-01,1.13191e-06,9.99999e-01
4.353946028e-01,1.48342e-06,9.99999e-01,9.99999e-01,1.48342e-06,9.99999e-01
4.375715758e-01,1.93373e-06,9.99999e-01,9.99994e-01,1.93373e-06,9.99999e-01
4.397594337e-01,2.50748e-06,9.99999e-01,9.99959e-01,2.50758e-06,9.99999e-01
4.419582309e-01,3.23440e-06,9.99999e-01,9.99794e-01,3.23507e-06,9.99999e-01
4.441680220e-01,4.15200e-06,9.99999e-01,9.99841e-01,4.15266e-06,9.99999e-01
4.463888621e-01,5.30342e-06,9.99999e-01,9.99834e-01,5.30430e-06,9.99999e-01
4.486208064e-01,6.74194e-06,9.99999e-01,9.99897e-01,6.74263e-06,9.99999e-01
4.508639105e-01,8.53006e-06,9.99999e-01,9.99951e-01,8.53047e-06,9.99999e-01
4.531182300e-01,1.07421e-05,9.99999e-01,9.99980e-01,1.07423e-05,9.99999e-01
4.553838212e-01,1.34661e-05,9.99999e-01,9.99986e-01,1.34663e-05,9.99999e-01
4.576607403e-01,1.68056e-05,9.99999e-01,9.99993e-01,1.68057e-05,9.99999e-01
4.599490440e-01,2.08816e-05,9.99999e-01,9.99995e-01,2.08817e-05,9.99999e-01
4.622487892e-01,2.58352e-05,9.99999e-01,9.99998e-01,2.58352e-05,9.99999e-01
4.645600332e-01,3.18296e-05,9.99999e-01,9.99996e-01,3.18297e-05,9.99999e-01
4.668828333e-01,3.90518e-05,9.99999e-01,9.99950e-01,3.90537e-05,9.99999e-01
4.692172475e-01,4.77191e-05,9.99999e-01,9.99895e-01,4.77241e-05,9.99999e-01
4.715633337e-01,5.80850e-05,9.99999e-01,9.99931e-01,5.80889e-05,9.99999e-01
4.739211504e-01,7.04263e-05,9.99999e-01,9.99934e-01,7.04309e-05,9.99999e-01
4.762907561e-01,8.50678e-05,9.99999e-01,9.99965e-01,8.50707e-05,9.99999e-01
4.786722099e-01,1.02370e-04,9.99999e-01,9.99985e-01,1.02371e-04,9.99999e-01
4.810655710e-01,1.22739e-04,9.99999e-01,9.99995e-01,1.22740e-04,9.99999e-01
4.834708988e-01,1.46629e-04,9.99999e-01,9.99959e-01,1.46635e-04,9.99999e-01
4.858882533e-01,1.74555e-04,9.99999e-01,9.99926e-01,1.74568e-04,9.99999e-01
4.883176946e-01,2.07094e-04,9.99999e-01,9.99937e-01,2.07107e-04,9.99999e-01
4.907592831e-01,2.44870e-04,9.99999e-01,9.99944e-01,2.44883e-04,9.99999e-01
4.932130795e-01,2.88582e-04,9.99999e-01,9.99960e-01,2.88593e-04,9.99999e-01
4.956791449e-01,3.38996e-04,9.99999e-01,9.99978e-01,3.39003e-04,9.99999e-01
4.981575406e-01,3.96913e-04,9.99999e-01,9.99894e-01,3.96955e-04,9.99999e-01
5.006483283e-01,4.63240e-04,9.99999e-01,9.99727e-01,4.63366e-04,9.99999e-01
5.031515699e-01,5.38498e-04,9.99999e-01,9.98627e-01,5.39238e-04,9.99999e-01
5.056673278e-01,6.25205e-04,9.99999e-01,9.99276e-01,6.25657e-04,9.99999e-01
5.081956644e-01,7.23137e-04,9.99999e-01,9.99087e-01,7.23796e-04,9.99999e-01
5.107366428e-01,8.34410e-04,9.99999e-01,9.99384e-01,8.34924e-04,9.99999e-01
5.132903260e-01,9.60062e-04,9.99999e-01,9.99648e-01,9.60399e-04,9.99999e-01
5.158567776e-01,1.10152e-03,9.99999e-01,9.99851e-01,1.10168e-03,9.99999e-01
5.184360615e-01,1.26025e-03,9.99999e-01,9.99940e-01,1.26033e-03,9.99999e-01
5.210282418e-01,1.43796e-03,9.99999e-01,9.99977e-01,1.43799e-03,9.99999e-01
5.236333830e-01,1.63628e-03,9.99999e-01,9.99910e-01,1.63643e-03,9.99999e-01
5.262515499e-01,1.85740e-03,9.99999e-01,9.99943e-01,1.85750e-03,9.99999e-01
5.288828077e-01,2.10306e-03,9.99999e-01,9.99948e-01,2.10317e-03,9.99999e-01
5.315272217e-01,2.37539e-03,9.99999e-01,9.99954e-01,2.37550e-03,9.99999e-01
5.341848578e-01,2.67656e-03,9.99999e-01,9.99969e-01,2.67664e-03,9.99999e-01
5.368557821e-01,3.00854e-03,9.99999e-01,9.99895e-01,3.00885e-03,9.99999e-01
5.395400610e-01,3.37322e-03,9.99999e-01,9.99621e-01,3.37450e-03,9.99999e-01
5.422377613e-01,3.77418e-03,9.99999e-01,9.99515e-01,3.77601e-03,9.99999e-01
5.449489501e-01,4.21402e-03,9.99999e-01,9.99547e-01,4.21592e-03,9.99999e-01
5.476736949e-01,4.69498e-03,9.99999e-01,9.99600e-01,4.69685e-03,9.99999e-01
5.504120634e-01,5.21998e-03,9.99999e-01,9.99710e-01,5.22149e-03,9.99999e-01
5.531641237e-01,5.79176e-03,9.99999e-01,9.99853e-01,5.79260e-03,9.99999e-01
5.559299443e-01,6.41257e-03,9.99999e-01,9.99929e-01,6.41302e-03,9.99999e-01
5.587095940e-01,7.08532e-03,9.99999e-01,9.99955e-01,7.08563e-03,9.99999e-01
5.615031420e-01,7.81299e-03,9.99999e-01,9.99950e-01,7.81338e-03,9.99999e-01
5.643106577e-01,8.59876e-03,9.99999e-01,9.99943e-01,8.59925e-03,9.99999e-01
5.671322110e-01,9.43979e-03,9.99999e-01,9.99314e-01,9.44626e-03,9.99999e-01
5.699678720e-01,1.03500e-02,9.99999e-01,9.99282e-01,1.03575e-02,9.99999e-01
5.728177114e-01,1.13274e-02,9.99999e-01,9.99247e-01,1.13359e-02,9.99999e-01
5.756818000e-01,1.23762e-02,9.99999e-01,9.99310e-01,1.23847e-02,9.99999e-01
5.785602090e-01,1.34988e-02,9.99999e-01,9.99399e-01,1.35069e-02,9.99999e-01
5.814530100e-01,1.46967e-02,9.99999e-01,9.99396e-01,1.47056e-02,9.99999e-01
5.843602750e-01,1.59722e-02,9.99999e-01,9.99277e-01,1.59838e-02,9.99999e-01
5.872820764e-01,1.72368e-02,9.99999e-01,9.93791e-01,1.73445e-02,9.99999e-01
5.902184868e-01,1.86501e-02,9.99999e-01,9.92516e-01,1.87907e-02,9.99999e-01
5.931695792e-01,2.02176e-02,9.99999e-01,9.94701e-01,2.03253e-02,9.99999e-01
5.961354271e-01,2.18238e-02,9.99999e-01,9.94198e-01,2.19511e-02,9.99999e-01
5.991161043e-01,2.35709e-02,9.99999e-01,9.95768e-01,2.36710e-02,9.99999e-01
6.021116848e-01,2.54265e-02,9.99999e-01,9.97598e-01,2.54877e-02,9.99999e-01
6.051222432e-01,2.73704e-02,9.99999e-01,9.98784e-01,2.74037e-02,9.99999e-01
6.081478544e-01,2.94062e-02,9.99999e-01,9.99475e-01,2.94216e-02,9.99999e-01
6.111885937e-01,3.15368e-02,9.99999e-01,9.99778e-01,3.15438e-02,9.99999e-01
6.142445367e-01,3.37692e-02,9.99999e-01,9.99900e-01,3.37726e-02,9.99999e-01
6.173157594e-01,3.61081e-02,9.99999e-01,9.99944e-01,3.61101e-02,9.99999e-01
6.204023382e-01,3.85566e-02,9.99999e-01,9.99953e-01,3.85584e-02,9.99999e-01
6.235043498e-01,4.11109e-02,9.99999e-01,9.99793e-01,4.11194e-02,9.99999e-01
6.266218716e-01,4.37475e-02,9.99999e-01,9.98919e-01,4.37948e-02,9.99999e-01
6.297549810e-01,4.65678e-02,9.99999e-01,9.99603e-01,4.65863e-02,9.99999e-01
6.329037559e-01,4.94565e-02,9.99999e-01,9.99217e-01,4.94952e-02,9.99999e-01
6.360682746e-01,5.24878e-02,9.99999e-01,9.99332e-01,5.25229e-02,9.99999e-01
6.392486160e-01,5.56224e-02,9.99999e-01,9.99135e-01,5.56705e-02,9.99999e-01
6.424448591e-01,5.88704e-02,9.99999e-01,9.98837e-01,5.89389e-02,9.99999e-01
6.456570834e-01,6.19933e-02,9.99999e-01,9.94615e-01,6.23289e-02,9.99999e-01
6.488853688e-01,6.55830e-02,9.99999e-01,9.96079e-01,6.58411e-02,9.99999e-01
6.521297956e-01,6.91984e-02,9.99999e-01,9.96004e-01,6.94760e-02,9.99999e-01
6.553904446e-01,7.29418e-02,9.99999e-01,9.96011e-01,7.32338e-02,9.99999e-01
6.586673968e-01,7.68518e-02,9.99999e-01,9.96591e-01,7.71146e-02,9.99999e-01
6.619607338e-01,8.09641e-02,9.99999e-01,9.98099e-01,8.11182e-02,9.99999e-01
6.652705375e-01,8.51472e-02,9.99999e-01,9.98859e-01,8.52444e-02,9.99999e-01
6.685968902e-01,8.94494e-02,9.99999e-01,9.99514e-01,8.94927e-02,9.99999e-01
6.719398746e-01,9.38396e-02,9.99999e-01,9.99754e-01,9.38626e-02,9.99999e-01
6.752995740e-01,9.83401e-02,9.99999e-01,9.99866e-01,9.83532e-02,9.99999e-01
6.786760719e-01,1.02944e-01,9.99999e-01,9.99806e-01,1.02963e-01,9.99999e-01
6.820694522e-01,1.07657e-01,9.99999e-01,9.99669e-01,1.07692e-01,9.99999e-01
6.854797995e-01,1.12491e-01,9.99999e-01,9.99574e-01,1.12539e-01,9.99999e-01
6.889071985e-01,1.17379e-01,9.99999e-01,9.98961e-01,1.17501e-01,9.99999e-01
6.923517345e-01,1.20525e-01,9.99999e-01,9.83253e-01,1.22577e-01,9.99999e-01
6.958134932e-01,1.26662e-01,9.99999e-01,9.91360e-01,1.27766e-01,9.99999e-01
6.992925606e-01,1.31961e-01,9.99999e-01,9.91694e-01,1.33066e-01,9.99999e-01
7.027890234e-01,1.37061e-01,9.99999e-01,9.89797e-01,1.38474e-01,9.99999e-01
7.063029686e-01,1.42752e-01,9.99999e-01,9.91411e-01,1.43989e-01,9.99999e-01
7.098344834e-01,1.48375e-01,9.99999e-01,9.91757e-01,1.49608e-01,9.99999e-01
7.133836558e-01,1.53613e-01,9.99999e-01,9.88959e-01,1.55328e-01,9.99999e-01
7.169505741e-01,1.47456e-01,9.99999e-01,9.15031e-01,1.61148e-01,9.99998e-01
7.205353270e-01,1.60024e-01,9.99999e-01,9.57860e-01,1.67065e-01,9.99998e-01
7.241380036e-01,1.63782e-01,9.99999e-01,9.46304e-01,1.73075e-01,9.99998e-01
7.277586936e-01,1.70477e-01,9.99999e-01,9.51447e-01,1.79177e-01,9.99998e-01
7.313974871e-01,1.75834e-01,9.99999e-01,9.48578e-01,1.85366e-01,9.99998e-01
7.350544745e-01,1.86188e-01,9.99999e-01,9.71542e-01,1.91641e-01,9.99999e-01
7.387297469e-01,1.93837e-01,9.99999e-01,9.78982e-01,1.97998e-01,9.99999e-01
7.424233956e-01,2.02324e-01,9.99999e-01,9.89674e-01,2.04435e-01,9.99999e-01
7.461355126e-01,2.09623e-01,9.99999e-01,9.93725e-01,2.10947e-01,9.99999e-01
7.498661902e-01,2.16896e-01,9.99999e-01,9.97078e-01,2.17531e-01,9.99999e-01
7.536155211e-01,2.23864e-01,9.99999e-01,9.98563e-01,2.24185e-01,9.99999e-01
7.573835987e-01,2.30735e-01,9.99999e-01,9.99260e-01,2.30906e-01,9.99999e-01
7.611705167e-01,2.37579e-01,9.99999e-01,9.99540e-01,2.37688e-01,9.99999e-01
7.649763693e-01,2.44460e-01,9.99999e-01,9.99711e-01,2.44531e-01,9.99999e-01
7.688012511e-01,2.51379e-01,9.99999e-01,9.99798e-01,2.51429e-01,9.99999e-01
7.726452574e-01,2.58337e-01,9.99999e-01,9.99834e-01,2.58380e-01,9.99999e-01
7.765084837e-01,2.65317e-01,9.99999e-01,9.99763e-01,2.65380e-01,9.99999e-01
7.803910261e-01,2.56461e-01,9.42306e-01,9.98980e-01,2.72426e-01,9.99999e-01
7.842929812e-01,2.13200e-01,7.65258e-01,9.96443e-01,2.79514e-01,9.99999e-01
7.882144461e-01,2.13887e-01,7.51293e-01,9.92718e-01,2.86641e-01,9.99999e-01
7.921555184e-01,2.46778e-01,8.43165e-01,9.96013e-01,2.93804e-01,9.99999e-01
7.961162960e-01,2.66634e-01,8.92047e-01,9.92919e-01,3.00998e-01,9.99999e-01
8.000968774e-01,2.87336e-01,9.39856e-01,9.91848e-01,3.08222e-01,9.99999e-01
8.040973618e-01,3.03029e-01,9.68433e-01,9.91840e-01,3.15471e-01,9.99999e-01
8.081178486e-01,3.12189e-01,9.85345e-01,9.81640e-01,3.22743e-01,9.99999e-01
8.121584379e-01,3.04195e-01,9.95476e-01,9.25823e-01,3.30034e-01,9.99998e-01
8.162192301e-01,3.07714e-01,9.98999e-01,9.13061e-01,3.37340e-01,9.99998e-01
8.203003262e-01,3.29336e-01,9.99985e-01,9.55553e-01,3.44659e-01,9.99998e-01
8.244018279e-01,3.30645e-01,9.99999e-01,9.39367e-01,3.51988e-01,9.99998e-01
8.285238370e-01,3.40257e-01,9.99999e-01,9.46939e-01,3.59323e-01,9.99998e-01
8.326664562e-01,3.47051e-01,9.99999e-01,9.46516e-01,3.66661e-01,9.99998e-01
8.368297885e-01,3.59598e-01,9.99999e-01,9.61490e-01,3.74000e-01,9.99999e-01
8.410139374e-01,3.72544e-01,9.99999e-01,9.76941e-01,3.81337e-01,9.99999e-01
8.452190071e-01,3.84251e-01,9.99999e-01,9.88634e-01,3.88668e-01,9.99999e-01
8.494451021e-01,3.93369e-01,9.99999e-01,9.93378e-01,3.95991e-01,9.99999e-01
8.536923276e-01,4.01726e-01,9.99999e-01,9.96087e-01,4.03304e-01,9.99999e-01
8.579607893e-01,4.09611e-01,9.99999e-01,9.97584e-01,4.10603e-01,9.99999e-01
8.622505932e-01,4.17246e-01,9.99999e-01,9.98467e-01,4.17886e-01,9.99999e-01
8.665618462e-01,3.80203e-01,8.95083e-01,9.99049e-01,4.25151e-01,9.99999e-01
8.708946554e-01,2.20806e-01,5.11183e-01,9.98910e-01,4.32394e-01,9.99999e-01
8.752491287e-01,2.53918e-01,5.78394e-01,9.98543e-01,4.39615e-01,9.99999e-01
8.796253743e-01,3.28961e-01,7.37658e-01,9.97980e-01,4.46810e-01,9.99999e-01
8.840235012e-01,3.86374e-01,8.53003e-01,9.97694e-01,4.53977e-01,9.99999e-01
8.884436187e-01,4.29493e-01,9.39235e-01,9.91539e-01,4.61114e-01,9.99999e-01
8.928858368e-01,4.17855e-01,9.74883e-01,9.15065e-01,4.68218e-01,9.99998e-01
8.973502660e-01,4.04229e-01,9.93862e-01,8.55553e-01,4.75289e-01,9.99997e-01
9.018370173e-01,4.45266e-01,9.99322e-01,9.23762e-01,4.82324e-01,9.99997e-01
9.063462024e-01,4.48503e-01,9.82539e-01,9.31963e-01,4.89321e-01,9.99996e-01
9.108779334e-01,4.27639e-01,9.60637e-01,8.96226e-01,4.96278e-01,9.99996e-01
9.154323231e-01,4.40313e-01,9.90671e-01,8.82967e-01,5.03194e-01,9.99996e-01
9.200094847e-01,4.09333e-01,8.77022e-01,9.07333e-01,5.10066e-01,9.99995e-01
9.246095321e-01,3.67116e-01,8.21833e-01,8.59261e-01,5.16894e-01,9.99992e-01
9.292325798e-01,1.71808e-01,8.57683e-01,3.73196e-01,5.23676e-01,9.99985e-01
9.338787427e-01,1.32680e-01,8.62167e-01,2.83525e-01,5.30410e-01,9.99980e-01
9.385481364e-01,2.91783e-01,8.96391e-01,5.99948e-01,5.37095e-01,9.99980e-01
9.432408771e-01,2.53797e-01,9.35196e-01,4.96204e-01,5.43730e-01,9.99977e-01
9.479570815e-01,2.04359e-01,9.66159e-01,3.83239e-01,5.50314e-01,9.99980e-01
9.526968669e-01,2.64331e-01,9.83565e-01,4.81564e-01,5.56845e-01,9.99985e-01
9.574603512e-01,2.81556e-01,9.92940e-01,5.02975e-01,5.63322e-01,9.99988e-01
9.622476530e-01,3.23883e-01,9.97794e-01,5.69603e-01,5.69744e-01,9.99992e-01
9.670588912e-01,4.15581e-01,9.99339e-01,7.21795e-01,5.76110e-01,9.99995e-01
9.718941857e-01,4.73961e-01,9.99953e-01,8.13814e-01,5.82420e-01,9.99996e-01
9.767536566e-01,4.96065e-01,9.99999e-01,8.42687e-01,5.88672e-01,9.99997e-01
9.816374249e-01,5.23975e-01,9.99999e-01,8.80830e-01,5.94866e-01,9.99998e-01
9.865456120e-01,5.55156e-01,9.99999e-01,9.23720e-01,6.01000e-01,9.99998e-01
9.914783401e-01,5.77991e-01,9.99999e-01,9.52091e-01,6.07075e-01,9.99999e-01
9.964357318e-01,5.96919e-01,9.99999e-01,9.73623e-01,6.13089e-01,9.99999e-01
1.001417910e+00,6.09206e-01,9.99999e-01,9.84109e-01,6.19043e-01,9.99999e-01
1.006425000e+00,6.19249e-01,9.99999e-01,9.90901e-01,6.24935e-01,9.99999e-01
1.011457125e+00,6.27202e-01,9.99999e-01,9.94351e-01,6.30765e-01,9.99999e-01
1.016514411e+00,6.34088e-01,9.99999e-01,9.96159e-01,6.36533e-01,9.99999e-01
1.021596983e+00,6.40207e-01,9.99898e-01,9.96937e-01,6.42238e-01,9.99999e-01
1.026704968e+00,6.41882e-01,9.93109e-01,9.97610e-01,6.47879e-01,9.99999e-01
1.031838492e+00,6.07632e-01,9.31417e-01,9.98264e-01,6.53458e-01,9.99999e-01
1.036997685e+00,5.73374e-02,8.70792e-02,9.98967e-01,6.58973e-01,9.99999e-01
1.042182673e+00,1.79159e-02,2.69921e-02,9.98766e-01,6.64424e-01,9.99999e-01
1.047393587e+00,3.05720e-02,4.57068e-02,9.98366e-01,6.69811e-01,9.99999e-01
1.052630555e+00,8.67495e-05,1.28687e-04,9.97757e-01,6.75135e-01,9.99999e-01
1.057893707e+00,2.95430e-04,4.35164e-04,9.96255e-01,6.80394e-01,9.99999e-01
1.063183176e+00,2.13696e-03,3.12929e-03,9.93848e-01,6.85589e-01,9.99999e-01
1.068499092e+00,1.05104e-02,1.53365e-02,9.89727e-01,6.90720e-01,9.99999e-01
1.073841587e+00,4.84141e-02,7.02497e-02,9.87978e-01,6.95786e-01,9.99999e-01
1.079210795e+00,1.28947e-01,1.86452e-01,9.84644e-01,7.00789e-01,9.99999e-01
1.084606849e+00,2.70857e-01,3.92190e-01,9.76828e-01,7.05728e-01,9.99998e-01
1.090029883e+00,4.22335e-01,6.13744e-01,9.66792e-01,7.10603e-01,9.99998e-01
1.095480033e+00,5.13879e-01,7.86052e-01,9.12192e-01,7.15415e-01,9.99997e-01
1.100957433e+00,5.09150e-01,8.90250e-01,7.92433e-01,7.20163e-01,9.99995e-01
1.106462220e+00,3.86895e-01,9.53073e-01,5.58396e-01,7.24848e-01,9.99990e-01
1.111994531e+00,2.14946e-01,9.82334e-01,2.99335e-01,7.29470e-01,9.99982e-01
1.117554504e+00,1.07147e-01,9.95671e-01,1.46427e-01,7.34029e-01,9.99974e-01
1.123142276e+00,1.89969e-01,9.99716e-01,2.57255e-01,7.38526e-01,9.99970e-01
1.128757988e+00,3.00342e-01,9.99999e-01,4.04263e-01,7.42961e-01,9.99967e-01
1.134401778e+00,1.46269e-01,9.99999e-01,1.95728e-01,7.47334e-01,9.99964e-01
1.140073787e+00,4.32111e-01,9.99999e-01,5.74903e-01,7.51645e-01,9.99970e-01
1.145774156e+00,2.46673e-01,9.99999e-01,3.26339e-01,7.55896e-01,9.99975e-01
1.151503026e+00,2.20399e-01,9.99999e-01,2.89972e-01,7.60086e-01,9.99978e-01
1.157260541e+00,2.62159e-01,9.99999e-01,3.43048e-01,7.64216e-01,9.99983e-01
1.163046844e+00,3.47188e-01,9.99999e-01,4.51903e-01,7.68286e-01,9.99989e-01
1.168862078e+00,4.41542e-01,9.99999e-01,5.71729e-01,7.72296e-01,9.99994e-01
1.174706389e+00,5.49504e-01,9.99999e-01,7.07898e-01,7.76248e-01,9.99996e-01
1.180579921e+00,6.31866e-01,9.99999e-01,8.09938e-01,7.80141e-01,9.99997e-01
1.186482820e+00,6.95675e-01,9.99985e-01,8.87379e-01,7.83977e-01,9.99998e-01
1.192415234e+00,7.17256e-01,9.75877e-01,9.32556e-01,7.87754e-01,9.99998e-01
1.198377311e+00,4.08705e-01,5.42373e-01,9.42808e-01,7.91475e-01,9.99998e-01
1.204369197e+00,1.32998e-18,1.72735e-18,9.45882e-01,7.95140e-01,9.99998e-01
1.210391043e+00,1.85763e-72,2.39552e-72,9.48157e-01,7.98748e-01,9.99998e-01
1.216442998e+00,7.93357e-63,1.01697e-62,9.55775e-01,8.02301e-01,9.99999e-01
1.222525213e+00,6.81057e-62,8.60686e-62,9.65365e-01,8.05800e-01,9.99999e-01
1.228637839e+00,6.98558e-48,8.77698e-48,9.75811e-01,8.09244e-01,9.99999e-01
1.234781029e+00,3.48725e-30,4.32513e-30,9.81995e-01,8.12634e-01,9.99999e-01
1.240954934e+00,3.44335e-20,4.25058e-20,9.88573e-01,8.15971e-01,9.99999e-01
1.247159708e+00,2.81821e-10,3.45817e-10,9.91094e-01,8.19256e-01,9.99999e-01
1.253395507e+00,7.09601e-07,8.67678e-07,9.92084e-01,8.22488e-01,9.99999e-01
1.259662485e+00,2.77678e-04,3.38220e-04,9.92470e-01,8.25669e-01,9.99999e-01
1.265960797e+00,8.88788e-03,1.08151e-02,9.88008e-01,8.28799e-01,9.99999e-01
1.272290601e+00,1.09419e-01,1.33701e-01,9.81192e-01,8.31879e-01,9.99999e-01
1.278652054e+00,9.22511e-02,1.13529e-01,9.62978e-01,8.34909e-01,9.99998e-01
1.285045314e+00,5.37422e-04,6.59706e-04,9.33873e-01,8.37890e-01,9.99998e-01
1.291470541e+00,4.77241e-09,6.08931e-09,8.87658e-01,8.40822e-01,9.99997e-01
1.297927893e+00,6.71947e-04,8.57827e-04,8.44231e-01,8.43707e-01,9.99995e-01
1.304417533e+00,1.79326e-02,2.50109e-02,8.19590e-01,8.46544e-01,9.99992e-01
1.310939621e+00,3.08074e-03,4.12907e-03,7.77705e-01,8.49334e-01,9.99986e-01
1.317494319e+00,1.87708e-25,2.53022e-25,7.81522e-01,8.52078e-01,9.99977e-01
1.324081790e+00,7.07595e-17,9.79818e-17,6.92638e-01,8.54776e-01,9.99964e-01
1.330702199e+00,3.14812e-10,6.58524e-10,2.78201e-01,8.57430e-01,9.99940e-01
1.337355710e+00,2.12016e-10,2.62192e-09,3.09293e-02,8.60039e-01,9.99886e-01
1.344042489e+00,2.77875e-11,1.02461e-09,1.02304e-03,8.62604e-01,9.99757e-01
1.350762701e+00,8.43232e-17,3.62880e-10,4.06154e-08,8.65126e-01,9.99612e-01
1.357516515e+00,2.26449e-16,1.54701e-06,1.47241e-11,8.67605e-01,9.99520e-01
1.364304097e+00,6.02981e-11,1.03120e-04,1.87301e-07,8.70042e-01,9.99485e-01
1.371125618e+00,7.53088e-07,8.97199e-03,4.23430e-05,8.72438e-01,9.99481e-01
1.377981246e+00,3.83734e-06,1.85123e-02,1.32899e-04,8.74793e-01,9.99442e-01
1.384871152e+00,1.39458e-07,9.80479e-02,1.06941e-06,8.77107e-01,9.99458e-01
1.391795508e+00,3.57230e-08,1.17196e-01,2.11625e-07,8.79382e-01,9.99540e-01
1.398754485e+00,1.21698e-06,2.63130e-01,4.50421e-06,8.81618e-01,9.99605e-01
1.405748258e+00,1.72121e-06,3.76278e-01,4.32910e-06,8.83814e-01,9.99646e-01
1.412776999e+00,2.40345e-06,5.38187e-01,4.24164e-06,8.85973e-01,9.99715e-01
1.419840884e+00,5.08941e-06,4.81227e-01,8.84525e-06,8.88094e-01,9.99787e-01
1.426940089e+00,5.22561e-05,2.72660e-02,1.56169e-04,8.90179e-01,9.99868e-01
1.434074789e+00,0.00000e+00,0.00000e+00,1.02329e-03,8.92227e-01,9.99917e-01
1.441245163e+00,0.00000e+00,0.00000e+00,3.86135e-03,8.94239e-01,9.99935e-01
1.448451389e+00,0.00000e+00,0.00000e+00,2.09916e-02,8.96215e-01,9.99946e-01
1.455693646e+00,0.00000e+00,0.00000e+00,7.20726e-02,8.98157e-01,9.99955e-01
1.462972114e+00,8.24273e-288,3.99120e-287,9.79091e-02,9.00065e-01,9.99962e-01
1.470286975e+00,3.53267e-120,1.91822e-119,6.77859e-02,9.01938e-01,9.99966e-01
