#,Wave/freq,Total,CO2,H2O,Rayleigh,CIA
4.000000000e-01,3.07280e-06,9.99999e-01,9.99974e-01,3.07287e-06,9.99999e-01
4.020000000e-01,3.94946e-06,9.99999e-01,9.99984e-01,3.94952e-06,9.99999e-01
4.040100000e-01,5.04979e-06,9.99999e-01,9.99992e-01,5.04982e-06,9.99999e-01
4.060300500e-01,6.42538e-06,9.99999e-01,9.99997e-01,6.42539e-06,9.99999e-01
4.080602003e-01,8.13684e-06,9.99999e-01,9.99999e-01,8.13685e-06,9.99999e-01
4.101005013e-01,1.02562e-05,9.99999e-01,9.99999e-01,1.02562e-05,9.99999e-01
4.121510038e-01,1.28686e-05,9.99999e-01,9.99998e-01,1.28686e-05,9.99999e-01
4.142117588e-01,1.60742e-05,9.99999e-01,9.99992e-01,1.60743e-05,9.99999e-01
4.162828176e-01,1.99898e-05,9.99999e-01,9.99968e-01,1.99904e-05,9.99999e-01
4.183642317e-01,2.47534e-05,9.99999e-01,9.99981e-01,2.47538e-05,9.99999e-01
4.204560528e-01,3.05228e-05,9.99999e-01,9.99988e-01,3.05232e-05,9.99999e-01
4.225583331e-01,3.74815e-05,9.99999e-01,9.99995e-01,3.74817e-05,9.99999e-01
4.246711247e-01,4.58401e-05,9.99999e-01,9.99996e-01,4.58403e-05,9.99999e-01
4.267944804e-01,5.58401e-05,9.99999e-01,9.99994e-01,5.58404e-05,9.99999e-01
4.289284528e-01,6.77572e-05,9.99999e-01,9.99995e-01,6.77574e-05,9.99999e-01
4.310730950e-01,8.19040e-05,9.99999e-01,9.99997e-01,8.19041e-05,9.99999e-01
4.332284605e-01,9.86343e-05,9.99999e-01,9.99999e-01,9.86343e-05,9.99999e-01
4.353946028e-01,1.18347e-04,9.99999e-01,9.99999e-01,1.18347e-04,9.99999e-01
4.375715758e-01,1.41488e-04,9.99999e-01,9.99996e-01,1.41488e-04,9.99999e-01
4.397594337e-01,1.68555e-04,9.99999e-01,9.99972e-01,1.68560e-04,9.99999e-01
4.419582309e-01,2.00090e-04,9.99999e-01,9.99864e-01,2.00117e-04,9.99999e-01
4.441680220e-01,2.36754e-04,9.99999e-01,9.99891e-01,2.36779e-04,9.99999e-01
4.463888621e-01,2.79197e-04,9.99999e-01,9.99888e-01,2.79228e-04,9.99999e-01
4.486208064e-01,3.28193e-04,9.99999e-01,9.99929e-01,3.28216e-04,9.99999e-01
4.508639105e-01,3.84557e-04,9.99999e-01,9.99966e-01,3.84569e-04,9.99999e-01
4.531182300e-01,4.49184e-04,9.99999e-01,9.99986e-01,4.49190e-04,9.99999e-01
4.553838212e-01,5.23057e-04,9.99999e-01,9.99990e-01,5.23061e-04,9.99999e-01
4.576607403e-01,6.07250e-04,9.99999e-01,9.99995e-01,6.07253e-04,9.99999e-01
4.599490440e-01,7.02918e-04,9.99999e-01,9.99996e-01,7.02920e-04,9.99999e-01
4.622487892e-01,8.11310e-04,9.99999e-01,9.99999e-01,8.11311e-04,9.99999e-01
4.645600332e-01,9.33765e-04,9.99999e-01,9.99997e-01,9.33767e-04,9.99999e-01
4.668828333e-01,1.07169e-03,9.99999e-01,9.99967e-01,1.07173e-03,9.99999e-01
4.692172475e-01,1.22664e-03,9.99999e-01,9.99929e-01,1.22672e-03,9.99999e-01
4.715633337e-01,1.40033e-03,9.99999e-01,9.99953e-01,1.40040e-03,9.99999e-01
4.739211504e-01,1.59441e-03,9.99999e-01,9.99955e-01,1.59448e-03,9.99999e-01
4.762907561e-01,1.81078e-03,9.99999e-01,9.99976e-01,1.81082e-03,9.99999e-01
4.786722099e-01,2.05133e-03,9.99999e-01,9.99990e-01,2.05135e-03,9.99999e-01
4.810655710e-01,2.31810e-03,9.99999e-01,9.99996e-01,2.31810e-03,9.99999e-01
4.834708988e-01,2.61316e-03,9.99999e-01,9.99973e-01,2.61323e-03,9.99999e-01
4.858882533e-01,2.93882e-03,9.99999e-01,9.99949e-01,2.93897e-03,9.99999e-01
4.883176946e-01,3.29751e-03,9.99999e-01,9.99958e-01,3.29765e-03,9.99999e-01
4.907592831e-01,3.69156e-03,9.99999e-01,9.99961e-01,3.69170e-03,9.99999e-01
4.932130795e-01,4.12352e-03,9.99999e-01,9.99972e-01,4.12363e-03,9.99999e-01
4.956791449e-01,4.59597e-03,9.99999e-01,9.99985e-01,4.59604e-03,9.99999e-01
4.981575406e-01,5.11125e-03,9.99999e-01,9.99929e-01,5.11160e-03,9.99999e-01
5.006483283e-01,5.67206e-03,9.99999e-01,9.99819e-01,5.67308e-03,9.99999e-01
5.031515699e-01,6.27749e-03,9.99999e-01,9.99078e-01,6.28328e-03,9.99999e-01
5.056673278e-01,6.94170e-03,9.99999e-01,9.99511e-01,6.94509e-03,9.99999e-01
5.081956644e-01,7.65671e-03,9.99999e-01,9.99383e-01,7.66143e-03,9.99999e-01
5.107366428e-01,8.43178e-03,9.99999e-01,9.99583e-01,8.43529e-03,9.99999e-01
5.132903260e-01,9.26747e-03,9.99999e-01,9.99761e-01,9.26968e-03,9.99999e-01
5.158567776e-01,1.01666e-02,9.99999e-01,9.99898e-01,1.01676e-02,9.99999e-01
5.184360615e-01,1.11318e-02,9.99999e-01,9.99959e-01,1.11322e-02,9.99999e-01
5.210282418e-01,1.21664e-02,9.99999e-01,9.99984e-01,1.21665e-02,9.99999e-01
5.236333830e-01,1.32728e-02,9.99999e-01,9.99939e-01,1.32736e-02,9.99999e-01
5.262515499e-01,1.44560e-02,9.99999e-01,9.99961e-01,1.44566e-02,9.99999e-01
5.288828077e-01,1.57179e-02,9.99999e-01,9.99965e-01,1.57184e-02,9.99999e-01
5.315272217e-01,1.70617e-02,9.99999e-01,9.99969e-01,1.70622e-02,9.99999e-01
5.341848578e-01,1.84904e-02,9.99999e-01,9.99979e-01,1.84908e-02,9.99999e-01
5.368557821e-01,2.00059e-02,9.99999e-01,9.99929e-01,2.00073e-02,9.99999e-01
5.395400610e-01,2.16090e-02,9.99999e-01,9.99749e-01,2.16144e-02,9.99999e-01
5.422377613e-01,2.33074e-02,9.99999e-01,9.99671e-01,2.33151e-02,9.99999e-01
5.449489501e-01,2.51043e-02,9.99999e-01,9.99697e-01,2.51119e-02,9.99999e-01
5.476736949e-01,2.70003e-02,9.99999e-01,9.99729e-01,2.70076e-02,9.99999e-01
5.504120634e-01,2.89990e-02,9.99999e-01,9.99803e-01,2.90047e-02,9.99999e-01
5.531641237e-01,3.11025e-02,9.99999e-01,9.99900e-01,3.11056e-02,9.99999e-01
5.559299443e-01,3.33110e-02,9.99999e-01,9.99951e-01,3.33126e-02,9.99999e-01
5.587095940e-01,3.56269e-02,9.99999e-01,9.99969e-01,3.56279e-02,9.99999e-01
5.615031420e-01,3.80524e-02,9.99999e-01,9.99966e-01,3.80536e-02,9.99999e-01
5.643106577e-01,4.05902e-02,9.99999e-01,9.99962e-01,4.05917e-02,9.99999e-01
5.671322110e-01,4.32245e-02,9.99999e-01,9.99552e-01,4.32438e-02,9.99999e-01
5.699678720e-01,4.59891e-02,9.99999e-01,9.99509e-01,4.60116e-02,9.99999e-01
5.728177114e-01,4.88720e-02,9.99999e-01,9.99495e-01,4.88967e-02,9.99999e-01
5.756818000e-01,5.18761e-02,9.99999e-01,9.99535e-01,5.19002e-02,9.99999e-01
5.785602090e-01,5.50011e-02,9.99999e-01,9.99594e-01,5.50235e-02,9.99999e-01
5.814530100e-01,5.82437e-02,9.99999e-01,9.99593e-01,5.82673e-02,9.99999e-01
5.843602750e-01,6.16031e-02,9.99999e-01,9.99519e-01,6.16327e-02,9.99999e-01
5.872820764e-01,6.48506e-02,9.99999e-01,9.95860e-01,6.51201e-02,9.99999e-01
5.902184868e-01,6.83820e-02,9.99999e-01,9.94934e-01,6.87302e-02,9.99999e-01
5.931695792e-01,7.22045e-02,9.99999e-01,9.96432e-01,7.24630e-02,9.99999e-01
5.961354271e-01,7.60197e-02,9.99999e-01,9.96079e-01,7.63189e-02,9.99999e-01
5.991161043e-01,8.00677e-02,9.99999e-01,9.97135e-01,8.02976e-02,9.99999e-01
6.021116848e-01,8.42617e-02,9.99999e-01,9.98371e-01,8.43991e-02,9.99999e-01
6.051222432e-01,8.85497e-02,9.99999e-01,9.99175e-01,8.86227e-02,9.99999e-01
6.081478544e-01,9.29350e-02,9.99999e-01,9.99644e-01,9.29680e-02,9.99999e-01
6.111885937e-01,9.74196e-02,9.99999e-01,9.99848e-01,9.74343e-02,9.99999e-01
6.142445367e-01,1.02014e-01,9.99999e-01,9.99932e-01,1.02020e-01,9.99999e-01
6.173157594e-01,1.06722e-01,9.99999e-01,9.99962e-01,1.06725e-01,9.99999e-01
6.204023382e-01,1.11545e-01,9.99999e-01,9.99968e-01,1.11548e-01,9.99999e-01
6.235043498e-01,1.16471e-01,9.99999e-01,9.99864e-01,1.16487e-01,9.99999e-01
6.266218716e-01,1.21452e-01,9.99999e-01,9.99272e-01,1.21540e-01,9.99999e-01
6.297549810e-01,1.26673e-01,9.99999e-01,9.99732e-01,1.26707e-01,9.99999e-01
6.329037559e-01,1.31914e-01,9.99999e-01,9.99470e-01,1.31984e-01,9.99999e-01
6.360682746e-01,1.37309e-01,9.99999e-01,9.99551e-01,1.37370e-01,9.99999e-01
6.392486160e-01,1.42781e-01,9.99999e-01,9.99417e-01,1.42864e-01,9.99999e-01
6.424448591e-01,1.48358e-01,9.99999e-01,9.99302e-01,1.48462e-01,9.99999e-01
6.456570834e-01,1.53614e-01,9.99999e-01,9.96445e-01,1.54162e-01,9.99999e-01
6.488853688e-01,1.59463e-01,9.99999e-01,9.96880e-01,1.59962e-01,9.99999e-01
6.521297956e-01,1.65410e-01,9.99999e-01,9.97294e-01,1.65859e-01,9.99999e-01
6.553904446e-01,1.71392e-01,9.99999e-01,9.97330e-01,1.71851e-01,9.99999e-01
6.586673968e-01,1.77523e-01,9.99999e-01,9.97689e-01,1.77934e-01,9.99999e-01
6.619607338e-01,1.83860e-01,9.99999e-01,9.98664e-01,1.84106e-01,9.99999e-01
6.652705375e-01,1.90216e-01,9.99999e-01,9.99224e-01,1.90364e-01,9.99999e-01
6.685968902e-01,1.96634e-01,9.99999e-01,9.99639e-01,1.96705e-01,9.99999e-01
6.719398746e-01,2.03091e-01,9.99999e-01,9.99832e-01,2.03125e-01,9.99999e-01
6.752995740e-01,2.09603e-01,9.99999e-01,9.99909e-01,2.09622e-01,9.99999e-01
6.786760719e-01,2.16164e-01,9.99999e-01,9.99870e-01,2.16192e-01,9.99999e-01
6.820694522e-01,2.22783e-01,9.99999e-01,9.99778e-01,2.22833e-01,9.99999e-01
6.854797995e-01,2.29474e-01,9.99999e-01,9.99714e-01,2.29540e-01,9.99999e-01
6.889071985e-01,2.36150e-01,9.99999e-01,9.99320e-01,2.36310e-01,9.99999e-01
6.923517345e-01,2.40418e-01,9.99999e-01,9.88801e-01,2.43141e-01,9.99999e-01
6.958134932e-01,2.48537e-01,9.99999e-01,9.94035e-01,2.50028e-01,9.99999e-01
6.992925606e-01,2.55543e-01,9.99999e-01,9.94453e-01,2.56968e-01,9.99999e-01
7.027890234e-01,2.62136e-01,9.99999e-01,9.93094e-01,2.63959e-01,9.99999e-01
7.063029686e-01,2.69423e-01,9.99999e-01,9.94197e-01,2.70996e-01,9.99999e-01
7.098344834e-01,2.76527e-01,9.99999e-01,9.94432e-01,2.78075e-01,9.99999e-01
7.133836558e-01,2.83111e-01,9.99999e-01,9.92691e-01,2.85195e-01,9.99999e-01
7.169505741e-01,2.75465e-01,9.99999e-01,9.42242e-01,2.92351e-01,9.99998e-01
7.205353270e-01,2.90772e-01,9.99999e-01,9.70730e-01,2.99539e-01,9.99998e-01
7.241380036e-01,2.95587e-01,9.99999e-01,9.63585e-01,3.06757e-01,9.99998e-01
7.277586936e-01,3.03655e-01,9.99999e-01,9.67047e-01,3.14002e-01,9.99998e-01
7.313974871e-01,3.09944e-01,9.99999e-01,9.64747e-01,3.21269e-01,9.99999e-01
7.350544745e-01,3.22193e-01,9.99999e-01,9.80633e-01,3.28556e-01,9.99999e-01
7.387297469e-01,3.31058e-01,9.99999e-01,9.85703e-01,3.35860e-01,9.99999e-01
7.424233956e-01,3.40761e-01,9.99999e-01,9.92962e-01,3.43176e-01,9.99999e-01
7.461355126e-01,3.49010e-01,9.99999e-01,9.95738e-01,3.50503e-01,9.99999e-01
7.498661902e-01,3.57125e-01,9.99999e-01,9.98008e-01,3.57837e-01,9.99999e-01
7.536155211e-01,3.64820e-01,9.99999e-01,9.99025e-01,3.65175e-01,9.99999e-01
7.573835987e-01,3.72327e-01,9.99999e-01,9.99497e-01,3.72514e-01,9.99999e-01
7.611705167e-01,3.79733e-01,9.99999e-01,9.99687e-01,3.79852e-01,9.99999e-01
7.649763693e-01,3.87109e-01,9.99999e-01,9.99804e-01,3.87184e-01,9.99999e-01
7.688012511e-01,3.94456e-01,9.99999e-01,9.99863e-01,3.94509e-01,9.99999e-01
7.726452574e-01,4.01779e-01,9.99999e-01,9.99888e-01,4.01824e-01,9.99999e-01
7.765084837e-01,4.09062e-01,9.99999e-01,9.99842e-01,4.09126e-01,9.99999e-01
7.803910261e-01,4.00106e-01,9.61465e-01,9.99322e-01,4.16413e-01,9.99999e-01
7.842929812e-01,3.51358e-01,8.31148e-01,9.97636e-01,4.23681e-01,9.99999e-01
7.882144461e-01,3.52458e-01,8.21747e-01,9.95087e-01,4.30930e-01,9.99999e-01
7.921555184e-01,3.89468e-01,8.91231e-01,9.97288e-01,4.38155e-01,9.99999e-01
7.961162960e-01,4.10085e-01,9.25127e-01,9.95270e-01,4.45355e-01,9.99999e-01
8.000968774e-01,4.31490e-01,9.58759e-01,9.94504e-01,4.52528e-01,9.99999e-01
8.040973618e-01,4.47243e-01,9.78318e-01,9.94511e-01,4.59671e-01,9.99999e-01
8.081178486e-01,4.56482e-01,9.90036e-01,9.87752e-01,4.66783e-01,9.99999e-01
8.121584379e-01,4.48674e-01,9.96883e-01,9.49772e-01,4.73860e-01,9.99998e-01
8.162192301e-01,4.51745e-01,9.99310e-01,9.40002e-01,4.80903e-01,9.99998e-01
8.203003262e-01,4.73389e-01,9.99987e-01,9.70254e-01,4.87907e-01,9.99998e-01
8.244018279e-01,4.73858e-01,9.99999e-01,9.57535e-01,4.94873e-01,9.99998e-01
8.285238370e-01,4.83739e-01,9.99999e-01,9.64014e-01,5.01797e-01,9.99998e-01
8.326664562e-01,4.90093e-01,9.99999e-01,9.63464e-01,5.08678e-01,9.99998e-01
8.368297885e-01,5.01968e-01,9.99999e-01,9.73720e-01,5.15515e-01,9.99999e-01
8.410139374e-01,5.14106e-01,9.99999e-01,9.84298e-01,5.22307e-01,9.99999e-01
8.452190071e-01,5.24958e-01,9.99999e-01,9.92263e-01,5.29051e-01,9.99999e-01
8.494451021e-01,5.33348e-01,9.99999e-01,9.95523e-01,5.35746e-01,9.99999e-01
8.536923276e-01,5.40949e-01,9.99999e-01,9.97340e-01,5.42391e-01,9.99999e-01
8.579607893e-01,5.48089e-01,9.99999e-01,9.98367e-01,5.48985e-01,9.99999e-01
8.622505932e-01,5.54949e-01,9.99999e-01,9.98959e-01,5.55527e-01,9.99999e-01
8.665618462e-01,5.16365e-01,9.19339e-01,9.99358e-01,5.62015e-01,9.99999e-01
8.708946554e-01,3.56947e-01,6.28373e-01,9.99268e-01,5.68448e-01,9.99999e-01
8.752491287e-01,3.93604e-01,6.85383e-01,9.99019e-01,5.74826e-01,9.99999e-01
8.796253743e-01,4.71091e-01,8.11680e-01,9.98647e-01,5.81147e-01,9.99999e-01
8.840235012e-01,5.26293e-01,8.97315e-01,9.98453e-01,5.87411e-01,9.99999e-01
8.884436187e-01,5.65565e-01,9.57969e-01,9.94482e-01,5.93616e-01,9.99999e-01
8.928858368e-01,5.55665e-01,9.82813e-01,9.42507e-01,5.99763e-01,9.99998e-01
8.973502660e-01,5.42741e-01,9.95768e-01,8.99548e-01,6.05850e-01,9.99998e-01
9.018370173e-01,5.79176e-01,9.99531e-01,9.46985e-01,6.11877e-01,9.99998e-01
9.063462024e-01,5.82899e-01,9.88514e-01,9.53985e-01,6.17842e-01,9.99997e-01
9.108779334e-01,5.63943e-01,9.73074e-01,9.28764e-01,6.23747e-01,9.99997e-01
9.154323231e-01,5.75134e-01,9.93546e-01,9.19286e-01,6.29590e-01,9.99997e-01
9.200094847e-01,5.45740e-01,9.13843e-01,9.36053e-01,6.35370e-01,9.99996e-01
9.246095321e-01,5.08680e-01,8.75153e-01,9.04161e-01,6.41088e-01,9.99994e-01
9.292325798e-01,2.99988e-01,9.02034e-01,5.07889e-01,6.46742e-01,9.99989e-01
9.338787427e-01,2.47187e-01,9.04030e-01,4.13988e-01,6.52334e-01,9.99986e-01
9.385481364e-01,4.29769e-01,9.28494e-01,7.00010e-01,6.57861e-01,9.99986e-01
9.432408771e-01,3.90404e-01,9.55398e-01,6.14243e-01,6.63325e-01,9.99984e-01
9.479570815e-01,3.35133e-01,9.76943e-01,5.12246e-01,6.68726e-01,9.99986e-01
9.526968669e-01,4.00890e-01,9.88795e-01,6.00779e-01,6.74062e-01,9.99989e-01
9.574603512e-01,4.21715e-01,9.95190e-01,6.23542e-01,6.79334e-01,9.99992e-01
9.622476530e-01,4.64365e-01,9.98495e-01,6.79310e-01,6.84542e-01,9.99994e-01
9.670588912e-01,5.51709e-01,9.99547e-01,8.00283e-01,6.89686e-01,9.99996e-01
9.718941857e-01,6.04291e-01,9.99966e-01,8.69803e-01,6.94766e-01,9.99997e-01
9.767536566e-01,6.23287e-01,9.99999e-01,8.90689e-01,6.99782e-01,9.99998e-01
9.816374249e-01,6.46623e-01,9.99999e-01,9.17543e-01,7.04733e-01,9.99998e-01
9.865456120e-01,6.72456e-01,9.99999e-01,9.47626e-01,7.09621e-01,9.99999e-01
9.914783401e-01,6.91095e-01,9.99999e-01,9.67316e-01,7.14446e-01,9.99999e-01
9.964357318e-01,7.06306e-01,9.99999e-01,9.82062e-01,7.19207e-01,9.99999e-01
1.001417910e+00,7.16093e-01,9.99999e-01,9.89209e-01,7.23904e-01,9.99999e-01
1.006425000e+00,7.24059e-01,9.99999e-01,9.93849e-01,7.28539e-01,9.99999e-01
1.011457125e+00,7.30301e-01,9.99999e-01,9.96167e-01,7.33111e-01,9.99999e-01
1.016514411e+00,7.35704e-01,9.99999e-01,9.97401e-01,7.37621e-01,9.99999e-01
1.021596983e+00,7.40492e-01,9.99944e-01,9.97930e-01,7.42068e-01,9.99999e-01
1.026704968e+00,7.41910e-01,9.95516e-01,9.98386e-01,7.46453e-01,9.99999e-01
1.031838492e+00,7.14645e-01,9.52957e-01,9.98824e-01,7.50777e-01,9.99999e-01
1.036997685e+00,9.72452e-02,1.28865e-01,9.99303e-01,7.55040e-01,9.99999e-01
1.042182673e+00,5.86822e-02,7.73460e-02,9.99172e-01,7.59242e-01,9.99999e-01
1.047393587e+00,7.93879e-02,1.04095e-01,9.98900e-01,7.63384e-01,9.99999e-01
1.052630555e+00,1.12803e-03,1.47140e-03,9.98493e-01,7.67466e-01,9.99999e-01
1.057893707e+00,3.10424e-03,4.03017e-03,9.97490e-01,7.71489e-01,9.99999e-01
1.063183176e+00,1.30369e-02,1.68599e-02,9.95868e-01,7.75453e-01,9.99999e-01
1.068499092e+00,4.39623e-02,5.67286e-02,9.93079e-01,7.79358e-01,9.99999e-01
1.073841587e+00,1.25776e-01,1.61676e-01,9.91921e-01,7.83205e-01,9.99999e-01
1.079210795e+00,2.45896e-01,3.15375e-01,9.89620e-01,7.86994e-01,9.99999e-01
1.084606849e+00,4.11266e-01,5.27908e-01,9.84357e-01,7.90726e-01,9.99999e-01
1.090029883e+00,5.57868e-01,7.17700e-01,9.77744e-01,7.94402e-01,9.99998e-01
1.095480033e+00,6.37603e-01,8.48942e-01,9.40383e-01,7.98022e-01,9.99998e-01
1.100957433e+00,6.34390e-01,9.24105e-01,8.55571e-01,8.01586e-01,9.99996e-01
1.106462220e+00,5.26475e-01,9.67842e-01,6.74724e-01,8.05096e-01,9.99993e-01
1.111994531e+00,3.49682e-01,9.87958e-01,4.37310e-01,8.08551e-01,9.99987e-01
1.117554504e+00,2.14005e-01,9.97031e-01,2.64187e-01,8.11952e-01,9.99982e-01
1.123142276e+00,3.10121e-01,9.99803e-01,3.80415e-01,8.15300e-01,9.99979e-01
1.128757988e+00,4.37647e-01,9.99999e-01,5.34642e-01,8.18595e-01,9.99978e-01
1.134401778e+00,2.31058e-01,9.99999e-01,2.81154e-01,8.21838e-01,9.99975e-01
1.140073787e+00,5.65887e-01,9.99999e-01,6.85913e-01,8.25029e-01,9.99979e-01
1.145774156e+00,3.79749e-01,9.99999e-01,4.58547e-01,8.28169e-01,9.99983e-01
1.151503026e+00,3.50502e-01,9.99999e-01,4.21658e-01,8.31259e-01,9.99985e-01
1.157260541e+00,4.00966e-01,9.99999e-01,4.80607e-01,8.34299e-01,9.99988e-01
1.163046844e+00,4.85846e-01,9.99999e-01,5.80263e-01,8.37290e-01,9.99992e-01
1.168862078e+00,5.74449e-01,9.99999e-01,6.83681e-01,8.40232e-01,9.99996e-01
1.174706389e+00,6.66782e-01,9.99999e-01,7.90846e-01,8.43126e-01,9.99997e-01
1.180579921e+00,7.33172e-01,9.99999e-01,8.66662e-01,8.45973e-01,9.99998e-01
1.186482820e+00,7.82856e-01,9.99993e-01,9.22343e-01,8.48773e-01,9.99998e-01
1.192415234e+00,7.99701e-01,9.84251e-01,9.53956e-01,8.51526e-01,9.99998e-01
1.198377311e+00,4.60299e-01,5.57003e-01,9.61134e-01,8.54234e-01,9.99998e-01
1.204369197e+00,2.90451e-13,3.46385e-13,9.63158e-01,8.56896e-01,9.99998e-01
1.210391043e+00,1.55504e-49,1.84562e-49,9.64724e-01,8.59514e-01,9.99999e-01
1.216442998e+00,4.76289e-43,5.63015e-43,9.69841e-01,8.62088e-01,9.99999e-01
1.222525213e+00,2.02676e-42,2.37295e-42,9.76463e-01,8.64619e-01,9.99999e-01
1.228637839e+00,7.40083e-33,8.63250e-33,9.83611e-01,8.67107e-01,9.99999e-01
1.234781029e+00,4.60310e-21,5.32171e-21,9.87790e-01,8.69552e-01,9.99999e-01
1.240954934e+00,3.31930e-14,3.82564e-14,9.92271e-01,8.71956e-01,9.99999e-01
1.247159708e+00,2.70719e-09,3.10932e-09,9.93971e-01,8.74320e-01,9.99999e-01
1.253395507e+00,5.13898e-05,5.88524e-05,9.94655e-01,8.76642e-01,9.99999e-01
1.259662485e+00,2.18646e-03,2.49740e-03,9.94974e-01,8.78925e-01,9.99999e-01
1.265960797e+00,3.43746e-02,3.92493e-02,9.91931e-01,8.81168e-01,9.99999e-01
1.272290601e+00,1.96423e-01,2.24702e-01,9.88150e-01,8.83373e-01,9.99999e-01
1.278652054e+00,1.88140e-01,2.16620e-01,9.75100e-01,8.85539e-01,9.99999e-01
1.285045314e+00,3.55138e-03,4.08152e-03,9.61174e-01,8.87668e-01,9.99998e-01
1.291470541e+00,1.74073e-06,2.05543e-06,9.23286e-01,8.89760e-01,9.99997e-01
1.297927893e+00,1.69602e-03,1.99915e-03,9.00997e-01,8.91815e-01,9.99996e-01
1.304417533e+00,6.36748e-02,8.01164e-02,8.74108e-01,8.93834e-01,9.99994e-01
1.310939621e+00,1.61952e-02,1.98044e-02,8.57969e-01,8.95818e-01,9.99990e-01
1.317494319e+00,1.71895e-17,2.10549e-17,8.45821e-01,8.97767e-01,9.99984e-01
1.324081790e+00,5.48329e-12,6.84504e-12,7.79463e-01,8.99681e-01,9.99975e-01
1.330702199e+00,2.95517e-07,5.11834e-07,3.98151e-01,9.01562e-01,9.99959e-01
1.337355710e+00,1.58664e-07,8.82234e-07,8.62914e-02,9.03409e-01,9.99923e-01
1.344042489e+00,2.48250e-08,2.94153e-07,4.12902e-03,9.05223e-01,9.99836e-01
1.350762701e+00,6.96155e-12,2.93865e-07,5.31873e-06,9.07006e-01,9.99738e-01
1.357516515e+00,1.16819e-11,7.24663e-05,2.81603e-08,9.08756e-01,9.99676e-01
1.364304097e+00,6.46747e-08,1.80954e-03,1.57338e-05,9.10475e-01,9.99653e-01
1.371125618e+00,3.91120e-05,3.75991e-02,6.16069e-04,9.12163e-01,9.99650e-01
1.377981246e+00,1.50941e-04,6.62836e-02,1.76912e-03,9.13821e-01,9.99624e-01
1.384871152e+00,8.32615e-06,2.06028e-01,3.29664e-05,9.15449e-01,9.99628e-01
1.391795508e+00,5.94346e-06,2.31900e-01,2.06403e-05,9.17048e-01,9.99681e-01
1.398754485e+00,5.73002e-05,4.05077e-01,1.39969e-04,9.18618e-01,9.99734e-01
1.405748258e+00,7.31625e-05,5.14181e-01,1.36971e-04,9.20159e-01,9.99761e-01
1.412776999e+00,8.61861e-05,6.56414e-01,1.28848e-04,9.21673e-01,9.99808e-01
1.419840884e+00,1.68237e-04,5.93751e-01,2.44832e-04,9.23159e-01,9.99856e-01
1.426940089e+00,4.87843e-04,4.78151e-02,1.48908e-03,9.24618e-01,9.99911e-01
1.434074789e+00,0.00000e+00,0.00000e+00,6.85658e-03,9.26051e-01,9.99944e-01
1.441245163e+00,0.00000e+00,0.00000e+00,1.98594e-02,9.27457e-01,9.99956e-01
1.448451389e+00,0.00000e+00,0.00000e+00,6.33209e-02,9.28838e-01,9.99963e-01
1.455693646e+00,0.00000e+00,0.00000e+00,1.54934e-01,9.30193e-01,9.99970e-01
1.462972114e+00,1.41205e-194,4.08538e-194,1.99511e-01,9.31524e-01,9.99974e-01
1.470286975e+00,1.12488e-81,3.51563e-81,1.53103e-01,9.32830e-01,9.99977e-01
