#,Wave/freq,Total,CO2,H2O,Rayleigh,CIA
4.000000000e-01,1.09648e-13,9.99999e-01,9.99941e-01,1.09655e-13,9.99999e-01
4.020000000e-01,1.97819e-13,9.99999e-01,9.99963e-01,1.97827e-13,9.99999e-01
4.040100000e-01,3.52540e-13,9.99999e-01,9.99984e-01,3.52545e-13,9.99999e-01
4.060300500e-01,6.21136e-13,9.99999e-01,9.99995e-01,6.21138e-13,9.99999e-01
4.080602003e-01,1.08219e-12,9.99999e-01,9.99998e-01,1.08219e-12,9.99999e-01
4.101005013e-01,1.86490e-12,9.99999e-01,9.99999e-01,1.86490e-12,9.99999e-01
4.121510038e-01,3.17934e-12,9.99999e-01,9.99997e-01,3.17935e-12,9.99999e-01
4.142117588e-01,5.36338e-12,9.99999e-01,9.99983e-01,5.36347e-12,9.99999e-01
4.162828176e-01,8.95439e-12,9.99999e-01,9.99927e-01,8.95503e-12,9.99999e-01
4.183642317e-01,1.48004e-11,9.99999e-01,9.99956e-01,1.48010e-11,9.99999e-01
4.204560528e-01,2.42211e-11,9.99999e-01,9.99973e-01,2.42217e-11,9.99999e-01
4.225583331e-01,3.92544e-11,9.99999e-01,9.99989e-01,3.92548e-11,9.99999e-01
4.246711247e-01,6.30139e-11,9.99999e-01,9.99991e-01,6.30144e-11,9.99999e-01
4.267944804e-01,1.00212e-10,9.99999e-01,9.99987e-01,1.00213e-10,9.99999e-01
4.289284528e-01,1.57917e-10,9.99999e-01,9.99990e-01,1.57918e-10,9.99999e-01
4.310730950e-01,2.46624e-10,9.99999e-01,9.99995e-01,2.46625e-10,9.99999e-01
4.332284605e-01,3.81784e-10,9.99999e-01,9.99998e-01,3.81785e-10,9.99999e-01
4.353946028e-01,5.85937e-10,9.99999e-01,9.99999e-01,5.85937e-10,9.99999e-01
4.375715758e-01,8.91673e-10,9.99999e-01,9.99992e-01,8.91680e-10,9.99999e-01
4.397594337e-01,1.34567e-09,9.99999e-01,9.99936e-01,1.34575e-09,9.99999e-01
4.419582309e-01,2.01396e-09,9.99999e-01,9.99678e-01,2.01460e-09,9.99999e-01
4.441680220e-01,2.99119e-09,9.99999e-01,9.99747e-01,2.99194e-09,9.99999e-01
4.463888621e-01,4.40769e-09,9.99999e-01,9.99737e-01,4.40884e-09,9.99999e-01
4.486208064e-01,6.44613e-09,9.99999e-01,9.99836e-01,6.44718e-09,9.99999e-01
4.508639105e-01,9.35668e-09,9.99999e-01,9.99923e-01,9.35739e-09,9.99999e-01
4.531182300e-01,1.34813e-08,9.99999e-01,9.99969e-01,1.34817e-08,9.99999e-01
4.553838212e-01,1.92838e-08,9.99999e-01,9.99979e-01,1.92842e-08,9.99999e-01
4.576607403e-01,2.73895e-08,9.99999e-01,9.99990e-01,2.73897e-08,9.99999e-01
4.599490440e-01,3.86333e-08,9.99999e-01,9.99992e-01,3.86335e-08,9.99999e-01
4.622487892e-01,5.41240e-08,9.99999e-01,9.99998e-01,5.41240e-08,9.99999e-01
4.645600332e-01,7.53220e-08,9.99999e-01,9.99994e-01,7.53223e-08,9.99999e-01
4.668828333e-01,1.04133e-07,9.99999e-01,9.99922e-01,1.04141e-07,9.99999e-01
4.692172475e-01,1.43044e-07,9.99999e-01,9.99835e-01,1.43068e-07,9.99999e-01
4.715633337e-01,1.95294e-07,9.99999e-01,9.99892e-01,1.95315e-07,9.99999e-01
4.739211504e-01,2.64982e-07,9.99999e-01,9.99896e-01,2.65009e-07,9.99999e-01
4.762907561e-01,3.57392e-07,9.99999e-01,9.99946e-01,3.57411e-07,9.99999e-01
4.786722099e-01,4.79181e-07,9.99999e-01,9.99977e-01,4.79191e-07,9.99999e-01
4.810655710e-01,6.38751e-07,9.99999e-01,9.99992e-01,6.38755e-07,9.99999e-01
4.834708988e-01,8.46578e-07,9.99999e-01,9.99937e-01,8.46631e-07,9.99999e-01
4.858882533e-01,1.11580e-06,9.99999e-01,9.99883e-01,1.11593e-06,9.99999e-01
4.883176946e-01,1.46275e-06,9.99999e-01,9.99902e-01,1.46289e-06,9.99999e-01
4.907592831e-01,1.90732e-06,9.99999e-01,9.99911e-01,1.90749e-06,9.99999e-01
4.932130795e-01,2.47406e-06,9.99999e-01,9.99937e-01,2.47422e-06,9.99999e-01
4.956791449e-01,3.19277e-06,9.99999e-01,9.99966e-01,3.19287e-06,9.99999e-01
4.981575406e-01,4.09888e-06,9.99999e-01,9.99834e-01,4.09956e-06,9.99999e-01
5.006483283e-01,5.23557e-06,9.99999e-01,9.99572e-01,5.23780e-06,9.99999e-01
5.031515699e-01,6.64533e-06,9.99999e-01,9.97831e-01,6.65977e-06,9.99999e-01
5.056673278e-01,8.41803e-06,9.99999e-01,9.98853e-01,8.42769e-06,9.99999e-01
5.081956644e-01,1.06001e-05,9.99999e-01,9.98553e-01,1.06154e-05,9.99999e-01
5.107366428e-01,1.32973e-05,9.99999e-01,9.99022e-01,1.33103e-05,9.99999e-01
5.132903260e-01,1.66056e-05,9.99999e-01,9.99440e-01,1.66149e-05,9.99999e-01
5.158567776e-01,2.06444e-05,9.99999e-01,9.99763e-01,2.06493e-05,9.99999e-01
5.184360615e-01,2.55509e-05,9.99999e-01,9.99905e-01,2.55533e-05,9.99999e-01
5.210282418e-01,3.14881e-05,9.99999e-01,9.99964e-01,3.14892e-05,9.99999e-01
5.236333830e-01,3.86387e-05,9.99999e-01,9.99858e-01,3.86441e-05,9.99999e-01
5.262515499e-01,4.72293e-05,9.99999e-01,9.99910e-01,4.72335e-05,9.99999e-01
5.288828077e-01,5.74988e-05,9.99999e-01,9.99918e-01,5.75035e-05,9.99999e-01
5.315272217e-01,6.97300e-05,9.99999e-01,9.99928e-01,6.97350e-05,9.99999e-01
5.341848578e-01,8.42427e-05,9.99999e-01,9.99952e-01,8.42467e-05,9.99999e-01
5.368557821e-01,1.01382e-04,9.99999e-01,9.99835e-01,1.01399e-04,9.99999e-01
5.395400610e-01,1.21525e-04,9.99999e-01,9.99407e-01,1.21597e-04,9.99999e-01
5.422377613e-01,1.45185e-04,9.99999e-01,9.99230e-01,1.45297e-04,9.99999e-01
5.449489501e-01,1.72883e-04,9.99999e-01,9.99286e-01,1.73006e-04,9.99999e-01
5.476736949e-01,2.05160e-04,9.99999e-01,9.99365e-01,2.05291e-04,9.99999e-01
5.504120634e-01,2.42666e-04,9.99999e-01,9.99539e-01,2.42778e-04,9.99999e-01
5.531641237e-01,2.86094e-04,9.99999e-01,9.99768e-01,2.86161e-04,9.99999e-01
5.559299443e-01,3.36165e-04,9.99999e-01,9.99887e-01,3.36202e-04,9.99999e-01
5.587095940e-01,3.93712e-04,9.99999e-01,9.99929e-01,3.93739e-04,9.99999e-01
5.615031420e-01,4.59651e-04,9.99999e-01,9.99921e-01,4.59687e-04,9.99999e-01
5.643106577e-01,5.34993e-04,9.99999e-01,9.99911e-01,5.35040e-04,9.99999e-01
5.671322110e-01,6.20220e-04,9.99999e-01,9.98933e-01,6.20882e-04,9.99999e-01
5.699678720e-01,7.17559e-04,9.99999e-01,9.98854e-01,7.18381e-04,9.99999e-01
5.728177114e-01,8.27816e-04,9.99999e-01,9.98811e-01,8.28800e-04,9.99999e-01
5.756818000e-01,9.52454e-04,9.99999e-01,9.98908e-01,9.53494e-04,9.99999e-01
5.785602090e-01,1.09287e-03,9.99999e-01,9.99047e-01,1.09392e-03,9.99999e-01
5.814530100e-01,1.25042e-03,9.99999e-01,9.99044e-01,1.25162e-03,9.99999e-01
5.843602750e-01,1.42663e-03,9.99999e-01,9.98864e-01,1.42825e-03,9.99999e-01
5.872820764e-01,1.60972e-03,9.99999e-01,9.90256e-01,1.62556e-03,9.99999e-01
5.902184868e-01,1.82355e-03,9.99999e-01,9.88154e-01,1.84541e-03,9.99999e-01
5.931695792e-01,2.07227e-03,9.99999e-01,9.91633e-01,2.08975e-03,9.99999e-01
5.961354271e-01,2.33897e-03,9.99999e-01,9.90820e-01,2.36064e-03,9.99999e-01
5.991161043e-01,2.64238e-03,9.99999e-01,9.93293e-01,2.66022e-03,9.99999e-01
6.021116848e-01,2.97936e-03,9.99999e-01,9.96187e-01,2.99077e-03,9.99999e-01
6.051222432e-01,3.34813e-03,9.99999e-01,9.98068e-01,3.35461e-03,9.99999e-01
6.081478544e-01,3.75107e-03,9.99999e-01,9.99166e-01,3.75419e-03,9.99999e-01
6.111885937e-01,4.19057e-03,9.99999e-01,9.99646e-01,4.19204e-03,9.99999e-01
6.142445367e-01,4.67004e-03,9.99999e-01,9.99842e-01,4.67077e-03,9.99999e-01
6.173157594e-01,5.19262e-03,9.99999e-01,9.99912e-01,5.19307e-03,9.99999e-01
6.204023382e-01,5.76127e-03,9.99999e-01,9.99926e-01,5.76169e-03,9.99999e-01
6.235043498e-01,6.37743e-03,9.99999e-01,9.99678e-01,6.37947e-03,9.99999e-01
6.266218716e-01,7.03725e-03,9.99999e-01,9.98290e-01,7.04930e-03,9.99999e-01
6.297549810e-01,7.76923e-03,9.99999e-01,9.99372e-01,7.77410e-03,9.99999e-01
6.329037559e-01,8.54626e-03,9.99999e-01,9.98758e-01,8.55687e-03,9.99999e-01
6.360682746e-01,9.39072e-03,9.99999e-01,9.98944e-01,9.40063e-03,9.99999e-01
6.392486160e-01,1.02943e-02,9.99999e-01,9.98631e-01,1.03084e-02,9.99999e-01
6.424448591e-01,1.12627e-02,9.99999e-01,9.98175e-01,1.12833e-02,9.99999e-01
6.456570834e-01,1.22242e-02,9.99999e-01,9.91550e-01,1.23284e-02,9.99999e-01
6.488853688e-01,1.33631e-02,9.99999e-01,9.93785e-01,1.34467e-02,9.99999e-01
6.521297956e-01,1.45486e-02,9.99999e-01,9.93666e-01,1.46413e-02,9.99999e-01
6.553904446e-01,1.58155e-02,9.99999e-01,9.93729e-01,1.59153e-02,9.99999e-01
6.586673968e-01,1.71783e-02,9.99999e-01,9.94596e-01,1.72716e-02,9.99999e-01
6.619607338e-01,1.86547e-02,9.99999e-01,9.96872e-01,1.87133e-02,9.99999e-01
6.652705375e-01,2.02065e-02,9.99999e-01,9.98186e-01,2.02432e-02,9.99999e-01
6.685968902e-01,2.18458e-02,9.99999e-01,9.99157e-01,2.18642e-02,9.99999e-01
6.719398746e-01,2.35700e-02,9.99999e-01,9.99609e-01,2.35792e-02,9.99999e-01
6.752995740e-01,2.53854e-02,9.99999e-01,9.99788e-01,2.53907e-02,9.99999e-01
6.786760719e-01,2.72932e-02,9.99999e-01,9.99695e-01,2.73015e-02,9.99999e-01
6.820694522e-01,2.92988e-02,9.99999e-01,9.99478e-01,2.93141e-02,9.99999e-01
6.854797995e-01,3.14096e-02,9.99999e-01,9.99327e-01,3.14308e-02,9.99999e-01
6.889071985e-01,3.35995e-02,9.99999e-01,9.98381e-01,3.36539e-02,9.99999e-01
6.923517345e-01,3.50428e-02,9.99999e-01,9.73795e-01,3.59857e-02,9.99999e-01
6.958134932e-01,3.78980e-02,9.99999e-01,9.86200e-01,3.84282e-02,9.99999e-01
6.992925606e-01,4.04489e-02,9.99999e-01,9.86960e-01,4.09833e-02,9.99999e-01
7.027890234e-01,4.29489e-02,9.99999e-01,9.83875e-01,4.36527e-02,9.99999e-01
7.063029686e-01,4.58078e-02,9.99999e-01,9.86426e-01,4.64381e-02,9.99999e-01
7.098344834e-01,4.86980e-02,9.99999e-01,9.86970e-01,4.93409e-02,9.99999e-01
7.133836558e-01,5.14601e-02,9.99999e-01,9.82768e-01,5.23624e-02,9.99998e-01
7.169505741e-01,4.83047e-02,9.99999e-01,8.70298e-01,5.55037e-02,9.99997e-01
7.205353270e-01,5.48692e-02,9.99999e-01,9.33692e-01,5.87658e-02,9.99997e-01
7.241380036e-01,5.69815e-02,9.99999e-01,9.16846e-01,6.21495e-02,9.99997e-01
7.277586936e-01,6.07077e-02,9.99999e-01,9.24642e-01,6.56554e-02,9.99997e-01
7.313974871e-01,6.37195e-02,9.99999e-01,9.19687e-01,6.92839e-02,9.99998e-01
7.350544745e-01,6.97687e-02,9.99999e-01,9.55274e-01,7.30353e-02,9.99998e-01
7.387297469e-01,7.43597e-02,9.99999e-01,9.66844e-01,7.69096e-02,9.99999e-01
7.424233956e-01,7.95816e-02,9.99999e-01,9.83620e-01,8.09068e-02,9.99999e-01
7.461355126e-01,8.41804e-02,9.99999e-01,9.90046e-01,8.50267e-02,9.99999e-01
7.498661902e-01,8.88536e-02,9.99999e-01,9.95349e-01,8.92687e-02,9.99999e-01
7.536155211e-01,9.34187e-02,9.99999e-01,9.97718e-01,9.36322e-02,9.99999e-01
7.573835987e-01,9.80013e-02,9.99999e-01,9.98824e-01,9.81166e-02,9.99999e-01
7.611705167e-01,1.02646e-01,9.99999e-01,9.99269e-01,1.02721e-01,9.99999e-01
7.649763693e-01,1.07394e-01,9.99999e-01,9.99542e-01,1.07443e-01,9.99999e-01
7.688012511e-01,1.12248e-01,9.99999e-01,9.99681e-01,1.12284e-01,9.99999e-01
7.726452574e-01,1.17209e-01,9.99999e-01,9.99737e-01,1.17240e-01,9.99999e-01
7.765084837e-01,1.22265e-01,9.99999e-01,9.99628e-01,1.22310e-01,9.99999e-01
7.803910261e-01,1.17068e-01,9.19594e-01,9.98397e-01,1.27494e-01,9.99999e-01
7.842929812e-01,8.73085e-02,6.60772e-01,9.94417e-01,1.32787e-01,9.99999e-01
7.882144461e-01,8.83214e-02,6.45859e-01,9.88495e-01,1.38190e-01,9.99999e-01
7.921555184e-01,1.09325e-01,7.65342e-01,9.93666e-01,1.43699e-01,9.99999e-01
7.961162960e-01,1.23203e-01,8.34178e-01,9.88876e-01,1.49313e-01,9.99999e-01
8.000968774e-01,1.38710e-01,9.06312e-01,9.87126e-01,1.55028e-01,9.99999e-01
8.040973618e-01,1.50872e-01,9.50168e-01,9.87131e-01,1.60843e-01,9.99999e-01
8.081178486e-01,1.58237e-01,9.76822e-01,9.71325e-01,1.66754e-01,9.99998e-01
8.121584379e-01,1.52019e-01,9.92764e-01,8.86180e-01,1.72760e-01,9.99998e-01
8.162192301e-01,1.54676e-01,9.98397e-01,8.66122e-01,1.78857e-01,9.99997e-01
8.203003262e-01,1.72493e-01,9.99974e-01,9.32201e-01,1.85042e-01,9.99997e-01
8.244018279e-01,1.73396e-01,9.99999e-01,9.06352e-01,1.91313e-01,9.99997e-01
8.285238370e-01,1.81400e-01,9.99999e-01,9.17714e-01,1.97666e-01,9.99997e-01
8.326664562e-01,1.87124e-01,9.99999e-01,9.16834e-01,2.04098e-01,9.99998e-01
8.368297885e-01,1.97889e-01,9.99999e-01,9.39615e-01,2.10606e-01,9.99998e-01
8.410139374e-01,2.09289e-01,9.99999e-01,9.63637e-01,2.17187e-01,9.99999e-01
8.452190071e-01,2.19805e-01,9.99999e-01,9.81985e-01,2.23838e-01,9.99999e-01
8.494451021e-01,2.28139e-01,9.99999e-01,9.89521e-01,2.30554e-01,9.99999e-01
8.536923276e-01,2.35859e-01,9.99999e-01,9.93784e-01,2.37334e-01,9.99999e-01
8.579607893e-01,2.43239e-01,9.99999e-01,9.96172e-01,2.44173e-01,9.99999e-01
8.622505932e-01,2.50457e-01,9.99999e-01,9.97564e-01,2.51069e-01,9.99999e-01
8.665618462e-01,2.25353e-01,8.74638e-01,9.98494e-01,2.58017e-01,9.99999e-01
8.708946554e-01,9.55060e-02,3.60952e-01,9.98278e-01,2.65015e-01,9.99999e-01
8.752491287e-01,1.16263e-01,4.28265e-01,9.97696e-01,2.72058e-01,9.99999e-01
8.796253743e-01,1.72731e-01,6.20615e-01,9.96815e-01,2.79144e-01,9.99999e-01
8.840235012e-01,2.21842e-01,7.77653e-01,9.96361e-01,2.86269e-01,9.99999e-01
8.884436187e-01,2.62162e-01,9.04979e-01,9.86900e-01,2.93430e-01,9.99998e-01
8.928858368e-01,2.51587e-01,9.60306e-01,8.70619e-01,3.00623e-01,9.99997e-01
8.973502660e-01,2.38709e-01,9.90188e-01,7.82671e-01,3.07846e-01,9.99996e-01
9.018370173e-01,2.77691e-01,9.98913e-01,8.82178e-01,3.15094e-01,9.99996e-01
9.063462024e-01,2.81696e-01,9.73212e-01,8.95802e-01,3.22364e-01,9.99995e-01
9.108779334e-01,2.61021e-01,9.38249e-01,8.42148e-01,3.29654e-01,9.99994e-01
9.154323231e-01,2.73136e-01,9.85094e-01,8.22141e-01,3.36960e-01,9.99994e-01
9.200094847e-01,2.48452e-01,8.25390e-01,8.58024e-01,3.44278e-01,9.99993e-01
9.246095321e-01,2.07111e-01,7.33345e-01,7.93421e-01,3.51606e-01,9.99988e-01
9.292325798e-01,6.79978e-02,7.87881e-01,2.28972e-01,3.58941e-01,9.99976e-01
9.338787427e-01,4.50448e-02,7.91660e-01,1.48335e-01,3.66279e-01,9.99969e-01
9.385481364e-01,1.47724e-01,8.41181e-01,4.59728e-01,3.73618e-01,9.99968e-01
9.432408771e-01,1.22562e-01,8.98961e-01,3.53402e-01,3.80955e-01,9.99965e-01
9.479570815e-01,8.80252e-02,9.46817e-01,2.37951e-01,3.88287e-01,9.99969e-01
9.526968669e-01,1.27449e-01,9.74000e-01,3.29217e-01,3.95610e-01,9.99976e-01
9.574603512e-01,1.38693e-01,9.88787e-01,3.47496e-01,4.02924e-01,9.99982e-01
9.622476530e-01,1.70618e-01,9.96487e-01,4.17164e-01,4.10223e-01,9.99988e-01
9.670588912e-01,2.51001e-01,9.98945e-01,6.01744e-01,4.17507e-01,9.99992e-01
9.718941857e-01,3.07092e-01,9.99924e-01,7.23001e-01,4.24773e-01,9.99995e-01
9.767536566e-01,3.29930e-01,9.99999e-01,7.63696e-01,4.32018e-01,9.99996e-01
9.816374249e-01,3.59338e-01,9.99999e-01,8.18092e-01,4.39240e-01,9.99997e-01
9.865456120e-01,3.93672e-01,9.99999e-01,8.81811e-01,4.46436e-01,9.99998e-01
9.914783401e-01,4.19623e-01,9.99999e-01,9.25086e-01,4.53604e-01,9.99999e-01
9.964357318e-01,4.41609e-01,9.99999e-01,9.58471e-01,4.60743e-01,9.99999e-01
1.001417910e+00,4.56101e-01,9.99999e-01,9.74888e-01,4.67850e-01,9.99999e-01
1.006425000e+00,4.68091e-01,9.99999e-01,9.85615e-01,4.74922e-01,9.99999e-01
1.011457125e+00,4.77641e-01,9.99999e-01,9.91041e-01,4.81959e-01,9.99999e-01
1.016514411e+00,4.85981e-01,9.99999e-01,9.93912e-01,4.88958e-01,9.99999e-01
1.021596983e+00,4.93442e-01,9.99859e-01,9.95148e-01,4.95917e-01,9.99999e-01
1.026704968e+00,4.95611e-01,9.89364e-01,9.96214e-01,5.02835e-01,9.99999e-01
1.031838492e+00,4.63527e-01,9.11776e-01,9.97245e-01,5.09710e-01,9.99999e-01
1.036997685e+00,2.90283e-02,5.62672e-02,9.98364e-01,5.16540e-01,9.99999e-01
1.042182673e+00,2.59213e-03,4.96069e-03,9.98052e-01,5.23324e-01,9.99999e-01
1.047393587e+00,6.42035e-03,1.21387e-02,9.97416e-01,5.30061e-01,9.99999e-01
1.052630555e+00,1.35828e-06,2.53628e-06,9.96458e-01,5.36749e-01,9.99999e-01
1.057893707e+00,5.04912e-06,9.32093e-06,9.94096e-01,5.43386e-01,9.99999e-01
1.063183176e+00,1.01359e-04,1.85353e-04,9.90301e-01,5.49973e-01,9.99999e-01
1.068499092e+00,8.98342e-04,1.63227e-03,9.83804e-01,5.56506e-01,9.99999e-01
1.073841587e+00,8.94497e-03,1.61113e-02,9.81099e-01,5.62986e-01,9.99999e-01
1.079210795e+00,4.16587e-02,7.46013e-02,9.75802e-01,5.69411e-01,9.99998e-01
1.084606849e+00,1.28062e-01,2.29834e-01,9.63642e-01,5.75780e-01,9.99998e-01
1.090029883e+00,2.56694e-01,4.63190e-01,9.48358e-01,5.82093e-01,9.99997e-01
1.095480033e+00,3.49454e-01,6.83320e-01,8.65475e-01,5.88348e-01,9.99996e-01
1.100957433e+00,3.45447e-01,8.31650e-01,6.94949e-01,5.94545e-01,9.99993e-01
1.106462220e+00,2.28734e-01,9.26461e-01,4.08240e-01,6.00682e-01,9.99985e-01
1.111994531e+00,9.36107e-02,9.72054e-01,1.57977e-01,6.06760e-01,9.99971e-01
1.117554504e+00,3.35095e-02,9.93094e-01,5.49204e-02,6.12778e-01,9.99960e-01
1.123142276e+00,8.30922e-02,9.99544e-01,1.34309e-01,6.18735e-01,9.99953e-01
1.128757988e+00,1.57353e-01,9.99999e-01,2.51926e-01,6.24630e-01,9.99949e-01
1.134401778e+00,7.04940e-02,9.99999e-01,1.11819e-01,6.30463e-01,9.99943e-01
1.140073787e+00,2.70508e-01,9.99999e-01,4.25190e-01,6.36234e-01,9.99954e-01
1.145774156e+00,1.18606e-01,9.99999e-01,1.84767e-01,6.41942e-01,9.99961e-01
1.151503026e+00,1.00529e-01,9.99999e-01,1.55241e-01,6.47587e-01,9.99966e-01
1.157260541e+00,1.25063e-01,9.99999e-01,1.91475e-01,6.53169e-01,9.99974e-01
1.163046844e+00,1.91798e-01,9.99999e-01,2.91186e-01,6.58687e-01,9.99983e-01
1.168862078e+00,2.75701e-01,9.99999e-01,4.15126e-01,6.64142e-01,9.99991e-01
1.174706389e+00,3.88668e-01,9.99999e-01,5.80508e-01,6.69533e-01,9.99995e-01
1.180579921e+00,4.83777e-01,9.99999e-01,7.16858e-01,6.74859e-01,9.99996e-01
1.186482820e+00,5.62908e-01,9.99981e-01,8.27670e-01,6.80122e-01,9.99997e-01
1.192415234e+00,5.91972e-01,9.63677e-01,8.95304e-01,6.85320e-01,9.99997e-01
1.198377311e+00,3.33910e-01,5.22604e-01,9.11096e-01,6.90454e-01,9.99997e-01
1.204369197e+00,3.81533e-28,5.77237e-28,9.15846e-01,6.95524e-01,9.99998e-01
1.210391043e+00,1.99100e-113,2.97846e-113,9.19243e-01,7.00531e-01,9.99998e-01
1.216442998e+00,3.54715e-98,5.25632e-98,9.30827e-01,7.05473e-01,9.99998e-01
1.222525213e+00,1.06708e-96,1.54602e-96,9.45668e-01,7.10351e-01,9.99999e-01
1.228637839e+00,1.26770e-74,1.81950e-74,9.61951e-01,7.15166e-01,9.99999e-01
1.234781029e+00,1.74390e-46,2.45267e-46,9.71598e-01,7.19918e-01,9.99999e-01
1.240954934e+00,7.13849e-31,9.96218e-31,9.81951e-01,7.24606e-01,9.99999e-01
1.247159708e+00,5.81950e-15,8.04731e-15,9.85911e-01,7.29231e-01,9.99999e-01
1.253395507e+00,3.64067e-10,5.00530e-10,9.87489e-01,7.33793e-01,9.99999e-01
1.259662485e+00,4.00525e-06,5.47177e-06,9.88122e-01,7.38294e-01,9.99999e-01
1.265960797e+00,8.93902e-04,1.21835e-03,9.81073e-01,7.42732e-01,9.99999e-01
1.272290601e+00,3.21999e-02,4.41548e-02,9.70472e-01,7.47108e-01,9.99998e-01
1.278652054e+00,2.90077e-02,4.01497e-02,9.42222e-01,7.51423e-01,9.99998e-01
1.285045314e+00,4.81726e-05,6.66459e-05,9.10939e-01,7.55676e-01,9.99997e-01
1.291470541e+00,1.60504e-13,2.33916e-13,8.29278e-01,7.59869e-01,9.99995e-01
1.297927893e+00,5.30585e-06,7.75945e-06,7.84002e-01,7.64002e-01,9.99993e-01
1.304417533e+00,1.93535e-03,3.21166e-03,7.31744e-01,7.68075e-01,9.99987e-01
1.310939621e+00,5.18235e-04,8.22051e-04,6.99846e-01,7.72089e-01,9.99979e-01
1.317494319e+00,9.70810e-39,1.54518e-38,6.78930e-01,7.76044e-01,9.99965e-01
1.324081790e+00,1.58049e-25,2.63417e-25,5.64861e-01,7.79940e-01,9.99943e-01
1.330702199e+00,1.89329e-15,5.15452e-15,1.71459e-01,7.83778e-01,9.99906e-01
1.337355710e+00,1.74856e-15,8.72216e-14,5.85109e-03,7.87559e-01,9.99820e-01
1.344042489e+00,1.48737e-16,4.46727e-14,1.27248e-04,7.91283e-01,9.99615e-01
1.350762701e+00,1.71227e-25,2.55163e-15,8.54074e-12,7.94950e-01,9.99386e-01
1.357516515e+00,1.10658e-24,2.09768e-09,3.11056e-17,7.98562e-01,9.99240e-01
1.364304097e+00,2.79405e-16,6.85536e-07,7.98890e-11,8.02118e-01,9.99186e-01
1.371125618e+00,8.87180e-10,7.22657e-04,4.96331e-07,8.05619e-01,9.99179e-01
1.377981246e+00,7.02225e-09,1.94800e-03,1.65633e-06,8.09066e-01,9.99118e-01
1.384871152e+00,1.05455e-10,2.62363e-02,2.65121e-09,8.12459e-01,9.99127e-01
1.391795508e+00,4.67670e-12,3.48313e-02,7.12154e-11,8.15799e-01,9.99252e-01
1.398754485e+00,1.46023e-09,1.20878e-01,1.11022e-08,8.19086e-01,9.99375e-01
1.405748258e+00,2.95098e-09,2.14310e-01,1.26240e-08,8.22321e-01,9.99440e-01
1.412776999e+00,5.97945e-09,3.74991e-01,1.42914e-08,8.25505e-01,9.99550e-01
1.419840884e+00,1.18822e-08,3.50751e-01,2.83011e-08,8.28638e-01,9.99663e-01
1.426940089e+00,1.16820e-06,1.35090e-02,4.34935e-06,8.31720e-01,9.99791e-01
1.434074789e+00,0.00000e+00,0.00000e+00,3.89037e-05,8.34753e-01,9.99869e-01
1.441245163e+00,0.00000e+00,0.00000e+00,2.47901e-04,8.37736e-01,9.99898e-01
1.448451389e+00,0.00000e+00,0.00000e+00,3.32636e-03,8.40671e-01,9.99915e-01
1.455693646e+00,0.00000e+00,0.00000e+00,2.01445e-02,8.43558e-01,9.99930e-01
1.462972114e+00,0.00000e+00,0.00000e+00,2.95997e-02,8.46397e-01,9.99940e-01
1.470286975e+00,5.44651e-189,7.93783e-188,1.71772e-02,8.49190e-01,9.99946e-01
