#,Wave/freq,Total,CO2,H2O,Rayleigh,CIA
4.000000000e-01,3.73399e-05,9.99999e-01,9.99979e-01,3.73406e-05,9.99999e-01
4.020000000e-01,4.56802e-05,9.99999e-01,9.99987e-01,4.56807e-05,9.99999e-01
4.040100000e-01,5.56496e-05,9.99999e-01,9.99994e-01,5.56499e-05,9.99999e-01
4.060300500e-01,6.75307e-05,9.99999e-01,9.99998e-01,6.75308e-05,9.99999e-01
4.080602003e-01,8.16355e-05,9.99999e-01,9.99999e-01,8.16356e-05,9.99999e-01
4.101005013e-01,9.83173e-05,9.99999e-01,9.99999e-01,9.83173e-05,9.99999e-01
4.121510038e-01,1.17974e-04,9.99999e-01,9.99998e-01,1.17974e-04,9.99999e-01
4.142117588e-01,1.41051e-04,9.99999e-01,9.99994e-01,1.41051e-04,9.99999e-01
4.162828176e-01,1.68045e-04,9.99999e-01,9.99974e-01,1.68049e-04,9.99999e-01
4.183642317e-01,1.99520e-04,9.99999e-01,9.99984e-01,1.99523e-04,9.99999e-01
4.204560528e-01,2.36088e-04,9.99999e-01,9.99990e-01,2.36090e-04,9.99999e-01
4.225583331e-01,2.78431e-04,9.99999e-01,9.99996e-01,2.78432e-04,9.99999e-01
4.246711247e-01,3.27298e-04,9.99999e-01,9.99996e-01,3.27299e-04,9.99999e-01
4.267944804e-01,3.83514e-04,9.99999e-01,9.99995e-01,3.83515e-04,9.99999e-01
4.289284528e-01,4.47982e-04,9.99999e-01,9.99996e-01,4.47983e-04,9.99999e-01
4.310730950e-01,5.21683e-04,9.99999e-01,9.99998e-01,5.21684e-04,9.99999e-01
4.332284605e-01,6.05685e-04,9.99999e-01,9.99999e-01,6.05685e-04,9.99999e-01
4.353946028e-01,7.01141e-04,9.99999e-01,9.99999e-01,7.01141e-04,9.99999e-01
4.375715758e-01,8.09296e-04,9.99999e-01,9.99997e-01,8.09298e-04,9.99999e-01
4.397594337e-01,9.31476e-04,9.99999e-01,9.99978e-01,9.31496e-04,9.99999e-01
4.419582309e-01,1.06905e-03,9.99999e-01,9.99890e-01,1.06917e-03,9.99999e-01
4.441680220e-01,1.22375e-03,9.99999e-01,9.99913e-01,1.22386e-03,9.99999e-01
4.463888621e-01,1.39706e-03,9.99999e-01,9.99909e-01,1.39719e-03,9.99999e-01
4.486208064e-01,1.59081e-03,9.99999e-01,9.99943e-01,1.59090e-03,9.99999e-01
4.508639105e-01,1.80679e-03,9.99999e-01,9.99973e-01,1.80683e-03,9.99999e-01
4.531182300e-01,2.04690e-03,9.99999e-01,9.99989e-01,2.04692e-03,9.99999e-01
4.553838212e-01,2.31318e-03,9.99999e-01,9.99992e-01,2.31320e-03,9.99999e-01
4.576607403e-01,2.60780e-03,9.99999e-01,9.99996e-01,2.60781e-03,9.99999e-01
4.599490440e-01,2.93299e-03,9.99999e-01,9.99997e-01,2.93300e-03,9.99999e-01
4.622487892e-01,3.29108e-03,9.99999e-01,9.99999e-01,3.29108e-03,9.99999e-01
4.645600332e-01,3.68448e-03,9.99999e-01,9.99997e-01,3.68449e-03,9.99999e-01
4.668828333e-01,4.11562e-03,9.99999e-01,9.99973e-01,4.11573e-03,9.99999e-01
4.692172475e-01,4.58715e-03,9.99999e-01,9.99943e-01,4.58741e-03,9.99999e-01
4.715633337e-01,5.10201e-03,9.99999e-01,9.99962e-01,5.10220e-03,9.99999e-01
4.739211504e-01,5.66265e-03,9.99999e-01,9.99964e-01,5.66285e-03,9.99999e-01
4.762907561e-01,6.27206e-03,9.99999e-01,9.99981e-01,6.27217e-03,9.99999e-01
4.786722099e-01,6.93300e-03,9.99999e-01,9.99992e-01,6.93305e-03,9.99999e-01
4.810655710e-01,7.64840e-03,9.99999e-01,9.99997e-01,7.64842e-03,9.99999e-01
4.834708988e-01,8.42107e-03,9.99999e-01,9.99978e-01,8.42124e-03,9.99999e-01
4.858882533e-01,9.25418e-03,9.99999e-01,9.99959e-01,9.25455e-03,9.99999e-01
4.883176946e-01,1.01510e-02,9.99999e-01,9.99966e-01,1.01514e-02,9.99999e-01
4.907592831e-01,1.11144e-02,9.99999e-01,9.99969e-01,1.11148e-02,9.99999e-01
4.932130795e-01,1.21476e-02,9.99999e-01,9.99978e-01,1.21478e-02,9.99999e-01
4.956791449e-01,1.32535e-02,9.99999e-01,9.99988e-01,1.32536e-02,9.99999e-01
4.981575406e-01,1.44344e-02,9.99999e-01,9.99943e-01,1.44352e-02,9.99999e-01
5.006483283e-01,1.56934e-02,9.99999e-01,9.99854e-01,1.56957e-02,9.99999e-01
5.031515699e-01,1.70253e-02,9.99999e-01,9.99258e-01,1.70379e-02,9.99999e-01
5.056673278e-01,1.84578e-02,9.99999e-01,9.99607e-01,1.84651e-02,9.99999e-01
5.081956644e-01,1.99701e-02,9.99999e-01,9.99505e-01,1.99800e-02,9.99999e-01
5.107366428e-01,2.15783e-02,9.99999e-01,9.99665e-01,2.15855e-02,9.99999e-01
5.132903260e-01,2.32800e-02,9.99999e-01,9.99808e-01,2.32845e-02,9.99999e-01
5.158567776e-01,2.50776e-02,9.99999e-01,9.99918e-01,2.50796e-02,9.99999e-01
5.184360615e-01,2.69727e-02,9.99999e-01,9.99967e-01,2.69736e-02,9.99999e-01
5.210282418e-01,2.89685e-02,9.99999e-01,9.99987e-01,2.89689e-02,9.99999e-01
5.236333830e-01,3.10664e-02,9.99999e-01,9.99951e-01,3.10679e-02,9.99999e-01
5.262515499e-01,3.32721e-02,9.99999e-01,9.99969e-01,3.32731e-02,9.99999e-01
5.288828077e-01,3.55855e-02,9.99999e-01,9.99971e-01,3.55865e-02,9.99999e-01
5.315272217e-01,3.80093e-02,9.99999e-01,9.99975e-01,3.80103e-02,9.99999e-01
5.341848578e-01,4.05457e-02,9.99999e-01,9.99983e-01,4.05463e-02,9.99999e-01
5.368557821e-01,4.31940e-02,9.99999e-01,9.99943e-01,4.31964e-02,9.99999e-01
5.395400610e-01,4.59529e-02,9.99999e-01,9.99797e-01,4.59622e-02,9.99999e-01
5.422377613e-01,4.88323e-02,9.99999e-01,9.99736e-01,4.88452e-02,9.99999e-01
5.449489501e-01,5.18340e-02,9.99999e-01,9.99756e-01,5.18467e-02,9.99999e-01
5.476736949e-01,5.49559e-02,9.99999e-01,9.99782e-01,5.49678e-02,9.99999e-01
5.504120634e-01,5.82004e-02,9.99999e-01,9.99842e-01,5.82096e-02,9.99999e-01
5.531641237e-01,6.15679e-02,9.99999e-01,9.99920e-01,6.15728e-02,9.99999e-01
5.559299443e-01,6.50556e-02,9.99999e-01,9.99961e-01,6.50581e-02,9.99999e-01
5.587095940e-01,6.86643e-02,9.99999e-01,9.99975e-01,6.86660e-02,9.99999e-01
5.615031420e-01,7.23948e-02,9.99999e-01,9.99972e-01,7.23967e-02,9.99999e-01
5.643106577e-01,7.62481e-02,9.99999e-01,9.99969e-01,7.62504e-02,9.99999e-01
5.671322110e-01,8.01980e-02,9.99999e-01,9.99637e-01,8.02270e-02,9.99999e-01
5.699678720e-01,8.42932e-02,9.99999e-01,9.99607e-01,8.43263e-02,9.99999e-01
5.728177114e-01,8.85119e-02,9.99999e-01,9.99593e-01,8.85478e-02,9.99999e-01
5.756818000e-01,9.28564e-02,9.99999e-01,9.99626e-01,9.28910e-02,9.99999e-01
5.785602090e-01,9.73234e-02,9.99999e-01,9.99674e-01,9.73551e-02,9.99999e-01
5.814530100e-01,1.01906e-01,9.99999e-01,9.99673e-01,1.01939e-01,9.99999e-01
5.843602750e-01,1.06601e-01,9.99999e-01,9.99612e-01,1.06642e-01,9.99999e-01
5.872820764e-01,1.11091e-01,9.99999e-01,9.96662e-01,1.11463e-01,9.99999e-01
5.902184868e-01,1.15926e-01,9.99999e-01,9.95932e-01,1.16400e-01,9.99999e-01
5.931695792e-01,1.21103e-01,9.99999e-01,9.97131e-01,1.21451e-01,9.99999e-01
5.961354271e-01,1.26217e-01,9.99999e-01,9.96850e-01,1.26615e-01,9.99999e-01
5.991161043e-01,1.31588e-01,9.99999e-01,9.97700e-01,1.31891e-01,9.99999e-01
6.021116848e-01,1.37096e-01,9.99999e-01,9.98693e-01,1.37275e-01,9.99999e-01
6.051222432e-01,1.42672e-01,9.99999e-01,9.99338e-01,1.42767e-01,9.99999e-01
6.081478544e-01,1.48321e-01,9.99999e-01,9.99714e-01,1.48363e-01,9.99999e-01
6.111885937e-01,1.54043e-01,9.99999e-01,9.99878e-01,1.54061e-01,9.99999e-01
6.142445367e-01,1.59851e-01,9.99999e-01,9.99945e-01,1.59860e-01,9.99999e-01
6.173157594e-01,1.65750e-01,9.99999e-01,9.99969e-01,1.65755e-01,9.99999e-01
6.204023382e-01,1.71741e-01,9.99999e-01,9.99974e-01,1.71745e-01,9.99999e-01
6.235043498e-01,1.77807e-01,9.99999e-01,9.99890e-01,1.77827e-01,9.99999e-01
6.266218716e-01,1.83890e-01,9.99999e-01,9.99415e-01,1.83997e-01,9.99999e-01
6.297549810e-01,1.90213e-01,9.99999e-01,9.99785e-01,1.90254e-01,9.99999e-01
6.329037559e-01,1.96510e-01,9.99999e-01,9.99575e-01,1.96593e-01,9.99999e-01
6.360682746e-01,2.02939e-01,9.99999e-01,9.99639e-01,2.03012e-01,9.99999e-01
6.392486160e-01,2.09410e-01,9.99999e-01,9.99531e-01,2.09508e-01,9.99999e-01
6.424448591e-01,2.15942e-01,9.99999e-01,9.99377e-01,2.16077e-01,9.99999e-01
6.456570834e-01,2.22072e-01,9.99999e-01,9.97110e-01,2.22716e-01,9.99999e-01
6.488853688e-01,2.28849e-01,9.99999e-01,9.97504e-01,2.29422e-01,9.99999e-01
6.521297956e-01,2.35678e-01,9.99999e-01,9.97826e-01,2.36191e-01,9.99999e-01
6.553904446e-01,2.42499e-01,9.99999e-01,9.97853e-01,2.43021e-01,9.99999e-01
6.586673968e-01,2.49444e-01,9.99999e-01,9.98146e-01,2.49907e-01,9.99999e-01
6.619607338e-01,2.56572e-01,9.99999e-01,9.98928e-01,2.56847e-01,9.99999e-01
6.652705375e-01,2.63672e-01,9.99999e-01,9.99378e-01,2.63836e-01,9.99999e-01
6.685968902e-01,2.70794e-01,9.99999e-01,9.99711e-01,2.70872e-01,9.99999e-01
6.719398746e-01,2.77914e-01,9.99999e-01,9.99865e-01,2.77951e-01,9.99999e-01
6.752995740e-01,2.85049e-01,9.99999e-01,9.99927e-01,2.85070e-01,9.99999e-01
6.786760719e-01,2.92195e-01,9.99999e-01,9.99895e-01,2.92225e-01,9.99999e-01
6.820694522e-01,2.99360e-01,9.99999e-01,9.99821e-01,2.99413e-01,9.99999e-01
6.854797995e-01,3.06561e-01,9.99999e-01,9.99770e-01,3.06631e-01,9.99999e-01
6.889071985e-01,3.13702e-01,9.99999e-01,9.99449e-01,3.13875e-01,9.99999e-01
6.923517345e-01,3.18241e-01,9.99999e-01,9.90967e-01,3.21142e-01,9.99999e-01
6.958134932e-01,3.26862e-01,9.99999e-01,9.95230e-01,3.28429e-01,9.99999e-01
6.992925606e-01,3.34231e-01,9.99999e-01,9.95529e-01,3.35732e-01,9.99999e-01
7.027890234e-01,3.41145e-01,9.99999e-01,9.94452e-01,3.43048e-01,9.99999e-01
7.063029686e-01,3.48742e-01,9.99999e-01,9.95337e-01,3.50375e-01,9.99999e-01
7.098344834e-01,3.56109e-01,9.99999e-01,9.95526e-01,3.57709e-01,9.99999e-01
7.133836558e-01,3.62889e-01,9.99999e-01,9.94089e-01,3.65047e-01,9.99999e-01
7.169505741e-01,3.54934e-01,9.99999e-01,9.53135e-01,3.72386e-01,9.99998e-01
7.205353270e-01,3.70808e-01,9.99999e-01,9.76522e-01,3.79723e-01,9.99998e-01
7.241380036e-01,3.75668e-01,9.99999e-01,9.70577e-01,3.87056e-01,9.99998e-01
7.277586936e-01,3.83889e-01,9.99999e-01,9.73395e-01,3.94381e-01,9.99998e-01
7.313974871e-01,3.90297e-01,9.99999e-01,9.71621e-01,4.01696e-01,9.99999e-01
7.350544745e-01,4.02629e-01,9.99999e-01,9.84425e-01,4.08999e-01,9.99999e-01
7.387297469e-01,4.11505e-01,9.99999e-01,9.88515e-01,4.16285e-01,9.99999e-01
7.424233956e-01,4.21165e-01,9.99999e-01,9.94357e-01,4.23554e-01,9.99999e-01
7.461355126e-01,4.29331e-01,9.99999e-01,9.96581e-01,4.30803e-01,9.99999e-01
7.498661902e-01,4.37330e-01,9.99999e-01,9.98404e-01,4.38029e-01,9.99999e-01
7.536155211e-01,4.44882e-01,9.99999e-01,9.99218e-01,4.45229e-01,9.99999e-01
7.573835987e-01,4.52221e-01,9.99999e-01,9.99597e-01,4.52403e-01,9.99999e-01
7.611705167e-01,4.59432e-01,9.99999e-01,9.99749e-01,4.59546e-01,9.99999e-01
7.649763693e-01,4.66586e-01,9.99999e-01,9.99843e-01,4.66658e-01,9.99999e-01
7.688012511e-01,4.73685e-01,9.99999e-01,9.99890e-01,4.73737e-01,9.99999e-01
7.726452574e-01,4.80737e-01,9.99999e-01,9.99910e-01,4.80780e-01,9.99999e-01
7.765084837e-01,4.87723e-01,9.99999e-01,9.99873e-01,4.87785e-01,9.99999e-01
7.803910261e-01,4.78505e-01,9.67674e-01,9.99453e-01,4.94751e-01,9.99999e-01
7.842929812e-01,4.31311e-01,8.61303e-01,9.98093e-01,5.01676e-01,9.99999e-01
7.882144461e-01,4.32057e-01,8.52808e-01,9.96052e-01,5.08558e-01,9.99999e-01
7.921555184e-01,4.68738e-01,9.11406e-01,9.97826e-01,5.15396e-01,9.99999e-01
7.961162960e-01,4.88745e-01,9.39502e-01,9.96188e-01,5.22188e-01,9.99999e-01
8.000968774e-01,5.09110e-01,9.66780e-01,9.95582e-01,5.28933e-01,9.99999e-01
8.040973618e-01,5.23995e-01,9.82607e-01,9.95584e-01,5.35629e-01,9.99999e-01
8.081178486e-01,5.32626e-01,9.92002e-01,9.90110e-01,5.42275e-01,9.99999e-01
8.121584379e-01,5.25234e-01,9.97509e-01,9.59301e-01,5.48870e-01,9.99999e-01
8.162192301e-01,5.28210e-01,9.99449e-01,9.51536e-01,5.55413e-01,9.99998e-01
8.203003262e-01,5.48307e-01,9.99990e-01,9.75813e-01,5.61902e-01,9.99998e-01
8.244018279e-01,5.48880e-01,9.99999e-01,9.65767e-01,5.68336e-01,9.99998e-01
8.285238370e-01,5.58012e-01,9.99999e-01,9.70936e-01,5.74715e-01,9.99998e-01
8.326664562e-01,5.63919e-01,9.99999e-01,9.70539e-01,5.81037e-01,9.99999e-01
8.368297885e-01,5.74885e-01,9.99999e-01,9.78858e-01,5.87302e-01,9.99999e-01
8.410139374e-01,5.86022e-01,9.99999e-01,9.87386e-01,5.93508e-01,9.99999e-01
8.452190071e-01,5.95934e-01,9.99999e-01,9.93793e-01,5.99656e-01,9.99999e-01
8.494451021e-01,6.03566e-01,9.99999e-01,9.96404e-01,6.05744e-01,9.99999e-01
8.536923276e-01,6.10468e-01,9.99999e-01,9.97867e-01,6.11772e-01,9.99999e-01
8.579607893e-01,6.16929e-01,9.99999e-01,9.98689e-01,6.17739e-01,9.99999e-01
8.622505932e-01,6.23124e-01,9.99999e-01,9.99165e-01,6.23644e-01,9.99999e-01
8.665618462e-01,5.83773e-01,9.27836e-01,9.99485e-01,6.29488e-01,9.99999e-01
8.708946554e-01,4.34984e-01,6.85111e-01,9.99411e-01,6.35269e-01,9.99999e-01
8.752491287e-01,4.71958e-01,7.36859e-01,9.99212e-01,6.40988e-01,9.99999e-01
8.796253743e-01,5.46166e-01,8.45509e-01,9.98911e-01,6.46644e-01,9.99999e-01
8.840235012e-01,5.97174e-01,9.16702e-01,9.98756e-01,6.52236e-01,9.99999e-01
8.884436187e-01,6.32727e-01,9.66226e-01,9.95516e-01,6.57765e-01,9.99999e-01
8.928858368e-01,6.23615e-01,9.86207e-01,9.53308e-01,6.63230e-01,9.99998e-01
8.973502660e-01,6.12002e-01,9.96619e-01,9.18348e-01,6.68632e-01,9.99998e-01
9.018370173e-01,6.44922e-01,9.99626e-01,9.57248e-01,6.73969e-01,9.99998e-01
9.063462024e-01,6.47972e-01,9.90655e-01,9.62683e-01,6.79242e-01,9.99998e-01
9.108779334e-01,6.31098e-01,9.78348e-01,9.42208e-01,6.84452e-01,9.99997e-01
9.154323231e-01,6.41200e-01,9.94845e-01,9.34535e-01,6.89597e-01,9.99997e-01
9.200094847e-01,6.13444e-01,9.28704e-01,9.48262e-01,6.94677e-01,9.99997e-01
9.246095321e-01,5.80188e-01,8.98452e-01,9.21203e-01,6.99694e-01,9.99995e-01
9.292325798e-01,3.76394e-01,9.20020e-01,5.75627e-01,7.04647e-01,9.99991e-01
9.338787427e-01,3.22297e-01,9.22099e-01,4.88426e-01,7.09536e-01,9.99989e-01
9.385481364e-01,5.05663e-01,9.42164e-01,7.48750e-01,7.14362e-01,9.99989e-01
9.432408771e-01,4.65938e-01,9.64116e-01,6.70716e-01,7.19124e-01,9.99987e-01
9.479570815e-01,4.10380e-01,9.81462e-01,5.77103e-01,7.23823e-01,9.99989e-01
9.526968669e-01,4.76987e-01,9.91009e-01,6.60210e-01,7.28459e-01,9.99991e-01
9.574603512e-01,4.98368e-01,9.96144e-01,6.82334e-01,7.33032e-01,9.99993e-01
9.622476530e-01,5.39348e-01,9.98795e-01,7.32111e-01,7.37542e-01,9.99995e-01
9.670588912e-01,6.19817e-01,9.99638e-01,8.35632e-01,7.41991e-01,9.99997e-01
9.718941857e-01,6.67156e-01,9.99973e-01,8.93881e-01,7.46377e-01,9.99998e-01
9.767536566e-01,6.83970e-01,9.99999e-01,9.11106e-01,7.50702e-01,9.99998e-01
9.816374249e-01,7.04563e-01,9.99999e-01,9.33238e-01,7.54966e-01,9.99998e-01
9.865456120e-01,7.27093e-01,9.99999e-01,9.57747e-01,7.59170e-01,9.99999e-01
9.914783401e-01,7.43226e-01,9.99999e-01,9.73685e-01,7.63312e-01,9.99999e-01
9.964357318e-01,7.56332e-01,9.99999e-01,9.85582e-01,7.67396e-01,9.99999e-01
1.001417910e+00,7.64735e-01,9.99999e-01,9.91334e-01,7.71419e-01,9.99999e-01
1.006425000e+00,7.71553e-01,9.99999e-01,9.95058e-01,7.75384e-01,9.99999e-01
1.011457125e+00,7.76894e-01,9.99999e-01,9.96925e-01,7.79290e-01,9.99999e-01
1.016514411e+00,7.81505e-01,9.99999e-01,9.97913e-01,7.83138e-01,9.99999e-01
1.021596983e+00,7.85585e-01,9.99953e-01,9.98338e-01,7.86928e-01,9.99999e-01
1.026704968e+00,7.86763e-01,9.96357e-01,9.98704e-01,7.90662e-01,9.99999e-01
1.031838492e+00,7.60563e-01,9.58356e-01,9.99056e-01,7.94339e-01,9.99999e-01
1.036997685e+00,1.24597e-01,1.56214e-01,9.99440e-01,7.97959e-01,9.99999e-01
1.042182673e+00,9.86194e-02,1.23112e-01,9.99334e-01,8.01525e-01,9.99999e-01
1.047393587e+00,1.17480e-01,1.46045e-01,9.99116e-01,8.05035e-01,9.99999e-01
1.052630555e+00,3.42192e-03,4.23624e-03,9.98788e-01,8.08491e-01,9.99999e-01
1.057893707e+00,8.55693e-03,1.05538e-02,9.97980e-01,8.11893e-01,9.99999e-01
1.063183176e+00,2.84182e-02,3.49420e-02,9.96675e-01,8.15242e-01,9.99999e-01
1.068499092e+00,7.95681e-02,9.76654e-02,9.94433e-01,8.18538e-01,9.99999e-01
1.073841587e+00,1.87326e-01,2.29222e-01,9.93495e-01,8.21782e-01,9.99999e-01
1.079210795e+00,3.22199e-01,3.93553e-01,9.91653e-01,8.24974e-01,9.99999e-01
1.084606849e+00,4.89426e-01,5.98203e-01,9.87403e-01,8.28115e-01,9.99999e-01
1.090029883e+00,6.25565e-01,7.66010e-01,9.82014e-01,8.31206e-01,9.99998e-01
1.095480033e+00,6.96502e-01,8.76813e-01,9.51680e-01,8.34247e-01,9.99998e-01
1.100957433e+00,6.93392e-01,9.38646e-01,8.81758e-01,8.37238e-01,9.99997e-01
1.106462220e+00,5.95547e-01,9.74138e-01,7.26987e-01,8.40181e-01,9.99994e-01
1.111994531e+00,4.27037e-01,9.90336e-01,5.11122e-01,8.43076e-01,9.99990e-01
1.117554504e+00,2.85639e-01,9.97625e-01,3.38325e-01,8.45924e-01,9.99986e-01
1.123142276e+00,3.83889e-01,9.99842e-01,4.52355e-01,8.48724e-01,9.99983e-01
1.128757988e+00,5.11324e-01,9.99999e-01,6.00522e-01,8.51478e-01,9.99982e-01
1.134401778e+00,2.89306e-01,9.99999e-01,3.38698e-01,8.54187e-01,9.99980e-01
1.140073787e+00,6.31417e-01,9.99999e-01,7.36916e-01,8.56850e-01,9.99984e-01
1.145774156e+00,4.55426e-01,9.99999e-01,5.29899e-01,8.59469e-01,9.99986e-01
1.151503026e+00,4.25657e-01,9.99999e-01,4.93782e-01,8.62043e-01,9.99988e-01
1.157260541e+00,4.77919e-01,9.99999e-01,5.52784e-01,8.64575e-01,9.99990e-01
1.163046844e+00,5.58849e-01,9.99999e-01,6.44534e-01,8.67064e-01,9.99994e-01
1.168862078e+00,6.40459e-01,9.99999e-01,7.36576e-01,8.69510e-01,9.99996e-01
1.174706389e+00,7.22007e-01,9.99999e-01,8.28070e-01,8.71915e-01,9.99998e-01
1.180579921e+00,7.79343e-01,9.99999e-01,8.91413e-01,8.74279e-01,9.99998e-01
1.186482820e+00,8.21501e-01,9.99994e-01,9.37148e-01,8.76602e-01,9.99998e-01
1.192415234e+00,8.35440e-01,9.87096e-01,9.62853e-01,8.78885e-01,9.99998e-01
1.198377311e+00,4.82599e-01,5.62497e-01,9.68638e-01,8.81129e-01,9.99998e-01
1.204369197e+00,4.26109e-11,4.90860e-11,9.70281e-01,8.83335e-01,9.99999e-01
1.210391043e+00,3.10886e-40,3.56749e-40,9.71558e-01,8.85502e-01,9.99999e-01
1.216442998e+00,5.04606e-35,5.77175e-35,9.75720e-01,8.87631e-01,9.99999e-01
1.222525213e+00,1.61600e-34,1.83424e-34,9.81060e-01,8.89723e-01,9.99999e-01
1.228637839e+00,9.81538e-27,1.11081e-26,9.86818e-01,8.91779e-01,9.99999e-01
1.234781029e+00,2.31128e-17,2.59692e-17,9.90188e-01,8.93799e-01,9.99999e-01
1.240954934e+00,9.58344e-12,1.07415e-11,9.93789e-01,8.95783e-01,9.99999e-01
1.247159708e+00,1.48743e-06,1.66172e-06,9.95158e-01,8.97733e-01,9.99999e-01
1.253395507e+00,3.11904e-04,3.47816e-04,9.95705e-01,8.99648e-01,9.99999e-01
1.259662485e+00,9.33271e-03,1.03861e-02,9.95926e-01,9.01529e-01,9.99999e-01
1.265960797e+00,6.35509e-02,7.07169e-02,9.93486e-01,9.03377e-01,9.99999e-01
1.272290601e+00,2.68515e-01,2.99216e-01,9.90446e-01,9.05192e-01,9.99999e-01
1.278652054e+00,2.51172e-01,2.81441e-01,9.79896e-01,9.06975e-01,9.99999e-01
1.285045314e+00,7.03392e-03,7.86803e-03,9.68549e-01,9.08726e-01,9.99998e-01
1.291470541e+00,2.00456e-05,2.29471e-05,9.37707e-01,9.10445e-01,9.99998e-01
1.297927893e+00,4.39970e-03,5.02943e-03,9.19425e-01,9.12134e-01,9.99997e-01
1.304417533e+00,1.08271e-01,1.30532e-01,8.97345e-01,9.13792e-01,9.99995e-01
1.310939621e+00,2.76092e-02,3.24886e-02,8.83675e-01,9.15421e-01,9.99992e-01
1.317494319e+00,2.49617e-14,2.94394e-14,8.73972e-01,9.17020e-01,9.99987e-01
1.324081790e+00,5.72585e-10,6.85822e-10,8.17838e-01,9.18591e-01,9.99980e-01
1.330702199e+00,4.88703e-06,7.85772e-06,4.59765e-01,9.20133e-01,9.99967e-01
1.337355710e+00,2.46120e-06,9.92371e-06,1.32695e-01,9.21647e-01,9.99938e-01
1.344042489e+00,3.94283e-07,3.05280e-06,8.20118e-03,9.23133e-01,9.99868e-01
1.350762701e+00,7.18924e-10,4.82766e-06,3.99934e-05,9.24593e-01,9.99790e-01
1.357516515e+00,1.05143e-09,3.88837e-04,6.48459e-07,9.26026e-01,9.99740e-01
1.364304097e+00,1.19232e-06,6.03595e-03,1.02540e-04,9.27433e-01,9.99721e-01
1.371125618e+00,2.18319e-04,6.94227e-02,2.05959e-03,9.28814e-01,9.99719e-01
1.377981246e+00,6.99850e-04,1.12482e-01,5.18590e-03,9.30170e-01,9.99698e-01
1.384871152e+00,4.74127e-05,2.80304e-01,1.43984e-04,9.31500e-01,9.99701e-01
1.391795508e+00,5.02765e-05,3.08559e-01,1.39232e-04,9.32807e-01,9.99744e-01
1.398754485e+00,3.01090e-04,4.83997e-01,6.20164e-04,9.34089e-01,9.99786e-01
1.405748258e+00,3.50011e-04,5.85910e-01,5.80919e-04,9.35348e-01,9.99808e-01
1.412776999e+00,4.15280e-04,7.13294e-01,5.78673e-04,9.36584e-01,9.99845e-01
1.419840884e+00,7.31408e-04,6.44922e-01,9.90651e-04,9.37797e-01,9.99884e-01
1.426940089e+00,1.31826e-03,6.04842e-02,4.31329e-03,9.38987e-01,9.99928e-01
1.434074789e+00,0.00000e+00,0.00000e+00,1.57296e-02,9.40155e-01,9.99955e-01
1.441245163e+00,0.00000e+00,0.00000e+00,3.99359e-02,9.41302e-01,9.99965e-01
1.448451389e+00,0.00000e+00,0.00000e+00,1.02211e-01,9.42427e-01,9.99970e-01
1.455693646e+00,4.44659e-323,9.88131e-323,2.17864e-01,9.43532e-01,9.99975e-01
1.462972114e+00,9.55294e-157,2.24267e-156,2.69247e-01,9.44616e-01,9.99979e-01
1.470286975e+00,4.72079e-66,1.17914e-65,2.16569e-01,9.45679e-01,9.99981e-01
