#,Wave/freq,Total,CO2,H2O,Rayleigh,CIA
4.000000000e-01,1.74378e-18,9.99999e-01,9.99919e-01,1.74392e-18,9.99999e-01
4.020000000e-01,3.91414e-18,9.99999e-01,9.99950e-01,3.91433e-18,9.99999e-01
4.040100000e-01,8.63947e-18,9.99999e-01,9.99978e-01,8.63965e-18,9.99999e-01
4.060300500e-01,1.87733e-17,9.99999e-01,9.99994e-01,1.87734e-17,9.99999e-01
4.080602003e-01,4.01727e-17,9.99999e-01,9.99997e-01,4.01727e-17,9.99999e-01
4.101005013e-01,8.46827e-17,9.99999e-01,9.99999e-01,8.46827e-17,9.99999e-01
4.121510038e-01,1.75897e-16,9.99999e-01,9.99996e-01,1.75898e-16,9.99999e-01
4.142117588e-01,3.60119e-16,9.99999e-01,9.99977e-01,3.60127e-16,9.99999e-01
4.162828176e-01,7.26877e-16,9.99999e-01,9.99900e-01,7.26949e-16,9.99999e-01
4.183642317e-01,1.44711e-15,9.99999e-01,9.99940e-01,1.44719e-15,9.99999e-01
4.204560528e-01,2.84202e-15,9.99999e-01,9.99963e-01,2.84212e-15,9.99999e-01
4.225583331e-01,5.50762e-15,9.99999e-01,9.99986e-01,5.50769e-15,9.99999e-01
4.246711247e-01,1.05346e-14,9.99999e-01,9.99988e-01,1.05347e-14,9.99999e-01
4.267944804e-01,1.98931e-14,9.99999e-01,9.99983e-01,1.98934e-14,9.99999e-01
4.289284528e-01,3.70969e-14,9.99999e-01,9.99987e-01,3.70974e-14,9.99999e-01
4.310730950e-01,6.83329e-14,9.99999e-01,9.99994e-01,6.83332e-14,9.99999e-01
4.332284605e-01,1.24360e-13,9.99999e-01,9.99998e-01,1.24360e-13,9.99999e-01
4.353946028e-01,2.23662e-13,9.99999e-01,9.99998e-01,2.23662e-13,9.99999e-01
4.375715758e-01,3.97617e-13,9.99999e-01,9.99989e-01,3.97621e-13,9.99999e-01
4.397594337e-01,6.98832e-13,9.99999e-01,9.99912e-01,6.98893e-13,9.99999e-01
4.419582309e-01,1.21428e-12,9.99999e-01,9.99554e-01,1.21482e-12,9.99999e-01
4.441680220e-01,2.08797e-12,9.99999e-01,9.99655e-01,2.08869e-12,9.99999e-01
4.463888621e-01,3.55164e-12,9.99999e-01,9.99640e-01,3.55292e-12,9.99999e-01
4.486208064e-01,5.97920e-12,9.99999e-01,9.99777e-01,5.98053e-12,9.99999e-01
4.508639105e-01,9.96281e-12,9.99999e-01,9.99895e-01,9.96384e-12,9.99999e-01
4.531182300e-01,1.64330e-11,9.99999e-01,9.99958e-01,1.64337e-11,9.99999e-01
4.553838212e-01,2.68373e-11,9.99999e-01,9.99971e-01,2.68381e-11,9.99999e-01
4.576607403e-01,4.34064e-11,9.99999e-01,9.99986e-01,4.34070e-11,9.99999e-01
4.599490440e-01,6.95408e-11,9.99999e-01,9.99990e-01,6.95414e-11,9.99999e-01
4.622487892e-01,1.10378e-10,9.99999e-01,9.99997e-01,1.10378e-10,9.99999e-01
4.645600332e-01,1.73604e-10,9.99999e-01,9.99993e-01,1.73605e-10,9.99999e-01
4.668828333e-01,2.70588e-10,9.99999e-01,9.99893e-01,2.70617e-10,9.99999e-01
4.692172475e-01,4.18063e-10,9.99999e-01,9.99774e-01,4.18157e-10,9.99999e-01
4.715633337e-01,6.40512e-10,9.99999e-01,9.99852e-01,6.40606e-10,9.99999e-01
4.739211504e-01,9.73022e-10,9.99999e-01,9.99858e-01,9.73159e-10,9.99999e-01
4.762907561e-01,1.46608e-09,9.99999e-01,9.99926e-01,1.46619e-09,9.99999e-01
4.786722099e-01,2.19112e-09,9.99999e-01,9.99969e-01,2.19119e-09,9.99999e-01
4.810655710e-01,3.24877e-09,9.99999e-01,9.99990e-01,3.24879e-09,9.99999e-01
4.834708988e-01,4.77913e-09,9.99999e-01,9.99912e-01,4.77955e-09,9.99999e-01
4.858882533e-01,6.97703e-09,9.99999e-01,9.99840e-01,6.97814e-09,9.99999e-01
4.883176946e-01,1.01109e-08,9.99999e-01,9.99866e-01,1.01122e-08,9.99999e-01
4.907592831e-01,1.45451e-08,9.99999e-01,9.99879e-01,1.45469e-08,9.99999e-01
4.932130795e-01,2.07748e-08,9.99999e-01,9.99914e-01,2.07766e-08,9.99999e-01
4.956791449e-01,2.94647e-08,9.99999e-01,9.99954e-01,2.94660e-08,9.99999e-01
4.981575406e-01,4.14928e-08,9.99999e-01,9.99772e-01,4.15022e-08,9.99999e-01
5.006483283e-01,5.80265e-08,9.99999e-01,9.99409e-01,5.80607e-08,9.99999e-01
5.031515699e-01,8.04489e-08,9.99999e-01,9.97025e-01,8.06889e-08,9.99999e-01
5.056673278e-01,1.11235e-07,9.99999e-01,9.98431e-01,1.11409e-07,9.99999e-01
5.081956644e-01,1.52547e-07,9.99999e-01,9.98022e-01,1.52849e-07,9.99999e-01
5.107366428e-01,2.08118e-07,9.99999e-01,9.98664e-01,2.08396e-07,9.99999e-01
5.132903260e-01,2.82181e-07,9.99999e-01,9.99237e-01,2.82396e-07,9.99999e-01
5.158567776e-01,3.80260e-07,9.99999e-01,9.99677e-01,3.80382e-07,9.99999e-01
5.184360615e-01,5.09297e-07,9.99999e-01,9.99870e-01,5.09362e-07,9.99999e-01
5.210282418e-01,6.78122e-07,9.99999e-01,9.99951e-01,6.78154e-07,9.99999e-01
5.236333830e-01,8.97617e-07,9.99999e-01,9.99805e-01,8.97791e-07,9.99999e-01
5.262515499e-01,1.18185e-06,9.99999e-01,9.99878e-01,1.18199e-06,9.99999e-01
5.288828077e-01,1.54756e-06,9.99999e-01,9.99888e-01,1.54773e-06,9.99999e-01
5.315272217e-01,2.01568e-06,9.99999e-01,9.99902e-01,2.01587e-06,9.99999e-01
5.341848578e-01,2.61178e-06,9.99999e-01,9.99935e-01,2.61195e-06,9.99999e-01
5.368557821e-01,3.36624e-06,9.99999e-01,9.99773e-01,3.36700e-06,9.99999e-01
5.395400610e-01,4.31507e-06,9.99999e-01,9.99180e-01,4.31861e-06,9.99999e-01
5.422377613e-01,5.50620e-06,9.99999e-01,9.98948e-01,5.51200e-06,9.99999e-01
5.449489501e-01,6.99447e-06,9.99999e-01,9.99018e-01,7.00134e-06,9.99999e-01
5.476736949e-01,8.84353e-06,9.99999e-01,9.99134e-01,8.85119e-06,9.99999e-01
5.504120634e-01,1.11311e-05,9.99999e-01,9.99371e-01,1.11381e-05,9.99999e-01
5.531641237e-01,1.39480e-05,9.99999e-01,9.99683e-01,1.39524e-05,9.99999e-01
5.559299443e-01,1.73975e-05,9.99999e-01,9.99847e-01,1.74002e-05,9.99999e-01
5.587095940e-01,2.16034e-05,9.99999e-01,9.99903e-01,2.16055e-05,9.99999e-01
5.615031420e-01,2.67099e-05,9.99999e-01,9.99892e-01,2.67127e-05,9.99999e-01
5.643106577e-01,3.28851e-05,9.99999e-01,9.99877e-01,3.28891e-05,9.99999e-01
5.671322110e-01,4.02677e-05,9.99999e-01,9.98515e-01,4.03275e-05,9.99999e-01
5.699678720e-01,4.91728e-05,9.99999e-01,9.98442e-01,4.92495e-05,9.99999e-01
5.728177114e-01,5.98107e-05,9.99999e-01,9.98369e-01,5.99084e-05,9.99999e-01
5.756818000e-01,7.24841e-05,9.99999e-01,9.98505e-01,7.25926e-05,9.99999e-01
5.785602090e-01,8.75154e-05,9.99999e-01,9.98698e-01,8.76294e-05,9.99999e-01
5.814530100e-01,1.05250e-04,9.99999e-01,9.98690e-01,1.05388e-04,9.99999e-01
5.843602750e-01,1.26088e-04,9.99999e-01,9.98434e-01,1.26285e-04,9.99999e-01
5.872820764e-01,1.48766e-04,9.99999e-01,9.86604e-01,1.50786e-04,9.99999e-01
5.902184868e-01,1.76510e-04,9.99999e-01,9.83835e-01,1.79410e-04,9.99999e-01
5.931695792e-01,2.10302e-04,9.99999e-01,9.88551e-01,2.12737e-04,9.99999e-01
5.961354271e-01,2.48254e-04,9.99999e-01,9.87460e-01,2.51407e-04,9.99999e-01
5.991161043e-01,2.93415e-04,9.99999e-01,9.90841e-01,2.96127e-04,9.99999e-01
6.021116848e-01,3.45868e-04,9.99999e-01,9.94796e-01,3.47677e-04,9.99999e-01
6.051222432e-01,4.05835e-04,9.99999e-01,9.97364e-01,4.06908e-04,9.99999e-01
6.081478544e-01,4.74212e-04,9.99999e-01,9.98861e-01,4.74752e-04,9.99999e-01
6.111885937e-01,5.51958e-04,9.99999e-01,9.99518e-01,5.52224e-04,9.99999e-01
6.142445367e-01,6.40284e-04,9.99999e-01,9.99784e-01,6.40422e-04,9.99999e-01
6.173157594e-01,7.40449e-04,9.99999e-01,9.99880e-01,7.40536e-04,9.99999e-01
6.204023382e-01,8.53762e-04,9.99999e-01,9.99898e-01,8.53848e-04,9.99999e-01
6.235043498e-01,9.81295e-04,9.99999e-01,9.99553e-01,9.81733e-04,9.99999e-01
6.266218716e-01,1.12303e-03,9.99999e-01,9.97656e-01,1.12566e-03,9.99999e-01
6.297549810e-01,1.28611e-03,9.99999e-01,9.99139e-01,1.28721e-03,9.99999e-01
6.329037559e-01,1.46557e-03,9.99999e-01,9.98303e-01,1.46806e-03,9.99999e-01
6.360682746e-01,1.66754e-03,9.99999e-01,9.98551e-01,1.66996e-03,9.99999e-01
6.392486160e-01,1.89125e-03,9.99999e-01,9.98125e-01,1.89481e-03,9.99999e-01
6.424448591e-01,2.13917e-03,9.99999e-01,9.97481e-01,2.14457e-03,9.99999e-01
6.456570834e-01,2.39315e-03,9.99999e-01,9.88366e-01,2.42132e-03,9.99999e-01
6.488853688e-01,2.70411e-03,9.99999e-01,9.91518e-01,2.72724e-03,9.99999e-01
6.521297956e-01,3.03812e-03,9.99999e-01,9.91358e-01,3.06461e-03,9.99999e-01
6.553904446e-01,3.40612e-03,9.99999e-01,9.91368e-01,3.43578e-03,9.99999e-01
6.586673968e-01,3.81486e-03,9.99999e-01,9.92621e-01,3.84321e-03,9.99999e-01
6.619607338e-01,4.27179e-03,9.99999e-01,9.95880e-01,4.28946e-03,9.99999e-01
6.652705375e-01,4.76533e-03,9.99999e-01,9.97525e-01,4.77715e-03,9.99999e-01
6.685968902e-01,5.30339e-03,9.99999e-01,9.98947e-01,5.30898e-03,9.99999e-01
6.719398746e-01,5.88459e-03,9.99999e-01,9.99467e-01,5.88772e-03,9.99999e-01
6.752995740e-01,6.51435e-03,9.99999e-01,9.99710e-01,6.51623e-03,9.99999e-01
6.786760719e-01,7.19439e-03,9.99999e-01,9.99580e-01,7.19740e-03,9.99999e-01
6.820694522e-01,7.92850e-03,9.99999e-01,9.99284e-01,7.93417e-03,9.99999e-01
6.854797995e-01,8.72149e-03,9.99999e-01,9.99076e-01,8.72955e-03,9.99999e-01
6.889071985e-01,9.56499e-03,9.99999e-01,9.97751e-01,9.58655e-03,9.99999e-01
6.923517345e-01,1.01311e-02,9.99999e-01,9.64111e-01,1.05082e-02,9.99999e-01
6.958134932e-01,1.12836e-02,9.99999e-01,9.81381e-01,1.14976e-02,9.99999e-01
6.992925606e-01,1.23330e-02,9.99999e-01,9.82094e-01,1.25579e-02,9.99999e-01
7.027890234e-01,1.33910e-02,9.99999e-01,9.78015e-01,1.36920e-02,9.99999e-01
7.063029686e-01,1.46269e-02,9.99999e-01,9.81463e-01,1.49031e-02,9.99999e-01
7.098344834e-01,1.59060e-02,9.99999e-01,9.82203e-01,1.61942e-02,9.99999e-01
7.133836558e-01,1.71513e-02,9.99999e-01,9.76264e-01,1.75683e-02,9.99998e-01
7.169505741e-01,1.57375e-02,9.99999e-01,8.27059e-01,1.90283e-02,9.99997e-01
7.205353270e-01,1.87575e-02,9.99999e-01,9.11571e-01,2.05772e-02,9.99997e-01
7.241380036e-01,1.97302e-02,9.99999e-01,8.88037e-01,2.22178e-02,9.99996e-01
7.277586936e-01,2.15210e-02,9.99999e-01,8.98475e-01,2.39529e-02,9.99997e-01
7.313974871e-01,2.30078e-02,9.99999e-01,8.92288e-01,2.57851e-02,9.99997e-01
7.350544745e-01,2.60392e-02,9.99999e-01,9.39462e-01,2.77172e-02,9.99998e-01
7.387297469e-01,2.84131e-02,9.99999e-01,9.55015e-01,2.97515e-02,9.99999e-01
7.424233956e-01,3.11804e-02,9.99999e-01,9.77735e-01,3.18904e-02,9.99999e-01
7.461355126e-01,3.36733e-02,9.99999e-01,9.86435e-01,3.41363e-02,9.99999e-01
7.498661902e-01,3.62603e-02,9.99999e-01,9.93670e-01,3.64913e-02,9.99999e-01
7.536155211e-01,3.88361e-02,9.99999e-01,9.96885e-01,3.89574e-02,9.99999e-01
7.573835987e-01,4.14698e-02,9.99999e-01,9.98396e-01,4.15364e-02,9.99999e-01
7.611705167e-01,4.41861e-02,9.99999e-01,9.99003e-01,4.42302e-02,9.99999e-01
7.649763693e-01,4.70108e-02,9.99999e-01,9.99374e-01,4.70402e-02,9.99999e-01
7.688012511e-01,4.99461e-02,9.99999e-01,9.99564e-01,4.99679e-02,9.99999e-01
7.726452574e-01,5.29955e-02,9.99999e-01,9.99641e-01,5.30145e-02,9.99999e-01
7.765084837e-01,5.61525e-02,9.99999e-01,9.99488e-01,5.61812e-02,9.99999e-01
7.803910261e-01,5.31405e-02,8.95377e-01,9.97789e-01,5.94689e-02,9.99999e-01
7.842929812e-01,3.59545e-02,5.75612e-01,9.92306e-01,6.28783e-02,9.99999e-01
7.882144461e-01,3.65969e-02,5.58826e-01,9.84274e-01,6.64100e-02,9.99999e-01
7.921555184e-01,4.83040e-02,6.94942e-01,9.91371e-01,7.00644e-02,9.99999e-01
7.961162960e-01,5.68497e-02,7.81436e-01,9.84718e-01,7.38417e-02,9.99999e-01
8.000968774e-01,6.68025e-02,8.74513e-01,9.82398e-01,7.77419e-02,9.99999e-01
8.040973618e-01,7.49422e-02,9.32864e-01,9.82387e-01,8.17650e-02,9.99999e-01
8.081178486e-01,7.99521e-02,9.68491e-01,9.60712e-01,8.59107e-02,9.99998e-01
8.121584379e-01,7.56909e-02,9.90208e-01,8.47335e-01,9.01783e-02,9.99997e-01
8.162192301e-01,7.76421e-02,9.97829e-01,8.22687e-01,9.45674e-02,9.99996e-01
8.203003262e-01,9.00103e-02,9.99968e-01,9.08508e-01,9.90771e-02,9.99996e-01
8.244018279e-01,9.09522e-02,9.99999e-01,8.77019e-01,1.03706e-01,9.99996e-01
8.285238370e-01,9.64294e-02,9.99999e-01,8.89129e-01,1.08454e-01,9.99997e-01
8.326664562e-01,1.00673e-01,9.99999e-01,8.88403e-01,1.13319e-01,9.99997e-01
8.368297885e-01,1.08664e-01,9.99999e-01,9.18549e-01,1.18299e-01,9.99998e-01
8.410139374e-01,1.17312e-01,9.99999e-01,9.50714e-01,1.23394e-01,9.99999e-01
8.452190071e-01,1.25451e-01,9.99999e-01,9.75510e-01,1.28600e-01,9.99999e-01
8.494451021e-01,1.32001e-01,9.99999e-01,9.85688e-01,1.33917e-01,9.99999e-01
8.536923276e-01,1.38162e-01,9.99999e-01,9.91527e-01,1.39342e-01,9.99999e-01
8.579607893e-01,1.44116e-01,9.99999e-01,9.94766e-01,1.44874e-01,9.99999e-01
8.622505932e-01,1.50009e-01,9.99999e-01,9.96676e-01,1.50509e-01,9.99999e-01
8.665618462e-01,1.33080e-01,8.53366e-01,9.97939e-01,1.56246e-01,9.99999e-01
8.708946554e-01,4.19777e-02,2.59544e-01,9.97638e-01,1.62081e-01,9.99999e-01
8.752491287e-01,5.38046e-02,3.21173e-01,9.96843e-01,1.68013e-01,9.99999e-01
8.796253743e-01,9.12353e-02,5.26310e-01,9.95624e-01,1.74038e-01,9.99999e-01
8.840235012e-01,1.27479e-01,7.10970e-01,9.95006e-01,1.80153e-01,9.99999e-01
8.884436187e-01,1.59894e-01,8.73285e-01,9.81833e-01,1.86357e-01,9.99998e-01
8.928858368e-01,1.51073e-01,9.46358e-01,8.27123e-01,1.92645e-01,9.99996e-01
8.973502660e-01,1.40989e-01,9.86730e-01,7.17245e-01,1.99015e-01,9.99995e-01
9.018370173e-01,1.73292e-01,9.98530e-01,8.44527e-01,2.05463e-01,9.99994e-01
9.063462024e-01,1.76422e-01,9.63274e-01,8.60248e-01,2.11987e-01,9.99993e-01
9.108779334e-01,1.59203e-01,9.16833e-01,7.91418e-01,2.18583e-01,9.99993e-01
9.154323231e-01,1.69321e-01,9.79903e-01,7.65933e-01,2.25248e-01,9.99992e-01
9.200094847e-01,1.51562e-01,7.79255e-01,8.12397e-01,2.31978e-01,9.99990e-01
9.246095321e-01,1.16730e-01,6.55906e-01,7.30131e-01,2.38771e-01,9.99984e-01
9.292325798e-01,2.79730e-02,7.23087e-01,1.45719e-01,2.45622e-01,9.99968e-01
9.338787427e-01,1.62189e-02,7.28320e-01,8.21543e-02,2.52529e-01,9.99958e-01
9.385481364e-01,7.66824e-02,7.90145e-01,3.60694e-01,2.59488e-01,9.99957e-01
9.432408771e-01,6.02886e-02,8.64929e-01,2.56102e-01,2.66495e-01,9.99952e-01
9.479570815e-01,3.85069e-02,9.28077e-01,1.50073e-01,2.73548e-01,9.99958e-01
9.526968669e-01,6.25231e-02,9.64731e-01,2.29204e-01,2.80643e-01,9.99968e-01
9.574603512e-01,6.94969e-02,9.84749e-01,2.44484e-01,2.87776e-01,9.99976e-01
9.622476530e-01,9.13089e-02,9.95219e-01,3.10784e-01,2.94944e-01,9.99984e-01
9.670588912e-01,1.52501e-01,9.98566e-01,5.05334e-01,3.02143e-01,9.99989e-01
9.718941857e-01,1.98963e-01,9.99899e-01,6.43173e-01,3.09371e-01,9.99993e-01
9.767536566e-01,2.19323e-01,9.99999e-01,6.92693e-01,3.16624e-01,9.99995e-01
9.816374249e-01,2.46383e-01,9.99999e-01,7.60681e-01,3.23899e-01,9.99996e-01
9.865456120e-01,2.78980e-01,9.99999e-01,8.42349e-01,3.31193e-01,9.99998e-01
9.914783401e-01,3.04340e-01,9.99999e-01,8.99080e-01,3.38501e-01,9.99999e-01
9.964357318e-01,3.26353e-01,9.99999e-01,9.43702e-01,3.45822e-01,9.99999e-01
1.001417910e+00,3.41092e-01,9.99999e-01,9.65850e-01,3.53152e-01,9.99999e-01
1.006425000e+00,3.53408e-01,9.99999e-01,9.80362e-01,3.60487e-01,9.99999e-01
1.011457125e+00,3.63333e-01,9.99999e-01,9.87782e-01,3.67826e-01,9.99999e-01
1.016514411e+00,3.72045e-01,9.99999e-01,9.91684e-01,3.75165e-01,9.99999e-01
1.021596983e+00,3.79882e-01,9.99782e-01,9.93366e-01,3.82501e-01,9.99999e-01
1.026704968e+00,3.82093e-01,9.85225e-01,9.94822e-01,3.89831e-01,9.99999e-01
1.031838492e+00,3.51317e-01,8.87719e-01,9.96237e-01,3.97153e-01,9.99999e-01
1.036997685e+00,1.55092e-02,3.84096e-02,9.97761e-01,4.04463e-01,9.99999e-01
1.042182673e+00,4.92274e-04,1.19790e-03,9.97326e-01,4.11760e-01,9.99999e-01
1.047393587e+00,1.40870e-03,3.37148e-03,9.96459e-01,4.19041e-01,9.99999e-01
1.052630555e+00,2.62824e-08,6.18383e-08,9.95141e-01,4.26302e-01,9.99999e-01
1.057893707e+00,9.96288e-08,2.30723e-07,9.91896e-01,4.33542e-01,9.99999e-01
1.063183176e+00,5.99789e-06,1.37086e-05,9.86709e-01,4.40759e-01,9.99999e-01
1.068499092e+00,8.48558e-05,1.92034e-04,9.77865e-01,4.47949e-01,9.99999e-01
1.073841587e+00,1.72458e-03,3.85788e-03,9.74154e-01,4.55112e-01,9.99999e-01
1.079210795e+00,1.40078e-02,3.10799e-02,9.67024e-01,4.62244e-01,9.99998e-01
1.084606849e+00,6.15168e-02,1.36889e-01,9.50520e-01,4.69343e-01,9.99997e-01
1.090029883e+00,1.56867e-01,3.51672e-01,9.29673e-01,4.76408e-01,9.99996e-01
1.095480033e+00,2.38173e-01,5.95971e-01,8.20146e-01,4.83437e-01,9.99994e-01
1.100957433e+00,2.34347e-01,7.77834e-01,6.08344e-01,4.90428e-01,9.99990e-01
1.106462220e+00,1.35675e-01,9.01156e-01,2.99138e-01,4.97379e-01,9.99980e-01
1.111994531e+00,4.17535e-02,9.62089e-01,8.53809e-02,5.04288e-01,9.99961e-01
1.117554504e+00,1.11312e-02,9.90633e-01,2.18892e-02,5.11153e-01,9.99946e-01
1.123142276e+00,3.87644e-02,9.99384e-01,7.48476e-02,5.17974e-01,9.99936e-01
1.128757988e+00,8.38967e-02,9.99999e-01,1.59891e-01,5.24748e-01,9.99930e-01
1.134401778e+00,3.82508e-02,9.99999e-01,7.19765e-02,5.31475e-01,9.99922e-01
1.140073787e+00,1.70041e-01,9.99999e-01,3.15991e-01,5.38152e-01,9.99937e-01
1.145774156e+00,5.94262e-02,9.99999e-01,1.09089e-01,5.44779e-01,9.99946e-01
1.151503026e+00,4.73621e-02,9.99999e-01,8.59053e-02,5.51354e-01,9.99954e-01
1.157260541e+00,6.06575e-02,9.99999e-01,1.08733e-01,5.57876e-01,9.99965e-01
1.163046844e+00,1.07744e-01,9.99999e-01,1.90922e-01,5.64345e-01,9.99977e-01
1.168862078e+00,1.73559e-01,9.99999e-01,3.04089e-01,5.70758e-01,9.99988e-01
1.174706389e+00,2.75879e-01,9.99999e-01,4.78034e-01,5.77116e-01,9.99993e-01
1.180579921e+00,3.71019e-01,9.99999e-01,6.35944e-01,5.83416e-01,9.99995e-01
1.186482820e+00,4.55456e-01,9.99968e-01,7.72425e-01,5.89659e-01,9.99996e-01
1.192415234e+00,4.87847e-01,9.50445e-01,8.59594e-01,5.95843e-01,9.99996e-01
1.198377311e+00,2.71203e-01,5.00865e-01,8.80267e-01,6.01969e-01,9.99997e-01
1.204369197e+00,9.73333e-38,1.71659e-37,8.86779e-01,6.08034e-01,9.99997e-01
1.210391043e+00,1.29323e-154,2.24577e-154,8.91212e-01,6.14039e-01,9.99998e-01
1.216442998e+00,1.02897e-133,1.76380e-133,9.06761e-01,6.19982e-01,9.99998e-01
1.222525213e+00,1.09232e-131,1.81547e-131,9.26451e-01,6.25865e-01,9.99998e-01
1.228637839e+00,1.84646e-101,3.02934e-101,9.48294e-01,6.31685e-01,9.99999e-01
1.234781029e+00,7.14327e-63,1.13988e-62,9.61371e-01,6.37442e-01,9.99999e-01
1.240954934e+00,1.51693e-41,2.39457e-41,9.75383e-01,6.43137e-01,9.99999e-01
1.247159708e+00,1.13635e-19,1.77172e-19,9.80780e-01,6.48769e-01,9.99999e-01
1.253395507e+00,2.11161e-13,3.26573e-13,9.82907e-01,6.54338e-01,9.99999e-01
1.259662485e+00,7.13036e-08,1.09309e-07,9.83739e-01,6.59842e-01,9.99999e-01
1.265960797e+00,1.11801e-04,1.70764e-04,9.74177e-01,6.65283e-01,9.99998e-01
1.272290601e+00,9.88934e-03,1.52188e-02,9.59694e-01,6.70661e-01,9.99998e-01
1.278652054e+00,9.42207e-03,1.46600e-02,9.21677e-01,6.75974e-01,9.99998e-01
1.285045314e+00,3.33202e-06,5.18941e-06,8.62900e-01,6.81223e-01,9.99996e-01
1.291470541e+00,6.21089e-18,1.04047e-17,7.73743e-01,6.86408e-01,9.99994e-01
1.297927893e+00,3.63593e-06,6.11160e-06,6.95535e-01,6.91528e-01,9.99990e-01
1.304417533e+00,2.22919e-04,4.38078e-04,6.53976e-01,6.96585e-01,9.99983e-01
1.310939621e+00,6.34183e-05,1.18793e-04,6.14427e-01,7.01578e-01,9.99971e-01
1.317494319e+00,2.73218e-52,5.16089e-52,5.91632e-01,7.06506e-01,9.99952e-01
1.324081790e+00,3.57233e-34,7.18511e-34,4.62163e-01,7.11371e-01,9.99922e-01
1.330702199e+00,1.19396e-20,4.22323e-20,1.10292e-01,7.16173e-01,9.99871e-01
1.337355710e+00,1.56515e-20,3.14771e-18,1.19721e-03,7.20911e-01,9.99754e-01
1.344042489e+00,7.46556e-22,1.85536e-18,1.66570e-05,7.25586e-01,9.99473e-01
1.350762701e+00,3.52506e-34,1.98058e-20,1.89709e-15,7.30198e-01,9.99159e-01
1.357516515e+00,5.29986e-33,3.56526e-12,7.53120e-23,7.34747e-01,9.98959e-01
1.364304097e+00,1.45254e-21,5.33851e-09,3.91795e-14,7.39234e-01,9.98884e-01
1.371125618e+00,1.24925e-12,6.30064e-05,7.15762e-09,7.43659e-01,9.98875e-01
1.377981246e+00,1.44573e-11,2.19511e-04,2.25967e-08,7.48022e-01,9.98792e-01
1.384871152e+00,7.77800e-14,7.18008e-03,6.45622e-12,7.52324e-01,9.98825e-01
1.391795508e+00,7.09977e-16,1.08625e-02,2.75664e-14,7.56565e-01,9.99004e-01
1.398754485e+00,2.24176e-12,5.58382e-02,3.51916e-11,7.60746e-01,9.99144e-01
1.405748258e+00,5.30267e-12,1.23728e-01,3.86282e-11,7.64866e-01,9.99232e-01
1.412776999e+00,1.79059e-11,2.63265e-01,5.86037e-11,7.68926e-01,9.99383e-01
1.419840884e+00,3.11766e-11,2.54906e-01,1.01880e-10,7.72927e-01,9.99539e-01
1.426940089e+00,2.69617e-08,7.75461e-03,1.52463e-07,7.76870e-01,9.99714e-01
1.434074789e+00,0.00000e+00,0.00000e+00,1.68350e-06,7.80754e-01,9.99822e-01
1.441245163e+00,0.00000e+00,0.00000e+00,1.84120e-05,7.84580e-01,9.99861e-01
1.448451389e+00,0.00000e+00,0.00000e+00,6.08280e-04,7.88349e-01,9.99884e-01
1.455693646e+00,0.00000e+00,0.00000e+00,6.43185e-03,7.92061e-01,9.99904e-01
1.462972114e+00,0.00000e+00,0.00000e+00,9.46895e-03,7.95716e-01,9.99918e-01
1.470286975e+00,3.59765e-258,1.41466e-256,4.75106e-03,7.99316e-01,9.99927e-01
