#,Wave/freq,Total,CO2,H2O,Rayleigh,CIA
4.000000000e-01,2.72710e-03,9.99999e-01,9.99987e-01,2.72713e-03,9.99999e-01
4.020000000e-01,3.06482e-03,9.99999e-01,9.99992e-01,3.06484e-03,9.99999e-01
4.040100000e-01,3.43602e-03,9.99999e-01,9.99996e-01,3.43603e-03,9.99999e-01
4.060300500e-01,3.84349e-03,9.99999e-01,9.99998e-01,3.84350e-03,9.99999e-01
4.080602003e-01,4.28977e-03,9.99999e-01,9.99999e-01,4.28977e-03,9.99999e-01
4.101005013e-01,4.77748e-03,9.99999e-01,9.99999e-01,4.77748e-03,9.99999e-01
4.121510038e-01,5.30934e-03,9.99999e-01,9.99999e-01,5.30934e-03,9.99999e-01
4.142117588e-01,5.88810e-03,9.99999e-01,9.99996e-01,5.88812e-03,9.99999e-01
4.162828176e-01,6.51657e-03,9.99999e-01,9.99985e-01,6.51666e-03,9.99999e-01
4.183642317e-01,7.19781e-03,9.99999e-01,9.99991e-01,7.19787e-03,9.99999e-01
4.204560528e-01,7.93464e-03,9.99999e-01,9.99994e-01,7.93468e-03,9.99999e-01
4.225583331e-01,8.73007e-03,9.99999e-01,9.99997e-01,8.73009e-03,9.99999e-01
4.246711247e-01,9.58712e-03,9.99999e-01,9.99997e-01,9.58713e-03,9.99999e-01
4.267944804e-01,1.05088e-02,9.99999e-01,9.99997e-01,1.05089e-02,9.99999e-01
4.289284528e-01,1.14983e-02,9.99999e-01,9.99997e-01,1.14983e-02,9.99999e-01
4.310730950e-01,1.25586e-02,9.99999e-01,9.99998e-01,1.25586e-02,9.99999e-01
4.332284605e-01,1.36928e-02,9.99999e-01,9.99999e-01,1.36928e-02,9.99999e-01
4.353946028e-01,1.49039e-02,9.99999e-01,9.99999e-01,1.49039e-02,9.99999e-01
4.375715758e-01,1.61951e-02,9.99999e-01,9.99998e-01,1.61951e-02,9.99999e-01
4.397594337e-01,1.75690e-02,9.99999e-01,9.99986e-01,1.75692e-02,9.99999e-01
4.419582309e-01,1.90281e-02,9.99999e-01,9.99934e-01,1.90293e-02,9.99999e-01
4.441680220e-01,2.05772e-02,9.99999e-01,9.99950e-01,2.05782e-02,9.99999e-01
4.463888621e-01,2.22178e-02,9.99999e-01,9.99947e-01,2.22189e-02,9.99999e-01
4.486208064e-01,2.39533e-02,9.99999e-01,9.99967e-01,2.39541e-02,9.99999e-01
4.508639105e-01,2.57860e-02,9.99999e-01,9.99984e-01,2.57864e-02,9.99999e-01
4.531182300e-01,2.77183e-02,9.99999e-01,9.99993e-01,2.77185e-02,9.99999e-01
4.553838212e-01,2.97527e-02,9.99999e-01,9.99995e-01,2.97528e-02,9.99999e-01
4.576607403e-01,3.18918e-02,9.99999e-01,9.99997e-01,3.18919e-02,9.99999e-01
4.599490440e-01,3.41378e-02,9.99999e-01,9.99998e-01,3.41378e-02,9.99999e-01
4.622487892e-01,3.64929e-02,9.99999e-01,9.99999e-01,3.64929e-02,9.99999e-01
4.645600332e-01,3.89590e-02,9.99999e-01,9.99998e-01,3.89590e-02,9.99999e-01
4.668828333e-01,4.15375e-02,9.99999e-01,9.99984e-01,4.15382e-02,9.99999e-01
4.692172475e-01,4.42305e-02,9.99999e-01,9.99967e-01,4.42320e-02,9.99999e-01
4.715633337e-01,4.70411e-02,9.99999e-01,9.99978e-01,4.70421e-02,9.99999e-01
4.739211504e-01,4.99688e-02,9.99999e-01,9.99979e-01,4.99698e-02,9.99999e-01
4.762907561e-01,5.30160e-02,9.99999e-01,9.99989e-01,5.30166e-02,9.99999e-01
4.786722099e-01,5.61831e-02,9.99999e-01,9.99995e-01,5.61834e-02,9.99999e-01
4.810655710e-01,5.94710e-02,9.99999e-01,9.99998e-01,5.94711e-02,9.99999e-01
4.834708988e-01,6.28798e-02,9.99999e-01,9.99986e-01,6.28806e-02,9.99999e-01
4.858882533e-01,6.64108e-02,9.99999e-01,9.99976e-01,6.64124e-02,9.99999e-01
4.883176946e-01,7.00655e-02,9.99999e-01,9.99980e-01,7.00668e-02,9.99999e-01
4.907592831e-01,7.38429e-02,9.99999e-01,9.99982e-01,7.38442e-02,9.99999e-01
4.932130795e-01,7.77436e-02,9.99999e-01,9.99987e-01,7.77445e-02,9.99999e-01
4.956791449e-01,8.17672e-02,9.99999e-01,9.99992e-01,8.17677e-02,9.99999e-01
4.981575406e-01,8.59106e-02,9.99999e-01,9.99966e-01,8.59134e-02,9.99999e-01
5.006483283e-01,9.01735e-02,9.99999e-01,9.99913e-01,9.01812e-02,9.99999e-01
5.031515699e-01,9.45296e-02,9.99999e-01,9.99568e-01,9.45704e-02,9.99999e-01
5.056673278e-01,9.90577e-02,9.99999e-01,9.99773e-01,9.90801e-02,9.99999e-01
5.081956644e-01,1.03680e-01,9.99999e-01,9.99714e-01,1.03709e-01,9.99999e-01
5.107366428e-01,1.08436e-01,9.99999e-01,9.99806e-01,1.08457e-01,9.99999e-01
5.132903260e-01,1.13310e-01,9.99999e-01,9.99889e-01,1.13322e-01,9.99999e-01
5.158567776e-01,1.18297e-01,9.99999e-01,9.99953e-01,1.18302e-01,9.99999e-01
5.184360615e-01,1.23395e-01,9.99999e-01,9.99980e-01,1.23397e-01,9.99999e-01
5.210282418e-01,1.28603e-01,9.99999e-01,9.99992e-01,1.28604e-01,9.99999e-01
5.236333830e-01,1.33917e-01,9.99999e-01,9.99971e-01,1.33921e-01,9.99999e-01
5.262515499e-01,1.39344e-01,9.99999e-01,9.99982e-01,1.39346e-01,9.99999e-01
5.288828077e-01,1.44875e-01,9.99999e-01,9.99983e-01,1.44878e-01,9.99999e-01
5.315272217e-01,1.50511e-01,9.99999e-01,9.99985e-01,1.50513e-01,9.99999e-01
5.341848578e-01,1.56248e-01,9.99999e-01,9.99990e-01,1.56249e-01,9.99999e-01
5.368557821e-01,1.62080e-01,9.99999e-01,9.99966e-01,1.62085e-01,9.99999e-01
5.395400610e-01,1.67996e-01,9.99999e-01,9.99879e-01,1.68017e-01,9.99999e-01
5.422377613e-01,1.74015e-01,9.99999e-01,9.99848e-01,1.74042e-01,9.99999e-01
5.449489501e-01,1.80132e-01,9.99999e-01,9.99857e-01,1.80157e-01,9.99999e-01
5.476736949e-01,1.86338e-01,9.99999e-01,9.99874e-01,1.86361e-01,9.99999e-01
5.504120634e-01,1.92632e-01,9.99999e-01,9.99909e-01,1.92649e-01,9.99999e-01
5.531641237e-01,1.99010e-01,9.99999e-01,9.99954e-01,1.99019e-01,9.99999e-01
5.559299443e-01,2.05463e-01,9.99999e-01,9.99977e-01,2.05468e-01,9.99999e-01
5.587095940e-01,2.11989e-01,9.99999e-01,9.99985e-01,2.11991e-01,9.99999e-01
5.615031420e-01,2.18584e-01,9.99999e-01,9.99984e-01,2.18587e-01,9.99999e-01
5.643106577e-01,2.25248e-01,9.99999e-01,9.99981e-01,2.25252e-01,9.99999e-01
5.671322110e-01,2.31932e-01,9.99999e-01,9.99781e-01,2.31983e-01,9.99999e-01
5.699678720e-01,2.38722e-01,9.99999e-01,9.99776e-01,2.38775e-01,9.99999e-01
5.728177114e-01,2.45569e-01,9.99999e-01,9.99763e-01,2.45627e-01,9.99999e-01
5.756818000e-01,2.52479e-01,9.99999e-01,9.99783e-01,2.52534e-01,9.99999e-01
5.785602090e-01,2.59444e-01,9.99999e-01,9.99811e-01,2.59493e-01,9.99999e-01
5.814530100e-01,2.66450e-01,9.99999e-01,9.99810e-01,2.66500e-01,9.99999e-01
5.843602750e-01,2.73491e-01,9.99999e-01,9.99771e-01,2.73553e-01,9.99999e-01
5.872820764e-01,2.80097e-01,9.99999e-01,9.98037e-01,2.80647e-01,9.99999e-01
5.902184868e-01,2.87105e-01,9.99999e-01,9.97651e-01,2.87780e-01,9.99999e-01
5.931695792e-01,2.94457e-01,9.99999e-01,9.98333e-01,2.94948e-01,9.99999e-01
5.961354271e-01,3.01598e-01,9.99999e-01,9.98178e-01,3.02148e-01,9.99999e-01
5.991161043e-01,3.08966e-01,9.99999e-01,9.98673e-01,3.09376e-01,9.99999e-01
6.021116848e-01,3.16391e-01,9.99999e-01,9.99248e-01,3.16629e-01,9.99999e-01
6.051222432e-01,3.23781e-01,9.99999e-01,9.99619e-01,3.23904e-01,9.99999e-01
6.081478544e-01,3.31143e-01,9.99999e-01,9.99835e-01,3.31197e-01,9.99999e-01
6.111885937e-01,3.38483e-01,9.99999e-01,9.99930e-01,3.38506e-01,9.99999e-01
6.142445367e-01,3.45816e-01,9.99999e-01,9.99968e-01,3.45827e-01,9.99999e-01
6.173157594e-01,3.53150e-01,9.99999e-01,9.99982e-01,3.53157e-01,9.99999e-01
6.204023382e-01,3.60487e-01,9.99999e-01,9.99984e-01,3.60492e-01,9.99999e-01
6.235043498e-01,3.67807e-01,9.99999e-01,9.99934e-01,3.67831e-01,9.99999e-01
6.266218716e-01,3.75043e-01,9.99999e-01,9.99660e-01,3.75170e-01,9.99999e-01
6.297549810e-01,3.82458e-01,9.99999e-01,9.99875e-01,3.82506e-01,9.99999e-01
6.329037559e-01,3.89741e-01,9.99999e-01,9.99754e-01,3.89836e-01,9.99999e-01
6.360682746e-01,3.97074e-01,9.99999e-01,9.99789e-01,3.97158e-01,9.99999e-01
6.392486160e-01,4.04359e-01,9.99999e-01,9.99728e-01,4.04468e-01,9.99999e-01
6.424448591e-01,4.11614e-01,9.99999e-01,9.99632e-01,4.11765e-01,9.99999e-01
6.456570834e-01,4.18332e-01,9.99999e-01,9.98297e-01,4.19045e-01,9.99999e-01
6.488853688e-01,4.25783e-01,9.99999e-01,9.98771e-01,4.26307e-01,9.99999e-01
6.521297956e-01,4.33004e-01,9.99999e-01,9.98747e-01,4.33547e-01,9.99999e-01
6.553904446e-01,4.40211e-01,9.99999e-01,9.98745e-01,4.40763e-01,9.99999e-01
6.586673968e-01,4.47476e-01,9.99999e-01,9.98931e-01,4.47954e-01,9.99999e-01
6.619607338e-01,4.54846e-01,9.99999e-01,9.99404e-01,4.55116e-01,9.99999e-01
6.652705375e-01,4.62083e-01,9.99999e-01,9.99642e-01,4.62248e-01,9.99999e-01
6.685968902e-01,4.69277e-01,9.99999e-01,9.99848e-01,4.69348e-01,9.99999e-01
6.719398746e-01,4.76377e-01,9.99999e-01,9.99922e-01,4.76413e-01,9.99999e-01
6.752995740e-01,4.83422e-01,9.99999e-01,9.99958e-01,4.83442e-01,9.99999e-01
6.786760719e-01,4.90403e-01,9.99999e-01,9.99938e-01,4.90433e-01,9.99999e-01
6.820694522e-01,4.97331e-01,9.99999e-01,9.99895e-01,4.97383e-01,9.99999e-01
6.854797995e-01,5.04225e-01,9.99999e-01,9.99865e-01,5.04292e-01,9.99999e-01
6.889071985e-01,5.10936e-01,9.99999e-01,9.99566e-01,5.11158e-01,9.99999e-01
6.923517345e-01,5.15215e-01,9.99999e-01,9.94664e-01,5.17978e-01,9.99999e-01
6.958134932e-01,5.23341e-01,9.99999e-01,9.97308e-01,5.24753e-01,9.99999e-01
6.992925606e-01,5.30084e-01,9.99999e-01,9.97374e-01,5.31479e-01,9.99999e-01
7.027890234e-01,5.36431e-01,9.99999e-01,9.96792e-01,5.38157e-01,9.99999e-01
7.063029686e-01,5.43313e-01,9.99999e-01,9.97300e-01,5.44783e-01,9.99999e-01
7.098344834e-01,5.49931e-01,9.99999e-01,9.97410e-01,5.51358e-01,9.99999e-01
7.133836558e-01,5.55922e-01,9.99999e-01,9.96489e-01,5.57881e-01,9.99999e-01
7.169505741e-01,5.48667e-01,9.99999e-01,9.72211e-01,5.64349e-01,9.99999e-01
7.205353270e-01,5.63146e-01,9.99999e-01,9.86654e-01,5.70762e-01,9.99999e-01
7.241380036e-01,5.67150e-01,9.99999e-01,9.82724e-01,5.77120e-01,9.99999e-01
7.277586936e-01,5.74329e-01,9.99999e-01,9.84417e-01,5.83420e-01,9.99999e-01
7.313974871e-01,5.79990e-01,9.99999e-01,9.83594e-01,5.89663e-01,9.99999e-01
7.350544745e-01,5.90481e-01,9.99999e-01,9.90993e-01,5.95847e-01,9.99999e-01
7.387297469e-01,5.97985e-01,9.99999e-01,9.93375e-01,6.01973e-01,9.99999e-01
7.424233956e-01,6.06071e-01,9.99999e-01,9.96765e-01,6.08038e-01,9.99999e-01
7.461355126e-01,6.12836e-01,9.99999e-01,9.98034e-01,6.14043e-01,9.99999e-01
7.498661902e-01,6.19421e-01,9.99999e-01,9.99088e-01,6.19986e-01,9.99999e-01
7.536155211e-01,6.25588e-01,9.99999e-01,9.99550e-01,6.25868e-01,9.99999e-01
7.573835987e-01,6.31543e-01,9.99999e-01,9.99768e-01,6.31689e-01,9.99999e-01
7.611705167e-01,6.37355e-01,9.99999e-01,9.99856e-01,6.37446e-01,9.99999e-01
7.649763693e-01,6.43083e-01,9.99999e-01,9.99909e-01,6.43141e-01,9.99999e-01
7.688012511e-01,6.48732e-01,9.99999e-01,9.99936e-01,6.48773e-01,9.99999e-01
7.726452574e-01,6.54307e-01,9.99999e-01,9.99947e-01,6.54341e-01,9.99999e-01
7.765084837e-01,6.59797e-01,9.99999e-01,9.99925e-01,6.59846e-01,9.99999e-01
7.803910261e-01,6.50927e-01,9.78723e-01,9.99677e-01,6.65287e-01,9.99999e-01
7.842929812e-01,6.14314e-01,9.16979e-01,9.98875e-01,6.70664e-01,9.99999e-01
7.882144461e-01,6.13977e-01,9.10314e-01,9.97711e-01,6.75977e-01,9.99999e-01
7.921555184e-01,6.44538e-01,9.47308e-01,9.98752e-01,6.81226e-01,9.99999e-01
7.961162960e-01,6.60824e-01,9.64870e-01,9.97762e-01,6.86411e-01,9.99999e-01
8.000968774e-01,6.76489e-01,9.80755e-01,9.97436e-01,6.91532e-01,9.99999e-01
8.040973618e-01,6.87882e-01,9.90041e-01,9.97430e-01,6.96588e-01,9.99999e-01
8.081178486e-01,6.94278e-01,9.95394e-01,9.94163e-01,7.01581e-01,9.99999e-01
8.121584379e-01,6.88514e-01,9.98595e-01,9.75891e-01,7.06510e-01,9.99999e-01
8.162192301e-01,6.91096e-01,9.99689e-01,9.71792e-01,7.11375e-01,9.99999e-01
8.203003262e-01,7.05746e-01,9.99995e-01,9.85439e-01,7.16176e-01,9.99999e-01
8.244018279e-01,7.06740e-01,9.99999e-01,9.80338e-01,7.20914e-01,9.99999e-01
8.285238370e-01,7.13223e-01,9.99999e-01,9.82957e-01,7.25589e-01,9.99999e-01
8.326664562e-01,7.17684e-01,9.99999e-01,9.82858e-01,7.30201e-01,9.99999e-01
8.368297885e-01,7.25769e-01,9.99999e-01,9.87776e-01,7.34750e-01,9.99999e-01
8.410139374e-01,7.33862e-01,9.99999e-01,9.92728e-01,7.39237e-01,9.99999e-01
8.452190071e-01,7.41012e-01,9.99999e-01,9.96436e-01,7.43662e-01,9.99999e-01
8.494451021e-01,7.46471e-01,9.99999e-01,9.97921e-01,7.48025e-01,9.99999e-01
8.536923276e-01,7.51406e-01,9.99999e-01,9.98775e-01,7.52327e-01,9.99999e-01
8.579607893e-01,7.55996e-01,9.99999e-01,9.99243e-01,7.56568e-01,9.99999e-01
8.622505932e-01,7.60384e-01,9.99999e-01,9.99520e-01,7.60748e-01,9.99999e-01
8.665618462e-01,7.23371e-01,9.46019e-01,9.99701e-01,7.64868e-01,9.99999e-01
8.708946554e-01,6.14145e-01,7.98968e-01,9.99657e-01,7.68929e-01,9.99999e-01
8.752491287e-01,6.46618e-01,8.36955e-01,9.99542e-01,7.72930e-01,9.99999e-01
8.796253743e-01,7.04767e-01,9.07751e-01,9.99364e-01,7.76872e-01,9.99999e-01
8.840235012e-01,7.42165e-01,9.51255e-01,9.99274e-01,7.80756e-01,9.99999e-01
8.884436187e-01,7.67304e-01,9.80622e-01,9.97286e-01,7.84583e-01,9.99999e-01
8.928858368e-01,7.60379e-01,9.92097e-01,9.72161e-01,7.88351e-01,9.99999e-01
8.973502660e-01,7.52455e-01,9.98088e-01,9.51791e-01,7.92063e-01,9.99998e-01
9.018370173e-01,7.75944e-01,9.99789e-01,9.75349e-01,7.95719e-01,9.99998e-01
9.063462024e-01,7.77258e-01,9.94346e-01,9.77831e-01,7.99318e-01,9.99998e-01
9.108779334e-01,7.65835e-01,9.87508e-01,9.65861e-01,8.02863e-01,9.99998e-01
9.154323231e-01,7.73038e-01,9.97098e-01,9.61440e-01,8.06352e-01,9.99998e-01
9.200094847e-01,7.51314e-01,9.55815e-01,9.69749e-01,8.09788e-01,9.99998e-01
9.246095321e-01,7.27774e-01,9.40158e-01,9.51290e-01,8.13170e-01,9.99997e-01
9.292325798e-01,5.60294e-01,9.51929e-01,7.18437e-01,8.16498e-01,9.99994e-01
9.338787427e-01,5.14198e-01,9.54249e-01,6.55244e-01,8.19774e-01,9.99993e-01
9.385481364e-01,6.71995e-01,9.66209e-01,8.44062e-01,8.22999e-01,9.99993e-01
9.432408771e-01,6.35960e-01,9.79268e-01,7.85501e-01,8.26171e-01,9.99992e-01
9.479570815e-01,5.86202e-01,9.89286e-01,7.14248e-01,8.29293e-01,9.99993e-01
9.526968669e-01,6.47364e-01,9.94834e-01,7.81554e-01,8.32365e-01,9.99995e-01
9.574603512e-01,6.66281e-01,9.97791e-01,7.99268e-01,8.35387e-01,9.99996e-01
9.622476530e-01,6.99121e-01,9.99311e-01,8.34470e-01,8.38361e-01,9.99997e-01
9.670588912e-01,7.57782e-01,9.99794e-01,9.00923e-01,8.41285e-01,9.99998e-01
9.718941857e-01,7.90984e-01,9.99985e-01,9.37017e-01,8.44162e-01,9.99998e-01
9.767536566e-01,8.02465e-01,9.99999e-01,9.47429e-01,8.46992e-01,9.99998e-01
9.816374249e-01,8.16584e-01,9.99999e-01,9.60942e-01,8.49774e-01,9.99999e-01
9.865456120e-01,8.31575e-01,9.99999e-01,9.75441e-01,8.52511e-01,9.99999e-01
9.914783401e-01,8.42159e-01,9.99999e-01,9.84747e-01,8.55202e-01,9.99999e-01
9.964357318e-01,8.50702e-01,9.99999e-01,9.91668e-01,8.57849e-01,9.99999e-01
1.001417910e+00,8.56152e-01,9.99999e-01,9.95004e-01,8.60451e-01,9.99999e-01
1.006425000e+00,8.60542e-01,9.99999e-01,9.97141e-01,8.63009e-01,9.99999e-01
1.011457125e+00,8.63993e-01,9.99999e-01,9.98230e-01,8.65524e-01,9.99999e-01
1.016514411e+00,8.66952e-01,9.99999e-01,9.98796e-01,8.67997e-01,9.99999e-01
1.021596983e+00,8.69562e-01,9.99964e-01,9.99039e-01,8.70427e-01,9.99999e-01
1.026704968e+00,8.70233e-01,9.97786e-01,9.99250e-01,8.72816e-01,9.99999e-01
1.031838492e+00,8.45453e-01,9.66561e-01,9.99456e-01,8.75165e-01,9.99999e-01
1.036997685e+00,2.18235e-01,2.48775e-01,9.99676e-01,8.77473e-01,9.99999e-01
1.042182673e+00,2.51814e-01,2.86340e-01,9.99612e-01,8.79741e-01,9.99999e-01
1.047393587e+00,2.38690e-01,2.70758e-01,9.99487e-01,8.81970e-01,9.99999e-01
1.052630555e+00,2.68207e-02,3.03513e-02,9.99295e-01,8.84161e-01,9.99999e-01
1.057893707e+00,5.44258e-02,6.14622e-02,9.98821e-01,8.86314e-01,9.99999e-01
1.063183176e+00,1.16352e-01,1.31165e-01,9.98062e-01,8.88429e-01,9.99999e-01
1.068499092e+00,2.25090e-01,2.53501e-01,9.96764e-01,8.90508e-01,9.99999e-01
1.073841587e+00,3.75926e-01,4.22629e-01,9.96202e-01,8.92550e-01,9.99999e-01
1.079210795e+00,5.16710e-01,5.80276e-01,9.95158e-01,8.94556e-01,9.99999e-01
1.084606849e+00,6.61542e-01,7.43203e-01,9.92659e-01,8.96527e-01,9.99999e-01
1.090029883e+00,7.62196e-01,8.57298e-01,9.89373e-01,8.98463e-01,9.99999e-01
1.095480033e+00,8.11039e-01,9.27153e-01,9.71388e-01,9.00366e-01,9.99998e-01
1.100957433e+00,8.08182e-01,9.64229e-01,9.28784e-01,9.02234e-01,9.99998e-01
1.106462220e+00,7.37112e-01,9.85089e-01,8.27399e-01,9.04069e-01,9.99996e-01
1.111994531e+00,6.05657e-01,9.94448e-01,6.72161e-01,9.05872e-01,9.99994e-01
1.117554504e+00,4.75946e-01,9.98651e-01,5.25005e-01,9.07643e-01,9.99991e-01
1.123142276e+00,5.64168e-01,9.99911e-01,6.20426e-01,9.09382e-01,9.99990e-01
1.128757988e+00,6.71850e-01,9.99999e-01,7.37421e-01,9.11089e-01,9.99989e-01
1.134401778e+00,4.51970e-01,9.99999e-01,4.95170e-01,9.12767e-01,9.99988e-01
1.140073787e+00,7.63553e-01,9.99999e-01,8.35026e-01,9.14414e-01,9.99990e-01
1.145774156e+00,6.28195e-01,9.99999e-01,6.85784e-01,9.16031e-01,9.99991e-01
1.151503026e+00,6.01253e-01,9.99999e-01,6.55234e-01,9.17619e-01,9.99992e-01
1.157260541e+00,6.49156e-01,9.99999e-01,7.06237e-01,9.19179e-01,9.99994e-01
1.163046844e+00,7.12921e-01,9.99999e-01,7.74318e-01,9.20710e-01,9.99996e-01
1.168862078e+00,7.72743e-01,9.99999e-01,8.37922e-01,9.22214e-01,9.99998e-01
1.174706389e+00,8.28190e-01,9.99999e-01,8.96610e-01,9.23690e-01,9.99998e-01
1.180579921e+00,8.65739e-01,9.99999e-01,9.35792e-01,9.25140e-01,9.99998e-01
1.186482820e+00,8.92466e-01,9.99994e-01,9.63206e-01,9.26563e-01,9.99999e-01
1.192415234e+00,9.00661e-01,9.92010e-01,9.78348e-01,9.27960e-01,9.99999e-01
1.198377311e+00,5.27759e-01,5.76760e-01,9.81677e-01,9.29331e-01,9.99999e-01
1.204369197e+00,2.24681e-07,2.43864e-07,9.82664e-01,9.30677e-01,9.99999e-01
1.210391043e+00,2.95427e-24,3.19935e-24,9.83426e-01,9.31999e-01,9.99999e-01
1.216442998e+00,3.09602e-21,3.34659e-21,9.85923e-01,9.33296e-01,9.99999e-01
1.222525213e+00,6.19508e-21,6.66691e-21,9.89016e-01,9.34570e-01,9.99999e-01
1.228637839e+00,3.80039e-16,4.08315e-16,9.92355e-01,9.35820e-01,9.99999e-01
1.234781029e+00,5.37451e-11,5.74989e-11,9.94327e-01,9.37047e-01,9.99999e-01
1.240954934e+00,1.93917e-07,2.07176e-07,9.96405e-01,9.38251e-01,9.99999e-01
1.247159708e+00,1.71839e-04,1.83269e-04,9.97203e-01,9.39433e-01,9.99999e-01
1.253395507e+00,7.75340e-03,8.25954e-03,9.97512e-01,9.40593e-01,9.99999e-01
1.259662485e+00,6.12999e-02,6.52255e-02,9.97629e-01,9.41731e-01,9.99999e-01
1.265960797e+00,1.93789e-01,2.06216e-01,9.96225e-01,9.42849e-01,9.99999e-01
1.272290601e+00,4.89042e-01,5.21023e-01,9.94048e-01,9.43945e-01,9.99999e-01
1.278652054e+00,4.22039e-01,4.51128e-01,9.88200e-01,9.45022e-01,9.99999e-01
1.285045314e+00,1.95160e-02,2.08438e-02,9.78650e-01,9.46078e-01,9.99999e-01
1.291470541e+00,1.49673e-03,1.62369e-03,9.63082e-01,9.47114e-01,9.99998e-01
1.297927893e+00,4.43971e-02,4.84436e-02,9.47868e-01,9.48131e-01,9.99998e-01
1.304417533e+00,2.73433e-01,3.05600e-01,9.38931e-01,9.49129e-01,9.99997e-01
1.310939621e+00,4.98069e-02,5.47933e-02,9.23385e-01,9.50109e-01,9.99995e-01
1.317494319e+00,7.68646e-09,8.49066e-09,9.24826e-01,9.51069e-01,9.99992e-01
1.324081790e+00,2.29456e-05,2.54494e-05,8.90782e-01,9.52012e-01,9.99987e-01
1.330702199e+00,6.57952e-04,9.20099e-04,6.02110e-01,9.52938e-01,9.99979e-01
1.337355710e+00,4.14999e-04,1.08915e-03,2.60040e-01,9.53845e-01,9.99964e-01
1.344042489e+00,1.29983e-05,1.31776e-04,3.14133e-02,9.54736e-01,9.99923e-01
1.350762701e+00,2.40776e-06,6.88515e-04,1.52029e-03,9.55610e-01,9.99878e-01
1.357516515e+00,3.16834e-06,8.58557e-03,1.66764e-04,9.56467e-01,9.99849e-01
1.364304097e+00,2.15062e-04,5.00978e-02,3.03822e-03,9.57309e-01,9.99838e-01
1.371125618e+00,5.28329e-03,2.07213e-01,2.05161e-02,9.58134e-01,9.99837e-01
1.377981246e+00,1.07910e-02,2.81288e-01,3.54832e-02,9.58944e-01,9.99825e-01
1.384871152e+00,1.34729e-03,4.78390e-01,2.60916e-03,9.59738e-01,9.99829e-01
1.391795508e+00,2.22159e-03,5.06251e-01,4.10806e-03,9.60517e-01,9.99855e-01
1.398754485e+00,5.97307e-03,6.57805e-01,9.13403e-03,9.61282e-01,9.99875e-01
1.405748258e+00,6.03820e-03,7.34521e-01,8.13696e-03,9.62032e-01,9.99888e-01
1.412776999e+00,7.66519e-03,8.23315e-01,9.38375e-03,9.62768e-01,9.99910e-01
1.419840884e+00,1.03796e-02,7.51861e-01,1.24441e-02,9.63490e-01,9.99933e-01
1.426940089e+00,8.90280e-03,9.33854e-02,3.29931e-02,9.64198e-01,9.99958e-01
1.434074789e+00,0.00000e+00,0.00000e+00,7.32767e-02,9.64892e-01,9.99973e-01
1.441245163e+00,0.00000e+00,0.00000e+00,1.40672e-01,9.65574e-01,9.99979e-01
1.448451389e+00,0.00000e+00,0.00000e+00,2.45565e-01,9.66242e-01,9.99982e-01
1.455693646e+00,3.88050e-188,6.36649e-188,4.04483e-01,9.66898e-01,9.99985e-01
1.462972114e+00,9.26990e-92,1.51984e-91,4.58883e-01,9.67541e-01,9.99987e-01
1.470286975e+00,3.26158e-39,5.54526e-39,4.02337e-01,9.68172e-01,9.99989e-01
