#,Wave/freq,Total,CO2,H2O,Rayleigh,CIA
4.000000000e-01,1.91141e-02,9.99999e-01,9.99991e-01,1.91142e-02,9.99999e-01
4.020000000e-01,2.06699e-02,9.99999e-01,9.99994e-01,2.06700e-02,9.99999e-01
4.040100000e-01,2.23159e-02,9.99999e-01,9.99997e-01,2.23160e-02,9.99999e-01
4.060300500e-01,2.40566e-02,9.99999e-01,9.99999e-01,2.40566e-02,9.99999e-01
4.080602003e-01,2.58946e-02,9.99999e-01,9.99999e-01,2.58946e-02,9.99999e-01
4.101005013e-01,2.78325e-02,9.99999e-01,9.99999e-01,2.78325e-02,9.99999e-01
4.121510038e-01,2.98728e-02,9.99999e-01,9.99999e-01,2.98729e-02,9.99999e-01
4.142117588e-01,3.20179e-02,9.99999e-01,9.99997e-01,3.20180e-02,9.99999e-01
4.162828176e-01,3.42698e-02,9.99999e-01,9.99989e-01,3.42701e-02,9.99999e-01
4.183642317e-01,3.66313e-02,9.99999e-01,9.99993e-01,3.66315e-02,9.99999e-01
4.204560528e-01,3.91040e-02,9.99999e-01,9.99995e-01,3.91041e-02,9.99999e-01
4.225583331e-01,4.16897e-02,9.99999e-01,9.99998e-01,4.16898e-02,9.99999e-01
4.246711247e-01,4.43902e-02,9.99999e-01,9.99998e-01,4.43902e-02,9.99999e-01
4.267944804e-01,4.72070e-02,9.99999e-01,9.99997e-01,4.72070e-02,9.99999e-01
4.289284528e-01,5.01416e-02,9.99999e-01,9.99998e-01,5.01416e-02,9.99999e-01
4.310730950e-01,5.31952e-02,9.99999e-01,9.99998e-01,5.31952e-02,9.99999e-01
4.332284605e-01,5.63689e-02,9.99999e-01,9.99999e-01,5.63689e-02,9.99999e-01
4.353946028e-01,5.96637e-02,9.99999e-01,9.99999e-01,5.96637e-02,9.99999e-01
4.375715758e-01,6.30801e-02,9.99999e-01,9.99998e-01,6.30801e-02,9.99999e-01
4.397594337e-01,6.66184e-02,9.99999e-01,9.99991e-01,6.66189e-02,9.99999e-01
4.419582309e-01,7.02775e-02,9.99999e-01,9.99957e-01,7.02805e-02,9.99999e-01
4.441680220e-01,7.40624e-02,9.99999e-01,9.99965e-01,7.40649e-02,9.99999e-01
4.463888621e-01,7.79696e-02,9.99999e-01,9.99964e-01,7.79723e-02,9.99999e-01
4.486208064e-01,8.20008e-02,9.99999e-01,9.99977e-01,8.20025e-02,9.99999e-01
4.508639105e-01,8.61544e-02,9.99999e-01,9.99989e-01,8.61553e-02,9.99999e-01
4.531182300e-01,9.04297e-02,9.99999e-01,9.99995e-01,9.04300e-02,9.99999e-01
4.553838212e-01,9.48259e-02,9.99999e-01,9.99996e-01,9.48261e-02,9.99999e-01
4.576607403e-01,9.93427e-02,9.99999e-01,9.99998e-01,9.93428e-02,9.99999e-01
4.599490440e-01,1.03979e-01,9.99999e-01,9.99998e-01,1.03979e-01,9.99999e-01
4.622487892e-01,1.08733e-01,9.99999e-01,9.99999e-01,1.08733e-01,9.99999e-01
4.645600332e-01,1.13605e-01,9.99999e-01,9.99998e-01,1.13605e-01,9.99999e-01
4.668828333e-01,1.18591e-01,9.99999e-01,9.99989e-01,1.18592e-01,9.99999e-01
4.692172475e-01,1.23690e-01,9.99999e-01,9.99977e-01,1.23693e-01,9.99999e-01
4.715633337e-01,1.28904e-01,9.99999e-01,9.99985e-01,1.28906e-01,9.99999e-01
4.739211504e-01,1.34228e-01,9.99999e-01,9.99985e-01,1.34229e-01,9.99999e-01
4.762907561e-01,1.39660e-01,9.99999e-01,9.99992e-01,1.39661e-01,9.99999e-01
4.786722099e-01,1.45198e-01,9.99999e-01,9.99996e-01,1.45198e-01,9.99999e-01
4.810655710e-01,1.50839e-01,9.99999e-01,9.99998e-01,1.50840e-01,9.99999e-01
4.834708988e-01,1.56581e-01,9.99999e-01,9.99991e-01,1.56582e-01,9.99999e-01
4.858882533e-01,1.62420e-01,9.99999e-01,9.99984e-01,1.62423e-01,9.99999e-01
4.883176946e-01,1.68358e-01,9.99999e-01,9.99986e-01,1.68360e-01,9.99999e-01
4.907592831e-01,1.74388e-01,9.99999e-01,9.99987e-01,1.74391e-01,9.99999e-01
4.932130795e-01,1.80510e-01,9.99999e-01,9.99991e-01,1.80511e-01,9.99999e-01
4.956791449e-01,1.86719e-01,9.99999e-01,9.99995e-01,1.86720e-01,9.99999e-01
4.981575406e-01,1.93009e-01,9.99999e-01,9.99977e-01,1.93013e-01,9.99999e-01
5.006483283e-01,1.99376e-01,9.99999e-01,9.99943e-01,1.99387e-01,9.99999e-01
5.031515699e-01,2.05781e-01,9.99999e-01,9.99711e-01,2.05840e-01,9.99999e-01
5.056673278e-01,2.12336e-01,9.99999e-01,9.99847e-01,2.12368e-01,9.99999e-01
5.081956644e-01,2.18926e-01,9.99999e-01,9.99807e-01,2.18968e-01,9.99999e-01
5.107366428e-01,2.25608e-01,9.99999e-01,9.99869e-01,2.25637e-01,9.99999e-01
5.132903260e-01,2.32354e-01,9.99999e-01,9.99925e-01,2.32371e-01,9.99999e-01
5.158567776e-01,2.39160e-01,9.99999e-01,9.99968e-01,2.39167e-01,9.99999e-01
5.184360615e-01,2.46019e-01,9.99999e-01,9.99986e-01,2.46022e-01,9.99999e-01
5.210282418e-01,2.52931e-01,9.99999e-01,9.99994e-01,2.52932e-01,9.99999e-01
5.236333830e-01,2.59889e-01,9.99999e-01,9.99980e-01,2.59894e-01,9.99999e-01
5.262515499e-01,2.66901e-01,9.99999e-01,9.99987e-01,2.66904e-01,9.99999e-01
5.288828077e-01,2.73956e-01,9.99999e-01,9.99988e-01,2.73959e-01,9.99999e-01
5.315272217e-01,2.81053e-01,9.99999e-01,9.99990e-01,2.81056e-01,9.99999e-01
5.341848578e-01,2.88189e-01,9.99999e-01,9.99993e-01,2.88191e-01,9.99999e-01
5.368557821e-01,2.95355e-01,9.99999e-01,9.99977e-01,2.95361e-01,9.99999e-01
5.395400610e-01,3.02539e-01,9.99999e-01,9.99921e-01,3.02563e-01,9.99999e-01
5.422377613e-01,3.09761e-01,9.99999e-01,9.99897e-01,3.09792e-01,9.99999e-01
5.449489501e-01,3.17017e-01,9.99999e-01,9.99905e-01,3.17047e-01,9.99999e-01
5.476736949e-01,3.24295e-01,9.99999e-01,9.99915e-01,3.24323e-01,9.99999e-01
5.504120634e-01,3.31597e-01,9.99999e-01,9.99938e-01,3.31617e-01,9.99999e-01
5.531641237e-01,3.38916e-01,9.99999e-01,9.99968e-01,3.38926e-01,9.99999e-01
5.559299443e-01,3.46242e-01,9.99999e-01,9.99984e-01,3.46248e-01,9.99999e-01
5.587095940e-01,3.53574e-01,9.99999e-01,9.99990e-01,3.53578e-01,9.99999e-01
5.615031420e-01,3.60910e-01,9.99999e-01,9.99989e-01,3.60914e-01,9.99999e-01
5.643106577e-01,3.68248e-01,9.99999e-01,9.99987e-01,3.68253e-01,9.99999e-01
5.671322110e-01,3.75539e-01,9.99999e-01,9.99859e-01,3.75591e-01,9.99999e-01
5.699678720e-01,3.82869e-01,9.99999e-01,9.99846e-01,3.82927e-01,9.99999e-01
5.728177114e-01,3.90195e-01,9.99999e-01,9.99842e-01,3.90257e-01,9.99999e-01
5.756818000e-01,3.97520e-01,9.99999e-01,9.99854e-01,3.97578e-01,9.99999e-01
5.785602090e-01,4.04837e-01,9.99999e-01,9.99873e-01,4.04888e-01,9.99999e-01
5.814530100e-01,4.12131e-01,9.99999e-01,9.99872e-01,4.12184e-01,9.99999e-01
5.843602750e-01,4.19400e-01,9.99999e-01,9.99849e-01,4.19463e-01,9.99999e-01
5.872820764e-01,4.26170e-01,9.99999e-01,9.98703e-01,4.26723e-01,9.99999e-01
5.902184868e-01,4.33276e-01,9.99999e-01,9.98418e-01,4.33962e-01,9.99999e-01
5.931695792e-01,4.40686e-01,9.99999e-01,9.98884e-01,4.41177e-01,9.99999e-01
5.961354271e-01,4.47817e-01,9.99999e-01,9.98775e-01,4.48366e-01,9.99999e-01
5.991161043e-01,4.55120e-01,9.99999e-01,9.99106e-01,4.55527e-01,9.99999e-01
6.021116848e-01,4.62422e-01,9.99999e-01,9.99492e-01,4.62657e-01,9.99999e-01
6.051222432e-01,4.69634e-01,9.99999e-01,9.99742e-01,4.69755e-01,9.99999e-01
6.081478544e-01,4.76765e-01,9.99999e-01,9.99888e-01,4.76818e-01,9.99999e-01
6.111885937e-01,4.83822e-01,9.99999e-01,9.99952e-01,4.83844e-01,9.99999e-01
6.142445367e-01,4.90823e-01,9.99999e-01,9.99978e-01,4.90833e-01,9.99999e-01
6.173157594e-01,4.97775e-01,9.99999e-01,9.99987e-01,4.97781e-01,9.99999e-01
6.204023382e-01,5.04683e-01,9.99999e-01,9.99989e-01,5.04688e-01,9.99999e-01
6.235043498e-01,5.11529e-01,9.99999e-01,9.99957e-01,5.11551e-01,9.99999e-01
6.266218716e-01,5.18251e-01,9.99999e-01,9.99772e-01,5.18369e-01,9.99999e-01
6.297549810e-01,5.25097e-01,9.99999e-01,9.99916e-01,5.25140e-01,9.99999e-01
6.329037559e-01,5.31776e-01,9.99999e-01,9.99834e-01,5.31864e-01,9.99999e-01
6.360682746e-01,5.38463e-01,9.99999e-01,9.99859e-01,5.38539e-01,9.99999e-01
6.392486160e-01,5.45063e-01,9.99999e-01,9.99818e-01,5.45162e-01,9.99999e-01
6.424448591e-01,5.51601e-01,9.99999e-01,9.99758e-01,5.51735e-01,9.99999e-01
6.456570834e-01,5.57628e-01,9.99999e-01,9.98877e-01,5.58254e-01,9.99999e-01
6.488853688e-01,5.64171e-01,9.99999e-01,9.99028e-01,5.64719e-01,9.99999e-01
6.521297956e-01,5.70647e-01,9.99999e-01,9.99155e-01,5.71129e-01,9.99999e-01
6.553904446e-01,5.77002e-01,9.99999e-01,9.99165e-01,5.77483e-01,9.99999e-01
6.586673968e-01,5.83360e-01,9.99999e-01,9.99279e-01,5.83780e-01,9.99999e-01
6.619607338e-01,5.89774e-01,9.99999e-01,9.99583e-01,5.90020e-01,9.99999e-01
6.652705375e-01,5.96057e-01,9.99999e-01,9.99758e-01,5.96201e-01,9.99999e-01
6.685968902e-01,6.02255e-01,9.99999e-01,9.99887e-01,6.02323e-01,9.99999e-01
6.719398746e-01,6.08353e-01,9.99999e-01,9.99947e-01,6.08384e-01,9.99999e-01
6.752995740e-01,6.14368e-01,9.99999e-01,9.99971e-01,6.14386e-01,9.99999e-01
6.786760719e-01,6.20301e-01,9.99999e-01,9.99959e-01,6.20326e-01,9.99999e-01
6.820694522e-01,6.26161e-01,9.99999e-01,9.99930e-01,6.26204e-01,9.99999e-01
6.854797995e-01,6.31965e-01,9.99999e-01,9.99910e-01,6.32021e-01,9.99999e-01
6.889071985e-01,6.37639e-01,9.99999e-01,9.99786e-01,6.37775e-01,9.99999e-01
6.923517345e-01,6.41204e-01,9.99999e-01,9.96484e-01,6.43466e-01,9.99999e-01
6.958134932e-01,6.47888e-01,9.99999e-01,9.98140e-01,6.49094e-01,9.99999e-01
6.992925606e-01,6.53522e-01,9.99999e-01,9.98262e-01,6.54659e-01,9.99999e-01
7.027890234e-01,6.58736e-01,9.99999e-01,9.97841e-01,6.60160e-01,9.99999e-01
7.063029686e-01,6.64391e-01,9.99999e-01,9.98186e-01,6.65598e-01,9.99999e-01
7.098344834e-01,6.69804e-01,9.99999e-01,9.98260e-01,6.70971e-01,9.99999e-01
7.133836558e-01,6.74728e-01,9.99999e-01,9.97703e-01,6.76280e-01,9.99999e-01
7.169505741e-01,6.68904e-01,9.99999e-01,9.81479e-01,6.81526e-01,9.99999e-01
7.205353270e-01,6.80374e-01,9.99999e-01,9.90777e-01,6.86707e-01,9.99999e-01
7.241380036e-01,6.83834e-01,9.99999e-01,9.88450e-01,6.91824e-01,9.99999e-01
7.277586936e-01,6.89604e-01,9.99999e-01,9.89564e-01,6.96877e-01,9.99999e-01
7.313974871e-01,6.94050e-01,9.99999e-01,9.88863e-01,7.01866e-01,9.99999e-01
7.350544745e-01,7.02492e-01,9.99999e-01,9.93917e-01,7.06791e-01,9.99999e-01
7.387297469e-01,7.08466e-01,9.99999e-01,9.95521e-01,7.11652e-01,9.99999e-01
7.424233956e-01,7.14877e-01,9.99999e-01,9.97803e-01,7.16450e-01,9.99999e-01
7.461355126e-01,7.20226e-01,9.99999e-01,9.98670e-01,7.21184e-01,9.99999e-01
7.498661902e-01,7.25406e-01,9.99999e-01,9.99379e-01,7.25856e-01,9.99999e-01
7.536155211e-01,7.30242e-01,9.99999e-01,9.99696e-01,7.30464e-01,9.99999e-01
7.573835987e-01,7.34895e-01,9.99999e-01,9.99843e-01,7.35010e-01,9.99999e-01
7.611705167e-01,7.39421e-01,9.99999e-01,9.99902e-01,7.39493e-01,9.99999e-01
7.649763693e-01,7.43869e-01,9.99999e-01,9.99938e-01,7.43914e-01,9.99999e-01
7.688012511e-01,7.48242e-01,9.99999e-01,9.99957e-01,7.48274e-01,9.99999e-01
7.726452574e-01,7.52546e-01,9.99999e-01,9.99964e-01,7.52572e-01,9.99999e-01
7.765084837e-01,7.56773e-01,9.99999e-01,9.99950e-01,7.56810e-01,9.99999e-01
7.803910261e-01,7.50680e-01,9.86662e-01,9.99787e-01,7.60987e-01,9.99999e-01
7.842929812e-01,7.20634e-01,9.42560e-01,9.99259e-01,7.65103e-01,9.99999e-01
7.882144461e-01,7.20907e-01,9.38681e-01,9.98465e-01,7.69160e-01,9.99999e-01
7.921555184e-01,7.45054e-01,9.64456e-01,9.99154e-01,7.73158e-01,9.99999e-01
7.961162960e-01,7.57333e-01,9.76005e-01,9.98519e-01,7.77097e-01,9.99999e-01
8.000968774e-01,7.69464e-01,9.86949e-01,9.98282e-01,7.80978e-01,9.99999e-01
8.040973618e-01,7.78129e-01,9.93201e-01,9.98283e-01,7.84801e-01,9.99999e-01
8.081178486e-01,7.83086e-01,9.96885e-01,9.96150e-01,7.88566e-01,9.99999e-01
8.121584379e-01,7.78823e-01,9.99030e-01,9.83971e-01,7.92275e-01,9.99999e-01
8.162192301e-01,7.80504e-01,9.99785e-01,9.80830e-01,7.95927e-01,9.99999e-01
8.203003262e-01,7.91908e-01,9.99996e-01,9.90478e-01,7.99523e-01,9.99999e-01
8.244018279e-01,7.92146e-01,9.99999e-01,9.86403e-01,8.03065e-01,9.99999e-01
8.285238370e-01,7.97355e-01,9.99999e-01,9.88598e-01,8.06551e-01,9.99999e-01
8.326664562e-01,8.00612e-01,9.99999e-01,9.88429e-01,8.09984e-01,9.99999e-01
8.368297885e-01,8.06635e-01,9.99999e-01,9.91728e-01,8.13362e-01,9.99999e-01
8.410139374e-01,8.12670e-01,9.99999e-01,9.95079e-01,8.16688e-01,9.99999e-01
8.452190071e-01,8.17980e-01,9.99999e-01,9.97583e-01,8.19961e-01,9.99999e-01
8.494451021e-01,8.22032e-01,9.99999e-01,9.98602e-01,8.23182e-01,9.99999e-01
8.536923276e-01,8.25667e-01,9.99999e-01,9.99170e-01,8.26352e-01,9.99999e-01
8.579607893e-01,8.29049e-01,9.99999e-01,9.99490e-01,8.29471e-01,9.99999e-01
8.622505932e-01,8.32271e-01,9.99999e-01,9.99675e-01,8.32540e-01,9.99999e-01
8.665618462e-01,8.04390e-01,9.62883e-01,9.99799e-01,8.35560e-01,9.99999e-01
8.708946554e-01,7.19687e-01,8.58464e-01,9.99771e-01,8.38530e-01,9.99999e-01
8.752491287e-01,7.45111e-01,8.85773e-01,9.99693e-01,8.41452e-01,9.99999e-01
8.796253743e-01,7.90224e-01,9.36313e-01,9.99577e-01,8.44326e-01,9.99999e-01
8.840235012e-01,8.18528e-01,9.66674e-01,9.99516e-01,8.47153e-01,9.99999e-01
8.884436187e-01,8.37191e-01,9.86718e-01,9.98259e-01,8.49933e-01,9.99999e-01
8.928858368e-01,8.32450e-01,9.94616e-01,9.81556e-01,8.52667e-01,9.99999e-01
8.973502660e-01,8.26303e-01,9.98683e-01,9.67298e-01,8.55356e-01,9.99999e-01
9.018370173e-01,8.43353e-01,9.99854e-01,9.83071e-01,8.57999e-01,9.99999e-01
9.063462024e-01,8.44886e-01,9.96350e-01,9.85294e-01,8.60599e-01,9.99998e-01
9.108779334e-01,8.36236e-01,9.91524e-01,9.77055e-01,8.63155e-01,9.99998e-01
9.154323231e-01,8.41448e-01,9.97990e-01,9.73963e-01,8.65667e-01,9.99998e-01
9.200094847e-01,8.25642e-01,9.70536e-01,9.79487e-01,8.68137e-01,9.99998e-01
9.246095321e-01,8.08710e-01,9.59142e-01,9.68219e-01,8.70565e-01,9.99998e-01
9.292325798e-01,6.78404e-01,9.67911e-01,8.01680e-01,8.72952e-01,9.99996e-01
9.338787427e-01,6.36352e-01,9.68838e-01,7.49235e-01,8.75298e-01,9.99995e-01
9.385481364e-01,7.63979e-01,9.77078e-01,8.90444e-01,8.77604e-01,9.99995e-01
9.432408771e-01,7.37320e-01,9.85894e-01,8.49692e-01,8.79870e-01,9.99994e-01
9.479570815e-01,6.97117e-01,9.92757e-01,7.95921e-01,8.82097e-01,9.99995e-01
9.526968669e-01,7.43957e-01,9.96495e-01,8.44147e-01,8.84286e-01,9.99996e-01
9.574603512e-01,7.60720e-01,9.98500e-01,8.59433e-01,8.86436e-01,9.99997e-01
9.622476530e-01,7.85487e-01,9.99531e-01,8.84415e-01,8.88550e-01,9.99998e-01
9.670588912e-01,8.29884e-01,9.99859e-01,9.31927e-01,8.90626e-01,9.99998e-01
9.718941857e-01,8.54470e-01,9.99989e-01,9.57220e-01,8.92666e-01,9.99998e-01
9.767536566e-01,8.62810e-01,9.99999e-01,9.64389e-01,8.94670e-01,9.99999e-01
9.816374249e-01,8.72855e-01,9.99999e-01,9.73474e-01,8.96639e-01,9.99999e-01
9.865456120e-01,8.83619e-01,9.99999e-01,9.83357e-01,8.98574e-01,9.99999e-01
9.914783401e-01,8.91194e-01,9.99999e-01,9.89693e-01,9.00474e-01,9.99999e-01
9.964357318e-01,8.97264e-01,9.99999e-01,9.94374e-01,9.02340e-01,9.99999e-01
1.001417910e+00,9.01123e-01,9.99999e-01,9.96625e-01,9.04174e-01,9.99999e-01
1.006425000e+00,9.04234e-01,9.99999e-01,9.98078e-01,9.05975e-01,9.99999e-01
1.011457125e+00,9.06659e-01,9.99999e-01,9.98804e-01,9.07743e-01,9.99999e-01
1.016514411e+00,9.08744e-01,9.99999e-01,9.99189e-01,9.09481e-01,9.99999e-01
1.021596983e+00,9.10582e-01,9.99981e-01,9.99354e-01,9.11187e-01,9.99999e-01
1.026704968e+00,9.11113e-01,9.98585e-01,9.99496e-01,9.12862e-01,9.99999e-01
1.031838492e+00,8.95004e-01,9.79025e-01,9.99633e-01,9.14507e-01,9.99999e-01
1.036997685e+00,3.15837e-01,3.44818e-01,9.99782e-01,9.16123e-01,9.99999e-01
1.042182673e+00,3.88294e-01,4.23215e-01,9.99741e-01,9.17710e-01,9.99999e-01
1.047393587e+00,3.50610e-01,3.81520e-01,9.99656e-01,9.19268e-01,9.99999e-01
1.052630555e+00,7.54961e-02,8.20211e-02,9.99529e-01,9.20798e-01,9.99999e-01
1.057893707e+00,1.30872e-01,1.41988e-01,9.99215e-01,9.22300e-01,9.99999e-01
1.063183176e+00,2.26176e-01,2.45106e-01,9.98708e-01,9.23774e-01,9.99999e-01
1.068499092e+00,3.65457e-01,3.95787e-01,9.97835e-01,9.25222e-01,9.99999e-01
1.073841587e+00,5.14521e-01,5.56555e-01,9.97469e-01,9.26644e-01,9.99999e-01
1.079210795e+00,6.39855e-01,6.91634e-01,9.96750e-01,9.28039e-01,9.99999e-01
1.084606849e+00,7.56431e-01,8.17824e-01,9.95088e-01,9.29409e-01,9.99999e-01
1.090029883e+00,8.33044e-01,9.01282e-01,9.92977e-01,9.30754e-01,9.99999e-01
1.095480033e+00,8.68741e-01,9.50081e-01,9.80943e-01,9.32074e-01,9.99999e-01
1.100957433e+00,8.67188e-01,9.75679e-01,9.52159e-01,9.33370e-01,9.99998e-01
1.106462220e+00,8.16180e-01,9.89866e-01,8.82066e-01,9.34642e-01,9.99997e-01
1.111994531e+00,7.13906e-01,9.96233e-01,7.65609e-01,9.35891e-01,9.99995e-01
1.117554504e+00,6.05555e-01,9.99075e-01,6.46741e-01,9.37116e-01,9.99994e-01
1.123142276e+00,6.75139e-01,9.99938e-01,7.19556e-01,9.38319e-01,9.99993e-01
1.128757988e+00,7.64494e-01,9.99999e-01,8.13728e-01,9.39500e-01,9.99992e-01
1.134401778e+00,5.64783e-01,9.99999e-01,6.00416e-01,9.40659e-01,9.99992e-01
1.140073787e+00,8.34640e-01,9.99999e-01,8.86225e-01,9.41796e-01,9.99993e-01
1.145774156e+00,7.29681e-01,9.99999e-01,7.73862e-01,9.42912e-01,9.99994e-01
1.151503026e+00,7.07909e-01,9.99999e-01,7.49900e-01,9.44008e-01,9.99995e-01
1.157260541e+00,7.47379e-01,9.99999e-01,7.90810e-01,9.45083e-01,9.99996e-01
1.163046844e+00,7.95747e-01,9.99999e-01,8.41048e-01,9.46138e-01,9.99997e-01
1.168862078e+00,8.40621e-01,9.99999e-01,8.87505e-01,9.47173e-01,9.99998e-01
1.174706389e+00,8.80911e-01,9.99999e-01,9.29045e-01,9.48189e-01,9.99998e-01
1.180579921e+00,9.07625e-01,9.99999e-01,9.56213e-01,9.49186e-01,9.99999e-01
1.186482820e+00,9.26486e-01,9.99997e-01,9.75081e-01,9.50164e-01,9.99999e-01
1.192415234e+00,9.32514e-01,9.94931e-01,9.85405e-01,9.51124e-01,9.99999e-01
1.198377311e+00,5.65652e-01,6.00384e-01,9.87702e-01,9.52066e-01,9.99999e-01
1.204369197e+00,1.12205e-05,1.18539e-05,9.88341e-01,9.52990e-01,9.99999e-01
1.210391043e+00,5.41504e-17,5.71213e-17,9.88852e-01,9.53897e-01,9.99999e-01
1.216442998e+00,5.94026e-15,6.25842e-15,9.90493e-01,9.54787e-01,9.99999e-01
1.222525213e+00,1.02704e-14,1.07900e-14,9.92600e-01,9.55660e-01,9.99999e-01
1.228637839e+00,2.84068e-11,2.98086e-11,9.94860e-01,9.56516e-01,9.99999e-01
1.234781029e+00,4.69443e-08,4.91230e-08,9.96177e-01,9.57356e-01,9.99999e-01
1.240954934e+00,1.69543e-05,1.77234e-05,9.97583e-01,9.58181e-01,9.99999e-01
1.247159708e+00,2.14029e-03,2.23499e-03,9.98117e-01,9.58990e-01,9.99999e-01
1.253395507e+00,3.45856e-02,3.60854e-02,9.98330e-01,9.59783e-01,9.99999e-01
1.259662485e+00,1.25515e-01,1.30852e-01,9.98429e-01,9.60562e-01,9.99999e-01
1.265960797e+00,3.22891e-01,3.36655e-01,9.97474e-01,9.61325e-01,9.99999e-01
1.272290601e+00,5.93733e-01,6.19344e-01,9.96281e-01,9.62075e-01,9.99999e-01
1.278652054e+00,5.54866e-01,5.80357e-01,9.92144e-01,9.62810e-01,9.99999e-01
1.285045314e+00,6.53822e-02,6.83922e-02,9.87664e-01,9.63531e-01,9.99999e-01
1.291470541e+00,1.13722e-02,1.20240e-02,9.75303e-01,9.64238e-01,9.99999e-01
1.297927893e+00,7.26533e-02,7.69723e-02,9.67817e-01,9.64932e-01,9.99998e-01
1.304417533e+00,4.15456e-01,4.47911e-01,9.58632e-01,9.65612e-01,9.99997e-01
1.310939621e+00,1.29906e-01,1.38693e-01,9.52936e-01,9.66280e-01,9.99996e-01
1.317494319e+00,2.96125e-06,3.17099e-06,9.48762e-01,9.66935e-01,9.99994e-01
1.324081790e+00,9.09278e-05,9.80600e-05,9.24166e-01,9.67577e-01,9.99992e-01
1.330702199e+00,6.59158e-03,8.41845e-03,7.07875e-01,9.68207e-01,9.99987e-01
1.337355710e+00,3.04302e-03,5.53724e-03,4.28074e-01,9.68826e-01,9.99975e-01
1.344042489e+00,6.08224e-04,2.29242e-03,9.41949e-02,9.69432e-01,9.99948e-01
1.350762701e+00,1.14430e-04,6.84239e-03,9.81347e-03,9.70026e-01,9.99918e-01
1.357516515e+00,1.42618e-04,3.66031e-02,2.38707e-03,9.70610e-01,9.99898e-01
1.364304097e+00,2.47380e-03,1.31022e-01,1.52101e-02,9.71182e-01,9.99891e-01
1.371125618e+00,2.42684e-02,3.39245e-01,6.26575e-02,9.71743e-01,9.99890e-01
1.377981246e+00,4.14845e-02,4.25530e-01,9.40027e-02,9.72293e-01,9.99882e-01
1.384871152e+00,8.05446e-03,6.07734e-01,1.26890e-02,9.72833e-01,9.99883e-01
1.391795508e+00,1.34106e-02,6.31484e-01,2.06062e-02,9.73362e-01,9.99900e-01
1.398754485e+00,2.43133e-02,7.54119e-01,3.24214e-02,9.73882e-01,9.99916e-01
1.405748258e+00,2.59051e-02,8.11690e-01,3.17669e-02,9.74391e-01,9.99925e-01
1.412776999e+00,3.13281e-02,8.76785e-01,3.60579e-02,9.74890e-01,9.99939e-01
1.419840884e+00,3.82110e-02,8.24160e-01,4.33680e-02,9.75380e-01,9.99954e-01
1.426940089e+00,2.29186e-02,1.20235e-01,8.82398e-02,9.75860e-01,9.99971e-01
1.434074789e+00,2.34590e-233,6.83396e-233,1.54124e-01,9.76331e-01,9.99982e-01
1.441245163e+00,0.00000e+00,0.00000e+00,2.57778e-01,9.76793e-01,9.99986e-01
1.448451389e+00,1.67549e-282,2.77766e-282,3.75851e-01,9.77247e-01,9.99988e-01
1.455693646e+00,8.70574e-127,1.21299e-126,5.35929e-01,9.77691e-01,9.99990e-01
1.462972114e+00,3.23321e-62,4.50310e-62,5.89658e-01,9.78127e-01,9.99991e-01
1.470286975e+00,5.20381e-27,7.42958e-27,5.37995e-01,9.78554e-01,9.99992e-01
