#,Wave/freq,Total,CO2,H2O,Rayleigh,CIA
4.000000000e-01,7.26077e-07,9.99999e-01,9.99971e-01,7.26097e-07,9.99999e-01
4.020000000e-01,9.60220e-07,9.99999e-01,9.99982e-01,9.60236e-07,9.99999e-01
4.040100000e-01,1.26252e-06,9.99999e-01,9.99992e-01,1.26253e-06,9.99999e-01
4.060300500e-01,1.65103e-06,9.99999e-01,9.99997e-01,1.65103e-06,9.99999e-01
4.080602003e-01,2.14768e-06,9.99999e-01,9.99998e-01,2.14768e-06,9.99999e-01
4.101005013e-01,2.77925e-06,9.99999e-01,9.99999e-01,2.77925e-06,9.99999e-01
4.121510038e-01,3.57827e-06,9.99999e-01,9.99998e-01,3.57827e-06,9.99999e-01
4.142117588e-01,4.58404e-06,9.99999e-01,9.99991e-01,4.58408e-06,9.99999e-01
4.162828176e-01,5.84374e-06,9.99999e-01,9.99965e-01,5.84394e-06,9.99999e-01
4.183642317e-01,7.41425e-06,9.99999e-01,9.99979e-01,7.41440e-06,9.99999e-01
4.204560528e-01,9.36266e-06,9.99999e-01,9.99987e-01,9.36278e-06,9.99999e-01
4.225583331e-01,1.17687e-05,9.99999e-01,9.99994e-01,1.17688e-05,9.99999e-01
4.246711247e-01,1.47264e-05,9.99999e-01,9.99995e-01,1.47264e-05,9.99999e-01
4.267944804e-01,1.83458e-05,9.99999e-01,9.99994e-01,1.83459e-05,9.99999e-01
4.289284528e-01,2.27559e-05,9.99999e-01,9.99995e-01,2.27560e-05,9.99999e-01
4.310730950e-01,2.81063e-05,9.99999e-01,9.99997e-01,2.81064e-05,9.99999e-01
4.332284605e-01,3.45702e-05,9.99999e-01,9.99999e-01,3.45702e-05,9.99999e-01
4.353946028e-01,4.23471e-05,9.99999e-01,9.99999e-01,4.23471e-05,9.99999e-01
4.375715758e-01,5.16658e-05,9.99999e-01,9.99996e-01,5.16660e-05,9.99999e-01
4.397594337e-01,6.27866e-05,9.99999e-01,9.99969e-01,6.27885e-05,9.99999e-01
4.419582309e-01,7.60003e-05,9.99999e-01,9.99845e-01,7.60120e-05,9.99999e-01
4.441680220e-01,9.16629e-05,9.99999e-01,9.99880e-01,9.16737e-05,9.99999e-01
4.463888621e-01,1.10140e-04,9.99999e-01,9.99875e-01,1.10154e-04,9.99999e-01
4.486208064e-01,1.31870e-04,9.99999e-01,9.99922e-01,1.31881e-04,9.99999e-01
4.508639105e-01,1.57326e-04,9.99999e-01,9.99963e-01,1.57332e-04,9.99999e-01
4.531182300e-01,1.87039e-04,9.99999e-01,9.99985e-01,1.87042e-04,9.99999e-01
4.553838212e-01,2.21602e-04,9.99999e-01,9.99989e-01,2.21604e-04,9.99999e-01
4.576607403e-01,2.61673e-04,9.99999e-01,9.99995e-01,2.61675e-04,9.99999e-01
4.599490440e-01,3.07977e-04,9.99999e-01,9.99996e-01,3.07978e-04,9.99999e-01
4.622487892e-01,3.61310e-04,9.99999e-01,9.99998e-01,3.61310e-04,9.99999e-01
4.645600332e-01,4.22542e-04,9.99999e-01,9.99997e-01,4.22543e-04,9.99999e-01
4.668828333e-01,4.92609e-04,9.99999e-01,9.99962e-01,4.92627e-04,9.99999e-01
4.692172475e-01,5.72552e-04,9.99999e-01,9.99921e-01,5.72597e-04,9.99999e-01
4.715633337e-01,6.63540e-04,9.99999e-01,9.99948e-01,6.63574e-04,9.99999e-01
4.739211504e-01,7.66732e-04,9.99999e-01,9.99950e-01,7.66770e-04,9.99999e-01
4.762907561e-01,8.83465e-04,9.99999e-01,9.99974e-01,8.83488e-04,9.99999e-01
4.786722099e-01,1.01512e-03,9.99999e-01,9.99989e-01,1.01513e-03,9.99999e-01
4.810655710e-01,1.16318e-03,9.99999e-01,9.99996e-01,1.16319e-03,9.99999e-01
4.834708988e-01,1.32922e-03,9.99999e-01,9.99969e-01,1.32926e-03,9.99999e-01
4.858882533e-01,1.51496e-03,9.99999e-01,9.99944e-01,1.51505e-03,9.99999e-01
4.883176946e-01,1.72226e-03,9.99999e-01,9.99953e-01,1.72234e-03,9.99999e-01
4.907592831e-01,1.95297e-03,9.99999e-01,9.99957e-01,1.95305e-03,9.99999e-01
4.932130795e-01,2.20910e-03,9.99999e-01,9.99969e-01,2.20916e-03,9.99999e-01
4.956791449e-01,2.49275e-03,9.99999e-01,9.99983e-01,2.49279e-03,9.99999e-01
4.981575406e-01,2.80591e-03,9.99999e-01,9.99921e-01,2.80613e-03,9.99999e-01
5.006483283e-01,3.15083e-03,9.99999e-01,9.99795e-01,3.15148e-03,9.99999e-01
5.031515699e-01,3.52758e-03,9.99999e-01,9.98969e-01,3.53122e-03,9.99999e-01
5.056673278e-01,3.94570e-03,9.99999e-01,9.99457e-01,3.94784e-03,9.99999e-01
5.081956644e-01,4.40088e-03,9.99999e-01,9.99315e-01,4.40390e-03,9.99999e-01
5.107366428e-01,4.89978e-03,9.99999e-01,9.99537e-01,4.90204e-03,9.99999e-01
5.132903260e-01,5.44356e-03,9.99999e-01,9.99736e-01,5.44500e-03,9.99999e-01
5.158567776e-01,6.03489e-03,9.99999e-01,9.99888e-01,6.03556e-03,9.99999e-01
5.184360615e-01,6.67628e-03,9.99999e-01,9.99954e-01,6.67658e-03,9.99999e-01
5.210282418e-01,7.37084e-03,9.99999e-01,9.99982e-01,7.37096e-03,9.99999e-01
5.236333830e-01,8.12114e-03,9.99999e-01,9.99932e-01,8.12168e-03,9.99999e-01
5.262515499e-01,8.93136e-03,9.99999e-01,9.99957e-01,8.93173e-03,9.99999e-01
5.288828077e-01,9.80376e-03,9.99999e-01,9.99960e-01,9.80414e-03,9.99999e-01
5.315272217e-01,1.07416e-02,9.99999e-01,9.99965e-01,1.07420e-02,9.99999e-01
5.341848578e-01,1.17480e-02,9.99999e-01,9.99977e-01,1.17483e-02,9.99999e-01
5.368557821e-01,1.28252e-02,9.99999e-01,9.99921e-01,1.28262e-02,9.99999e-01
5.395400610e-01,1.39748e-02,9.99999e-01,9.99715e-01,1.39787e-02,9.99999e-01
5.422377613e-01,1.52034e-02,9.99999e-01,9.99636e-01,1.52090e-02,9.99999e-01
5.449489501e-01,1.65143e-02,9.99999e-01,9.99659e-01,1.65199e-02,9.99999e-01
5.476736949e-01,1.79092e-02,9.99999e-01,9.99700e-01,1.79146e-02,9.99999e-01
5.504120634e-01,1.93917e-02,9.99999e-01,9.99782e-01,1.93959e-02,9.99999e-01
5.531641237e-01,2.09645e-02,9.99999e-01,9.99890e-01,2.09668e-02,9.99999e-01
5.559299443e-01,2.26289e-02,9.99999e-01,9.99946e-01,2.26300e-02,9.99999e-01
5.587095940e-01,2.43877e-02,9.99999e-01,9.99966e-01,2.43885e-02,9.99999e-01
5.615031420e-01,2.62437e-02,9.99999e-01,9.99962e-01,2.62447e-02,9.99999e-01
5.643106577e-01,2.82001e-02,9.99999e-01,9.99957e-01,2.82013e-02,9.99999e-01
5.671322110e-01,3.02452e-02,9.99999e-01,9.99484e-01,3.02608e-02,9.99999e-01
5.699678720e-01,3.24081e-02,9.99999e-01,9.99461e-01,3.24255e-02,9.99999e-01
5.728177114e-01,3.46781e-02,9.99999e-01,9.99435e-01,3.46977e-02,9.99999e-01
5.756818000e-01,3.70603e-02,9.99999e-01,9.99482e-01,3.70794e-02,9.99999e-01
5.785602090e-01,3.95550e-02,9.99999e-01,9.99549e-01,3.95728e-02,9.99999e-01
5.814530100e-01,4.21604e-02,9.99999e-01,9.99546e-01,4.21795e-02,9.99999e-01
5.843602750e-01,4.48769e-02,9.99999e-01,9.99457e-01,4.49013e-02,9.99999e-01
5.872820764e-01,4.75169e-02,9.99999e-01,9.95332e-01,4.77397e-02,9.99999e-01
5.902184868e-01,5.04113e-02,9.99999e-01,9.94380e-01,5.06962e-02,9.99999e-01
5.931695792e-01,5.35579e-02,9.99999e-01,9.96019e-01,5.37719e-02,9.99999e-01
5.961354271e-01,5.67198e-02,9.99999e-01,9.95643e-01,5.69679e-02,9.99999e-01
5.991161043e-01,6.00936e-02,9.99999e-01,9.96824e-01,6.02850e-02,9.99999e-01
6.021116848e-01,6.36093e-02,9.99999e-01,9.98198e-01,6.37240e-02,9.99999e-01
6.051222432e-01,6.72242e-02,9.99999e-01,9.99088e-01,6.72855e-02,9.99999e-01
6.081478544e-01,7.09418e-02,9.99999e-01,9.99606e-01,7.09697e-02,9.99999e-01
6.111885937e-01,7.47644e-02,9.99999e-01,9.99833e-01,7.47768e-02,9.99999e-01
6.142445367e-01,7.87011e-02,9.99999e-01,9.99925e-01,7.87069e-02,9.99999e-01
6.173157594e-01,8.27564e-02,9.99999e-01,9.99958e-01,8.27598e-02,9.99999e-01
6.204023382e-01,8.69320e-02,9.99999e-01,9.99964e-01,8.69351e-02,9.99999e-01
6.235043498e-01,9.12182e-02,9.99999e-01,9.99844e-01,9.12323e-02,9.99999e-01
6.266218716e-01,9.55731e-02,9.99999e-01,9.99188e-01,9.56507e-02,9.99999e-01
6.297549810e-01,1.00160e-01,9.99999e-01,9.99702e-01,1.00189e-01,9.99999e-01
6.329037559e-01,1.04786e-01,9.99999e-01,9.99412e-01,1.04848e-01,9.99999e-01
6.360682746e-01,1.09569e-01,9.99999e-01,9.99498e-01,1.09624e-01,9.99999e-01
6.392486160e-01,1.14442e-01,9.99999e-01,9.99351e-01,1.14517e-01,9.99999e-01
6.424448591e-01,1.19421e-01,9.99999e-01,9.99126e-01,1.19525e-01,9.99999e-01
6.456570834e-01,1.24142e-01,9.99999e-01,9.95952e-01,1.24647e-01,9.99999e-01
6.488853688e-01,1.29498e-01,9.99999e-01,9.97057e-01,1.29880e-01,9.99999e-01
6.521297956e-01,1.34818e-01,9.99999e-01,9.97000e-01,1.35224e-01,9.99999e-01
6.553904446e-01,1.40254e-01,9.99999e-01,9.97005e-01,1.40675e-01,9.99999e-01
6.586673968e-01,1.45858e-01,9.99999e-01,9.97442e-01,1.46232e-01,9.99999e-01
6.619607338e-01,1.51675e-01,9.99999e-01,9.98574e-01,1.51892e-01,9.99999e-01
6.652705375e-01,1.57518e-01,9.99999e-01,9.99144e-01,1.57653e-01,9.99999e-01
6.685968902e-01,1.63452e-01,9.99999e-01,9.99636e-01,1.63512e-01,9.99999e-01
6.719398746e-01,1.69435e-01,9.99999e-01,9.99815e-01,1.69466e-01,9.99999e-01
6.752995740e-01,1.75496e-01,9.99999e-01,9.99902e-01,1.75513e-01,9.99999e-01
6.786760719e-01,1.81624e-01,9.99999e-01,9.99854e-01,1.81651e-01,9.99999e-01
6.820694522e-01,1.87829e-01,9.99999e-01,9.99752e-01,1.87875e-01,9.99999e-01
6.854797995e-01,1.94121e-01,9.99999e-01,9.99680e-01,1.94183e-01,9.99999e-01
6.889071985e-01,2.00416e-01,9.99999e-01,9.99218e-01,2.00573e-01,9.99999e-01
6.923517345e-01,2.04429e-01,9.99999e-01,9.87390e-01,2.07040e-01,9.99999e-01
6.958134932e-01,2.12197e-01,9.99999e-01,9.93517e-01,2.13581e-01,9.99999e-01
6.992925606e-01,2.18819e-01,9.99999e-01,9.93755e-01,2.20194e-01,9.99999e-01
7.027890234e-01,2.25136e-01,9.99999e-01,9.92335e-01,2.26875e-01,9.99999e-01
7.063029686e-01,2.32114e-01,9.99999e-01,9.93548e-01,2.33621e-01,9.99999e-01
7.098344834e-01,2.38940e-01,9.99999e-01,9.93809e-01,2.40428e-01,9.99999e-01
7.133836558e-01,2.45238e-01,9.99999e-01,9.91688e-01,2.47293e-01,9.99999e-01
7.169505741e-01,2.37769e-01,9.99999e-01,9.35312e-01,2.54213e-01,9.99998e-01
7.205353270e-01,2.52878e-01,9.99999e-01,9.68198e-01,2.61184e-01,9.99998e-01
7.241380036e-01,2.57300e-01,9.99999e-01,9.59347e-01,2.68203e-01,9.99998e-01
7.277586936e-01,2.65155e-01,9.99999e-01,9.63268e-01,2.75266e-01,9.99998e-01
7.313974871e-01,2.71398e-01,9.99999e-01,9.61142e-01,2.82370e-01,9.99998e-01
7.350544745e-01,2.83306e-01,9.99999e-01,9.78563e-01,2.89512e-01,9.99999e-01
7.387297469e-01,2.91998e-01,9.99999e-01,9.84190e-01,2.96688e-01,9.99999e-01
7.424233956e-01,3.01539e-01,9.99999e-01,9.92247e-01,3.03895e-01,9.99999e-01
7.461355126e-01,3.09664e-01,9.99999e-01,9.95290e-01,3.11129e-01,9.99999e-01
7.498661902e-01,3.17691e-01,9.99999e-01,9.97809e-01,3.18388e-01,9.99999e-01
7.536155211e-01,3.25317e-01,9.99999e-01,9.98922e-01,3.25667e-01,9.99999e-01
7.573835987e-01,3.32780e-01,9.99999e-01,9.99445e-01,3.32965e-01,9.99999e-01
7.611705167e-01,3.40159e-01,9.99999e-01,9.99655e-01,3.40277e-01,9.99999e-01
7.649763693e-01,3.47525e-01,9.99999e-01,9.99783e-01,3.47600e-01,9.99999e-01
7.688012511e-01,3.54878e-01,9.99999e-01,9.99848e-01,3.54931e-01,9.99999e-01
7.726452574e-01,3.62223e-01,9.99999e-01,9.99875e-01,3.62268e-01,9.99999e-01
7.765084837e-01,3.69542e-01,9.99999e-01,9.99822e-01,3.69607e-01,9.99999e-01
7.803910261e-01,3.59532e-01,9.54503e-01,9.99233e-01,3.76945e-01,9.99999e-01
7.842929812e-01,3.12838e-01,8.16132e-01,9.97327e-01,3.84280e-01,9.99999e-01
7.882144461e-01,3.13253e-01,8.04083e-01,9.94530e-01,3.91609e-01,9.99999e-01
7.921555184e-01,3.49799e-01,8.79396e-01,9.97008e-01,3.98928e-01,9.99999e-01
7.961162960e-01,3.70890e-01,9.17819e-01,9.94676e-01,4.06235e-01,9.99999e-01
8.000968774e-01,3.92310e-01,9.54509e-01,9.93877e-01,4.13528e-01,9.99999e-01
8.040973618e-01,4.08292e-01,9.76233e-01,9.93869e-01,4.20804e-01,9.99999e-01
8.081178486e-01,4.17504e-01,9.88987e-01,9.86170e-01,4.28061e-01,9.99999e-01
8.121584379e-01,4.09398e-01,9.96609e-01,9.43662e-01,4.35296e-01,9.99998e-01
8.162192301e-01,4.12958e-01,9.99250e-01,9.33907e-01,4.42506e-01,9.99998e-01
8.203003262e-01,4.34485e-01,9.99989e-01,9.66196e-01,4.49690e-01,9.99998e-01
8.244018279e-01,4.35770e-01,9.99999e-01,9.53868e-01,4.56845e-01,9.99998e-01
8.285238370e-01,4.45341e-01,9.99999e-01,9.59849e-01,4.63969e-01,9.99998e-01
8.326664562e-01,4.52000e-01,9.99999e-01,9.59535e-01,4.71061e-01,9.99998e-01
8.368297885e-01,4.64232e-01,9.99999e-01,9.70957e-01,4.78117e-01,9.99999e-01
8.410139374e-01,4.76721e-01,9.99999e-01,9.82650e-01,4.85137e-01,9.99999e-01
8.452190071e-01,4.87918e-01,9.99999e-01,9.91464e-01,4.92118e-01,9.99999e-01
8.494451021e-01,4.96578e-01,9.99999e-01,9.95028e-01,4.99059e-01,9.99999e-01
8.536923276e-01,5.04472e-01,9.99999e-01,9.97064e-01,5.05958e-01,9.99999e-01
8.579607893e-01,5.11883e-01,9.99999e-01,9.98187e-01,5.12813e-01,9.99999e-01
8.622505932e-01,5.19025e-01,9.99999e-01,9.98850e-01,5.19622e-01,9.99999e-01
8.665618462e-01,4.78154e-01,9.08990e-01,9.99286e-01,5.26385e-01,9.99999e-01
8.708946554e-01,3.18570e-01,5.98046e-01,9.99182e-01,5.33100e-01,9.99999e-01
8.752491287e-01,3.55716e-01,6.59714e-01,9.98906e-01,5.39765e-01,9.99999e-01
8.796253743e-01,4.33627e-01,7.94796e-01,9.98483e-01,5.46379e-01,9.99999e-01
8.840235012e-01,4.89823e-01,8.87354e-01,9.98268e-01,5.52942e-01,9.99999e-01
8.884436187e-01,5.30411e-01,9.54096e-01,9.93622e-01,5.59451e-01,9.99999e-01
8.928858368e-01,5.19418e-01,9.81106e-01,9.35317e-01,5.65906e-01,9.99998e-01
8.973502660e-01,5.06575e-01,9.95397e-01,8.89128e-01,5.72306e-01,9.99998e-01
9.018370173e-01,5.44857e-01,9.99492e-01,9.42060e-01,5.78650e-01,9.99997e-01
9.063462024e-01,5.47663e-01,9.86782e-01,9.48290e-01,5.84936e-01,9.99997e-01
9.108779334e-01,5.28441e-01,9.70311e-01,9.20794e-01,5.91165e-01,9.99997e-01
9.154323231e-01,5.40234e-01,9.93002e-01,9.10598e-01,5.97335e-01,9.99997e-01
9.200094847e-01,5.09200e-01,9.03358e-01,9.29419e-01,6.03446e-01,9.99996e-01
9.246095321e-01,4.70228e-01,8.62877e-01,8.91011e-01,6.09497e-01,9.99994e-01
9.292325798e-01,2.61090e-01,8.90454e-01,4.69063e-01,6.15487e-01,9.99988e-01
9.338787427e-01,2.14209e-01,8.94379e-01,3.79856e-01,6.21415e-01,9.99985e-01
9.385481364e-01,3.93108e-01,9.21106e-01,6.76228e-01,6.27283e-01,9.99984e-01
9.432408771e-01,3.51335e-01,9.50981e-01,5.81496e-01,6.33088e-01,9.99983e-01
9.479570815e-01,2.96717e-01,9.74504e-01,4.75771e-01,6.38830e-01,9.99985e-01
9.526968669e-01,3.63839e-01,9.87646e-01,5.70805e-01,6.44510e-01,9.99988e-01
9.574603512e-01,3.83565e-01,9.94702e-01,5.92856e-01,6.50126e-01,9.99991e-01
9.622476530e-01,4.27419e-01,9.98345e-01,6.52869e-01,6.55679e-01,9.99994e-01
9.670588912e-01,5.16472e-01,9.99504e-01,7.81513e-01,6.61169e-01,9.99996e-01
9.718941857e-01,5.70858e-01,9.99965e-01,8.56408e-01,6.66594e-01,9.99997e-01
9.767536566e-01,5.90786e-01,9.99999e-01,8.79205e-01,6.71956e-01,9.99998e-01
9.816374249e-01,6.15684e-01,9.99999e-01,9.09089e-01,6.77253e-01,9.99998e-01
9.865456120e-01,6.43026e-01,9.99999e-01,9.42180e-01,6.82487e-01,9.99999e-01
9.914783401e-01,6.62787e-01,9.99999e-01,9.63834e-01,6.87656e-01,9.99999e-01
9.964357318e-01,6.79008e-01,9.99999e-01,9.80146e-01,6.92761e-01,9.99999e-01
1.001417910e+00,6.89469e-01,9.99999e-01,9.88056e-01,6.97802e-01,9.99999e-01
1.006425000e+00,6.97977e-01,9.99999e-01,9.93166e-01,7.02780e-01,9.99999e-01
1.011457125e+00,7.04693e-01,9.99999e-01,9.95760e-01,7.07693e-01,9.99999e-01
1.016514411e+00,7.10489e-01,9.99999e-01,9.97117e-01,7.12542e-01,9.99999e-01
1.021596983e+00,7.15625e-01,9.99922e-01,9.97701e-01,7.17328e-01,9.99999e-01
1.026704968e+00,7.17013e-01,9.94802e-01,9.98206e-01,7.22051e-01,9.99999e-01
1.031838492e+00,6.84267e-01,9.42774e-01,9.98698e-01,7.26711e-01,9.99999e-01
1.036997685e+00,8.29592e-02,1.13508e-01,9.99225e-01,7.31308e-01,9.99999e-01
1.042182673e+00,4.45244e-02,6.05562e-02,9.99074e-01,7.35842e-01,9.99999e-01
1.047393587e+00,6.20770e-02,8.39418e-02,9.98774e-01,7.40314e-01,9.99999e-01
1.052630555e+00,5.99394e-04,8.05808e-04,9.98316e-01,7.44724e-01,9.99999e-01
1.057893707e+00,1.80391e-03,2.41247e-03,9.97187e-01,7.49072e-01,9.99999e-01
1.063183176e+00,8.54114e-03,1.13729e-02,9.95379e-01,7.53359e-01,9.99999e-01
1.068499092e+00,3.12526e-02,4.15097e-02,9.92280e-01,7.57585e-01,9.99999e-01
1.073841587e+00,1.00945e-01,1.33509e-01,9.90959e-01,7.61751e-01,9.99999e-01
1.079210795e+00,2.11749e-01,2.79342e-01,9.88453e-01,7.65857e-01,9.99999e-01
1.084606849e+00,3.73966e-01,4.93833e-01,9.82550e-01,7.69903e-01,9.99998e-01
1.090029883e+00,5.23072e-01,6.92630e-01,9.74932e-01,7.73890e-01,9.99998e-01
1.095480033e+00,6.06380e-01,8.34517e-01,9.33246e-01,7.77818e-01,9.99997e-01
1.100957433e+00,6.01950e-01,9.16436e-01,8.39249e-01,7.81688e-01,9.99996e-01
1.106462220e+00,4.87666e-01,9.64586e-01,6.42522e-01,7.85500e-01,9.99993e-01
1.111994531e+00,3.10790e-01,9.86722e-01,3.98581e-01,7.89255e-01,9.99986e-01
1.117554504e+00,1.81050e-01,9.96754e-01,2.28896e-01,7.92953e-01,9.99981e-01
1.123142276e+00,2.76755e-01,9.99787e-01,3.47457e-01,7.96595e-01,9.99977e-01
1.128757988e+00,3.99730e-01,9.99999e-01,4.99561e-01,8.00181e-01,9.99975e-01
1.134401778e+00,2.08793e-01,9.99999e-01,2.59793e-01,8.03712e-01,9.99972e-01
1.140073787e+00,5.30173e-01,9.99999e-01,6.56827e-01,8.07189e-01,9.99978e-01
1.145774156e+00,3.42783e-01,9.99999e-01,4.22877e-01,8.10611e-01,9.99981e-01
1.151503026e+00,3.13494e-01,9.99999e-01,3.85143e-01,8.13980e-01,9.99983e-01
1.157260541e+00,3.62629e-01,9.99999e-01,4.43699e-01,8.17296e-01,9.99987e-01
1.163046844e+00,4.49540e-01,9.99999e-01,5.47849e-01,8.20559e-01,9.99991e-01
1.168862078e+00,5.40691e-01,9.99999e-01,6.56362e-01,8.23771e-01,9.99995e-01
1.174706389e+00,6.37593e-01,9.99999e-01,7.71035e-01,8.26932e-01,9.99997e-01
1.180579921e+00,7.08394e-01,9.99999e-01,8.53444e-01,8.30041e-01,9.99998e-01
1.186482820e+00,7.61611e-01,9.99988e-01,9.14198e-01,8.33101e-01,9.99998e-01
1.192415234e+00,7.79065e-01,9.81622e-01,9.48948e-01,8.36111e-01,9.99998e-01
1.198377311e+00,4.46410e-01,5.52022e-01,9.56752e-01,8.39073e-01,9.99998e-01
1.204369197e+00,1.61208e-14,1.96141e-14,9.59073e-01,8.41986e-01,9.99998e-01
1.210391043e+00,6.31491e-55,7.64236e-55,9.60821e-01,8.44851e-01,9.99999e-01
1.216442998e+00,1.06192e-47,1.27939e-47,9.66620e-01,8.47669e-01,9.99999e-01
1.222525213e+00,5.32916e-47,6.35233e-47,9.73896e-01,8.50441e-01,9.99999e-01
1.228637839e+00,2.12101e-36,2.51751e-36,9.81794e-01,8.53167e-01,9.99999e-01
1.234781029e+00,3.29573e-23,3.87360e-23,9.86461e-01,8.55847e-01,9.99999e-01
1.240954934e+00,1.35934e-15,1.59217e-15,9.91414e-01,8.58482e-01,9.99999e-01
1.247159708e+00,2.88484e-08,3.36362e-08,9.93312e-01,8.61074e-01,9.99999e-01
1.253395507e+00,1.91548e-05,2.22764e-05,9.94054e-01,8.63622e-01,9.99999e-01
1.259662485e+00,1.84173e-03,2.13576e-03,9.94343e-01,8.66126e-01,9.99999e-01
1.265960797e+00,2.54643e-02,2.95161e-02,9.90988e-01,8.68589e-01,9.99999e-01
1.272290601e+00,1.86774e-01,2.17169e-01,9.85846e-01,8.71009e-01,9.99999e-01
1.278652054e+00,1.56224e-01,1.82740e-01,9.72063e-01,8.73388e-01,9.99998e-01
1.285045314e+00,1.74618e-03,2.03746e-03,9.49875e-01,8.75727e-01,9.99998e-01
1.291470541e+00,4.31224e-07,5.18965e-07,9.14297e-01,8.78025e-01,9.99997e-01
1.297927893e+00,2.51934e-03,3.03877e-03,8.80377e-01,8.80284e-01,9.99996e-01
1.304417533e+00,4.75257e-02,6.13205e-02,8.60858e-01,8.82504e-01,9.99993e-01
1.310939621e+00,7.92372e-03,9.88733e-03,8.27467e-01,8.84686e-01,9.99989e-01
1.317494319e+00,1.81904e-19,2.28196e-19,8.30500e-01,8.86829e-01,9.99983e-01
1.324081790e+00,3.91228e-13,5.00820e-13,7.57573e-01,8.88936e-01,9.99973e-01
1.330702199e+00,5.79953e-08,1.06455e-07,3.57471e-01,8.91005e-01,9.99955e-01
1.337355710e+00,3.38815e-08,2.28767e-07,6.66672e-02,8.93038e-01,9.99914e-01
1.344042489e+00,5.01240e-09,7.65656e-08,2.80788e-03,8.95036e-01,9.99817e-01
1.350762701e+00,4.76478e-13,6.21660e-08,1.63785e-06,8.96999e-01,9.99709e-01
1.357516515e+00,8.99248e-13,2.99277e-05,4.59223e-09,8.98927e-01,9.99639e-01
1.364304097e+00,1.26930e-08,9.32957e-04,5.62748e-06,9.00821e-01,9.99614e-01
1.371125618e+00,1.55740e-05,2.71620e-02,3.30491e-04,9.02681e-01,9.99610e-01
1.377981246e+00,6.23000e-05,4.93095e-02,9.36143e-04,9.04509e-01,9.99581e-01
1.384871152e+00,3.14418e-06,1.73624e-01,1.45352e-05,9.06303e-01,9.99593e-01
1.391795508e+00,1.78758e-06,1.98481e-01,7.01298e-06,9.08066e-01,9.99655e-01
1.398754485e+00,2.39468e-05,3.66991e-01,6.46059e-05,9.09798e-01,9.99703e-01
1.405748258e+00,2.89931e-05,4.79217e-01,5.81331e-05,9.11498e-01,9.99734e-01
1.412776999e+00,3.70049e-05,6.27910e-01,5.74808e-05,9.13168e-01,9.99786e-01
1.419840884e+00,7.34309e-05,5.58406e-01,1.11459e-04,9.14808e-01,9.99840e-01
1.426940089e+00,2.87269e-04,4.03327e-02,8.82364e-04,9.16418e-01,9.99901e-01
1.434074789e+00,0.00000e+00,0.00000e+00,4.42617e-03,9.18000e-01,9.99938e-01
1.441245163e+00,0.00000e+00,0.00000e+00,1.34224e-02,9.19552e-01,9.99951e-01
1.448451389e+00,0.00000e+00,0.00000e+00,4.87500e-02,9.21077e-01,9.99959e-01
1.455693646e+00,0.00000e+00,0.00000e+00,1.30171e-01,9.22574e-01,9.99966e-01
1.462972114e+00,1.67012e-216,5.45410e-216,1.68175e-01,9.24043e-01,9.99971e-01
1.470286975e+00,9.90500e-91,3.52506e-90,1.26188e-01,9.25486e-01,9.99974e-01
