#,Wave/freq,Total,CO2,H2O,Rayleigh,CIA
4.000000000e-01,9.06686e-12,9.99999e-01,9.99949e-01,9.06731e-12,9.99999e-01
4.020000000e-01,1.49903e-11,9.99999e-01,9.99968e-01,1.49908e-11,9.99999e-01
4.040100000e-01,2.45258e-11,9.99999e-01,9.99986e-01,2.45261e-11,9.99999e-01
4.060300500e-01,3.97382e-11,9.99999e-01,9.99996e-01,3.97384e-11,9.99999e-01
4.080602003e-01,6.37751e-11,9.99999e-01,9.99998e-01,6.37751e-11,9.99999e-01
4.101005013e-01,1.01399e-10,9.99999e-01,9.99999e-01,1.01399e-10,9.99999e-01
4.121510038e-01,1.59750e-10,9.99999e-01,9.99997e-01,1.59750e-10,9.99999e-01
4.142117588e-01,2.49425e-10,9.99999e-01,9.99986e-01,2.49429e-10,9.99999e-01
4.162828176e-01,3.86015e-10,9.99999e-01,9.99937e-01,3.86039e-10,9.99999e-01
4.183642317e-01,5.92314e-10,9.99999e-01,9.99962e-01,5.92336e-10,9.99999e-01
4.204560528e-01,9.01204e-10,9.99999e-01,9.99976e-01,9.01224e-10,9.99999e-01
4.225583331e-01,1.35986e-09,9.99999e-01,9.99991e-01,1.35987e-09,9.99999e-01
4.246711247e-01,2.03531e-09,9.99999e-01,9.99992e-01,2.03532e-09,9.99999e-01
4.267944804e-01,3.02207e-09,9.99999e-01,9.99989e-01,3.02210e-09,9.99999e-01
4.289284528e-01,4.45236e-09,9.99999e-01,9.99991e-01,4.45239e-09,9.99999e-01
4.310730950e-01,6.50958e-09,9.99999e-01,9.99996e-01,6.50960e-09,9.99999e-01
4.332284605e-01,9.44619e-09,9.99999e-01,9.99998e-01,9.44620e-09,9.99999e-01
4.353946028e-01,1.36071e-08,9.99999e-01,9.99999e-01,1.36071e-08,9.99999e-01
4.375715758e-01,1.94599e-08,9.99999e-01,9.99993e-01,1.94600e-08,9.99999e-01
4.397594337e-01,2.76330e-08,9.99999e-01,9.99946e-01,2.76345e-08,9.99999e-01
4.419582309e-01,3.89614e-08,9.99999e-01,9.99728e-01,3.89719e-08,9.99999e-01
4.441680220e-01,5.45769e-08,9.99999e-01,9.99783e-01,5.45887e-08,9.99999e-01
4.463888621e-01,7.59392e-08,9.99999e-01,9.99776e-01,7.59562e-08,9.99999e-01
4.486208064e-01,1.04985e-07,9.99999e-01,9.99860e-01,1.05000e-07,9.99999e-01
4.508639105e-01,1.44215e-07,9.99999e-01,9.99934e-01,1.44224e-07,9.99999e-01
4.531182300e-01,1.96858e-07,9.99999e-01,9.99973e-01,1.96863e-07,9.99999e-01
4.553838212e-01,2.67063e-07,9.99999e-01,9.99982e-01,2.67068e-07,9.99999e-01
4.576607403e-01,3.60129e-07,9.99999e-01,9.99991e-01,3.60132e-07,9.99999e-01
4.599490440e-01,4.82764e-07,9.99999e-01,9.99993e-01,4.82767e-07,9.99999e-01
4.622487892e-01,6.43427e-07,9.99999e-01,9.99998e-01,6.43427e-07,9.99999e-01
4.645600332e-01,8.52698e-07,9.99999e-01,9.99995e-01,8.52701e-07,9.99999e-01
4.668828333e-01,1.12370e-06,9.99999e-01,9.99934e-01,1.12377e-06,9.99999e-01
4.692172475e-01,1.47276e-06,9.99999e-01,9.99859e-01,1.47297e-06,9.99999e-01
4.715633337e-01,1.92020e-06,9.99999e-01,9.99908e-01,1.92037e-06,9.99999e-01
4.739211504e-01,2.49037e-06,9.99999e-01,9.99911e-01,2.49059e-06,9.99999e-01
4.762907561e-01,3.21344e-06,9.99999e-01,9.99953e-01,3.21358e-06,9.99999e-01
4.786722099e-01,4.12555e-06,9.99999e-01,9.99980e-01,4.12563e-06,9.99999e-01
4.810655710e-01,5.27042e-06,9.99999e-01,9.99993e-01,5.27045e-06,9.99999e-01
4.834708988e-01,6.70010e-06,9.99999e-01,9.99946e-01,6.70045e-06,9.99999e-01
4.858882533e-01,8.47731e-06,9.99999e-01,9.99900e-01,8.47815e-06,9.99999e-01
4.883176946e-01,1.06769e-05,9.99999e-01,9.99916e-01,1.06778e-05,9.99999e-01
4.907592831e-01,1.33859e-05,9.99999e-01,9.99924e-01,1.33869e-05,9.99999e-01
4.932130795e-01,1.67077e-05,9.99999e-01,9.99946e-01,1.67086e-05,9.99999e-01
4.956791449e-01,2.07628e-05,9.99999e-01,9.99971e-01,2.07634e-05,9.99999e-01
4.981575406e-01,2.56881e-05,9.99999e-01,9.99859e-01,2.56917e-05,9.99999e-01
5.006483283e-01,3.16450e-05,9.99999e-01,9.99638e-01,3.16564e-05,9.99999e-01
5.031515699e-01,3.87736e-05,9.99999e-01,9.98154e-01,3.88453e-05,9.99999e-01
5.056673278e-01,4.74281e-05,9.99999e-01,9.99022e-01,4.74745e-05,9.99999e-01
5.081956644e-01,5.77198e-05,9.99999e-01,9.98766e-01,5.77910e-05,9.99999e-01
5.107366428e-01,7.00184e-05,9.99999e-01,9.99166e-01,7.00768e-05,9.99999e-01
5.132903260e-01,8.46111e-05,9.99999e-01,9.99522e-01,8.46515e-05,9.99999e-01
5.158567776e-01,1.01856e-04,9.99999e-01,9.99797e-01,1.01876e-04,9.99999e-01
5.184360615e-01,1.22149e-04,9.99999e-01,9.99918e-01,1.22159e-04,9.99999e-01
5.210282418e-01,1.45950e-04,9.99999e-01,9.99969e-01,1.45954e-04,9.99999e-01
5.236333830e-01,1.73753e-04,9.99999e-01,9.99879e-01,1.73773e-04,9.99999e-01
5.262515499e-01,2.06168e-04,9.99999e-01,9.99924e-01,2.06183e-04,9.99999e-01
5.288828077e-01,2.43796e-04,9.99999e-01,9.99930e-01,2.43812e-04,9.99999e-01
5.315272217e-01,2.87338e-04,9.99999e-01,9.99938e-01,2.87356e-04,9.99999e-01
5.341848578e-01,3.37565e-04,9.99999e-01,9.99959e-01,3.37579e-04,9.99999e-01
5.368557821e-01,3.95264e-04,9.99999e-01,9.99859e-01,3.95320e-04,9.99999e-01
5.395400610e-01,4.61264e-04,9.99999e-01,9.99497e-01,4.61495e-04,9.99999e-01
5.422377613e-01,5.36751e-04,9.99999e-01,9.99343e-01,5.37104e-04,9.99999e-01
5.449489501e-01,6.22851e-04,9.99999e-01,9.99393e-01,6.23229e-04,9.99999e-01
5.476736949e-01,7.20653e-04,9.99999e-01,9.99458e-01,7.21043e-04,9.99999e-01
5.504120634e-01,8.31484e-04,9.99999e-01,9.99607e-01,8.31810e-04,9.99999e-01
5.531641237e-01,9.56699e-04,9.99999e-01,9.99801e-01,9.56889e-04,9.99999e-01
5.559299443e-01,1.09763e-03,9.99999e-01,9.99904e-01,1.09773e-03,9.99999e-01
5.587095940e-01,1.25582e-03,9.99999e-01,9.99939e-01,1.25590e-03,9.99999e-01
5.615031420e-01,1.43294e-03,9.99999e-01,9.99933e-01,1.43304e-03,9.99999e-01
5.643106577e-01,1.63078e-03,9.99999e-01,9.99925e-01,1.63090e-03,9.99999e-01
5.671322110e-01,1.84969e-03,9.99999e-01,9.99100e-01,1.85135e-03,9.99999e-01
5.699678720e-01,2.09429e-03,9.99999e-01,9.99019e-01,2.09635e-03,9.99999e-01
5.728177114e-01,2.36555e-03,9.99999e-01,9.98988e-01,2.36794e-03,9.99999e-01
5.756818000e-01,2.66581e-03,9.99999e-01,9.99070e-01,2.66829e-03,9.99999e-01
5.785602090e-01,2.99723e-03,9.99999e-01,9.99187e-01,2.99966e-03,9.99999e-01
5.814530100e-01,3.36165e-03,9.99999e-01,9.99186e-01,3.36439e-03,9.99999e-01
5.843602750e-01,3.76130e-03,9.99999e-01,9.99037e-01,3.76492e-03,9.99999e-01
5.872820764e-01,4.16898e-03,9.99999e-01,9.91719e-01,4.20379e-03,9.99999e-01
5.902184868e-01,4.63623e-03,9.99999e-01,9.89887e-01,4.68360e-03,9.99999e-01
5.931695792e-01,5.16992e-03,9.99999e-01,9.92869e-01,5.20705e-03,9.99999e-01
5.961354271e-01,5.73165e-03,9.99999e-01,9.92167e-01,5.77689e-03,9.99999e-01
5.991161043e-01,6.35936e-03,9.99999e-01,9.94275e-01,6.39597e-03,9.99999e-01
6.021116848e-01,7.04416e-03,9.99999e-01,9.96744e-01,7.06717e-03,9.99999e-01
6.051222432e-01,7.78057e-03,9.99999e-01,9.98350e-01,7.79342e-03,9.99999e-01
6.081478544e-01,8.57162e-03,9.99999e-01,9.99288e-01,8.57771e-03,9.99999e-01
6.111885937e-01,9.42024e-03,9.99999e-01,9.99698e-01,9.42307e-03,9.99999e-01
6.142445367e-01,1.03312e-02,9.99999e-01,9.99865e-01,1.03325e-02,9.99999e-01
6.173157594e-01,1.13084e-02,9.99999e-01,9.99925e-01,1.13092e-02,9.99999e-01
6.204023382e-01,1.23553e-02,9.99999e-01,9.99937e-01,1.23561e-02,9.99999e-01
6.235043498e-01,1.34727e-02,9.99999e-01,9.99728e-01,1.34763e-02,9.99999e-01
6.266218716e-01,1.46516e-02,9.99999e-01,9.98543e-01,1.46729e-02,9.99999e-01
6.297549810e-01,1.59405e-02,9.99999e-01,9.99465e-01,1.59490e-02,9.99999e-01
6.329037559e-01,1.72891e-02,9.99999e-01,9.98941e-01,1.73075e-02,9.99999e-01
6.360682746e-01,1.87345e-02,9.99999e-01,9.99101e-01,1.87513e-02,9.99999e-01
6.392486160e-01,2.02599e-02,9.99999e-01,9.98833e-01,2.02836e-02,9.99999e-01
6.424448591e-01,2.18731e-02,9.99999e-01,9.98451e-01,2.19070e-02,9.99999e-01
6.456570834e-01,2.34548e-02,9.99999e-01,9.92824e-01,2.36244e-02,9.99999e-01
6.488853688e-01,2.52802e-02,9.99999e-01,9.93780e-01,2.54384e-02,9.99999e-01
6.521297956e-01,2.72039e-02,9.99999e-01,9.94593e-01,2.73518e-02,9.99999e-01
6.553904446e-01,2.92101e-02,9.99999e-01,9.94658e-01,2.93670e-02,9.99999e-01
6.586673968e-01,3.13411e-02,9.99999e-01,9.95384e-01,3.14864e-02,9.99999e-01
6.619607338e-01,3.36223e-02,9.99999e-01,9.97329e-01,3.37123e-02,9.99999e-01
6.652705375e-01,3.59911e-02,9.99999e-01,9.98449e-01,3.60469e-02,9.99999e-01
6.685968902e-01,3.84646e-02,9.99999e-01,9.99279e-01,3.84923e-02,9.99999e-01
6.719398746e-01,4.10366e-02,9.99999e-01,9.99665e-01,4.10503e-02,9.99999e-01
6.752995740e-01,4.37148e-02,9.99999e-01,9.99819e-01,4.37226e-02,9.99999e-01
6.786760719e-01,4.64990e-02,9.99999e-01,9.99741e-01,4.65110e-02,9.99999e-01
6.820694522e-01,4.93949e-02,9.99999e-01,9.99555e-01,4.94168e-02,9.99999e-01
6.854797995e-01,5.24114e-02,9.99999e-01,9.99427e-01,5.24414e-02,9.99999e-01
6.889071985e-01,5.55098e-02,9.99999e-01,9.98633e-01,5.55858e-02,9.99999e-01
6.923517345e-01,5.75381e-02,9.99999e-01,9.77690e-01,5.88510e-02,9.99999e-01
6.958134932e-01,6.14997e-02,9.99999e-01,9.88140e-01,6.22378e-02,9.99999e-01
6.992925606e-01,6.50178e-02,9.99999e-01,9.88911e-01,6.57468e-02,9.99999e-01
7.027890234e-01,6.84231e-02,9.99999e-01,9.86230e-01,6.93784e-02,9.99999e-01
7.063029686e-01,7.22859e-02,9.99999e-01,9.88417e-01,7.31330e-02,9.99999e-01
7.098344834e-01,7.61543e-02,9.99999e-01,9.88882e-01,7.70105e-02,9.99999e-01
7.133836558e-01,7.98269e-02,9.99999e-01,9.85385e-01,8.10108e-02,9.99998e-01
7.169505741e-01,7.56309e-02,9.99999e-01,8.88377e-01,8.51338e-02,9.99998e-01
7.205353270e-01,8.42619e-02,9.99999e-01,9.42750e-01,8.93789e-02,9.99997e-01
7.241380036e-01,8.70597e-02,9.99999e-01,9.28680e-01,9.37456e-02,9.99997e-01
7.277586936e-01,9.18844e-02,9.99999e-01,9.35372e-01,9.82330e-02,9.99998e-01
7.313974871e-01,9.57364e-02,9.99999e-01,9.30924e-01,1.02840e-01,9.99998e-01
7.350544745e-01,1.03445e-01,9.99999e-01,9.61686e-01,1.07566e-01,9.99998e-01
7.387297469e-01,1.09219e-01,9.99999e-01,9.71621e-01,1.12409e-01,9.99999e-01
7.424233956e-01,1.15723e-01,9.99999e-01,9.85981e-01,1.17368e-01,9.99999e-01
7.461355126e-01,1.21400e-01,9.99999e-01,9.91494e-01,1.22442e-01,9.99999e-01
7.498661902e-01,1.27120e-01,9.99999e-01,9.96022e-01,1.27628e-01,9.99999e-01
7.536155211e-01,1.32666e-01,9.99999e-01,9.98052e-01,1.32924e-01,9.99999e-01
7.573835987e-01,1.38191e-01,9.99999e-01,9.98996e-01,1.38330e-01,9.99999e-01
7.611705167e-01,1.43752e-01,9.99999e-01,9.99376e-01,1.43842e-01,9.99999e-01
7.649763693e-01,1.49400e-01,9.99999e-01,9.99609e-01,1.49458e-01,9.99999e-01
7.688012511e-01,1.55134e-01,9.99999e-01,9.99728e-01,1.55176e-01,9.99999e-01
7.726452574e-01,1.60957e-01,9.99999e-01,9.99776e-01,1.60993e-01,9.99999e-01
7.765084837e-01,1.66855e-01,9.99999e-01,9.99684e-01,1.66907e-01,9.99999e-01
7.803910261e-01,1.60674e-01,9.30391e-01,9.98640e-01,1.72915e-01,9.99999e-01
7.842929812e-01,1.24656e-01,6.99320e-01,9.95262e-01,1.79014e-01,9.99999e-01
7.882144461e-01,1.25869e-01,6.85797e-01,9.90187e-01,1.85202e-01,9.99999e-01
7.921555184e-01,1.51589e-01,7.95777e-01,9.94586e-01,1.91474e-01,9.99999e-01
7.961162960e-01,1.67842e-01,8.56338e-01,9.90540e-01,1.97829e-01,9.99999e-01
8.000968774e-01,1.85747e-01,9.19374e-01,9.89022e-01,2.04264e-01,9.99999e-01
8.040973618e-01,1.99548e-01,9.57186e-01,9.89033e-01,2.10774e-01,9.99999e-01
8.081178486e-01,2.07868e-01,9.80174e-01,9.75605e-01,2.17356e-01,9.99998e-01
8.121584379e-01,2.00894e-01,9.93790e-01,9.02283e-01,2.24009e-01,9.99998e-01
8.162192301e-01,2.03756e-01,9.98625e-01,8.84267e-01,2.30727e-01,9.99997e-01
8.203003262e-01,2.23728e-01,9.99977e-01,9.41998e-01,2.37509e-01,9.99997e-01
8.244018279e-01,2.24469e-01,9.99999e-01,9.18642e-01,2.44349e-01,9.99997e-01
8.285238370e-01,2.33518e-01,9.99999e-01,9.29441e-01,2.51246e-01,9.99998e-01
8.326664562e-01,2.39739e-01,9.99999e-01,9.28516e-01,2.58196e-01,9.99998e-01
8.368297885e-01,2.51456e-01,9.99999e-01,9.48193e-01,2.65194e-01,9.99998e-01
8.410139374e-01,2.63762e-01,9.99999e-01,9.68860e-01,2.72239e-01,9.99999e-01
8.452190071e-01,2.75022e-01,9.99999e-01,9.84589e-01,2.79326e-01,9.99999e-01
8.494451021e-01,2.83891e-01,9.99999e-01,9.91058e-01,2.86452e-01,9.99999e-01
8.536923276e-01,2.92054e-01,9.99999e-01,9.94688e-01,2.93614e-01,9.99999e-01
8.579607893e-01,2.99826e-01,9.99999e-01,9.96734e-01,3.00808e-01,9.99999e-01
8.622505932e-01,3.07391e-01,9.99999e-01,9.97920e-01,3.08031e-01,9.99999e-01
8.665618462e-01,2.78700e-01,8.85045e-01,9.98717e-01,3.15280e-01,9.99999e-01
8.708946554e-01,1.33394e-01,4.14124e-01,9.98534e-01,3.22551e-01,9.99999e-01
8.752491287e-01,1.58545e-01,4.81558e-01,9.98037e-01,3.29841e-01,9.99999e-01
8.796253743e-01,2.23196e-01,6.63695e-01,9.97291e-01,3.37147e-01,9.99999e-01
8.840235012e-01,2.76915e-01,8.06304e-01,9.96904e-01,3.44466e-01,9.99999e-01
8.884436187e-01,3.19458e-01,9.18008e-01,9.88936e-01,3.51794e-01,9.99998e-01
8.928858368e-01,3.08548e-01,9.65959e-01,8.88798e-01,3.59129e-01,9.99997e-01
8.973502660e-01,2.94758e-01,9.91576e-01,8.10830e-01,3.66467e-01,9.99996e-01
9.018370173e-01,3.35354e-01,9.99066e-01,8.97913e-01,3.73806e-01,9.99996e-01
9.063462024e-01,3.39742e-01,9.77263e-01,9.10562e-01,3.81143e-01,9.99996e-01
9.108779334e-01,3.18171e-01,9.46975e-01,8.63548e-01,3.88474e-01,9.99995e-01
9.154323231e-01,3.30746e-01,9.87184e-01,8.45948e-01,3.95798e-01,9.99995e-01
9.200094847e-01,3.03574e-01,8.46313e-01,8.77176e-01,4.03111e-01,9.99994e-01
9.246095321e-01,2.60849e-01,7.67014e-01,8.20949e-01,4.10410e-01,9.99990e-01
9.292325798e-01,9.85378e-02,8.15832e-01,2.78359e-01,4.17694e-01,9.99980e-01
9.338787427e-01,6.86049e-02,8.18756e-01,1.90057e-01,4.24959e-01,9.99974e-01
9.385481364e-01,1.93065e-01,8.62601e-01,5.09061e-01,4.32203e-01,9.99973e-01
9.432408771e-01,1.63976e-01,9.12927e-01,4.04839e-01,4.39424e-01,9.99970e-01
9.479570815e-01,1.23358e-01,9.54419e-01,2.88034e-01,4.46620e-01,9.99974e-01
9.526968669e-01,1.70181e-01,9.77738e-01,3.82165e-01,4.53788e-01,9.99980e-01
9.574603512e-01,1.83705e-01,9.90409e-01,4.01871e-01,4.60925e-01,9.99985e-01
9.622476530e-01,2.19828e-01,9.96995e-01,4.70918e-01,4.68031e-01,9.99989e-01
9.670588912e-01,3.06833e-01,9.99097e-01,6.46344e-01,4.75103e-01,9.99993e-01
9.718941857e-01,3.65401e-01,9.99934e-01,7.57919e-01,4.82139e-01,9.99995e-01
9.767536566e-01,3.88527e-01,9.99999e-01,7.94314e-01,4.89136e-01,9.99996e-01
9.816374249e-01,4.17888e-01,9.99999e-01,8.42356e-01,4.96095e-01,9.99997e-01
9.865456120e-01,4.51778e-01,9.99999e-01,8.98146e-01,5.03011e-01,9.99998e-01
9.914783401e-01,4.77103e-01,9.99999e-01,9.35706e-01,5.09885e-01,9.99999e-01
9.964357318e-01,4.98343e-01,9.99999e-01,9.64445e-01,5.16714e-01,9.99999e-01
1.001417910e+00,5.12257e-01,9.99999e-01,9.78527e-01,5.23497e-01,9.99999e-01
1.006425000e+00,5.23724e-01,9.99999e-01,9.87723e-01,5.30233e-01,9.99999e-01
1.011457125e+00,5.32811e-01,9.99999e-01,9.92346e-01,5.36920e-01,9.99999e-01
1.016514411e+00,5.40732e-01,9.99999e-01,9.94805e-01,5.43556e-01,9.99999e-01
1.021596983e+00,5.47802e-01,9.99886e-01,9.95861e-01,5.50141e-01,9.99999e-01
1.026704968e+00,5.49900e-01,9.91021e-01,9.96772e-01,5.56673e-01,9.99999e-01
1.031838492e+00,5.18515e-01,9.22808e-01,9.97649e-01,5.63151e-01,9.99999e-01
1.036997685e+00,3.81928e-02,6.71260e-02,9.98605e-01,5.69575e-01,9.99999e-01
1.042182673e+00,5.40136e-03,9.39067e-03,9.98342e-01,5.75943e-01,9.99999e-01
1.047393587e+00,1.20274e-02,2.06952e-02,9.97799e-01,5.82254e-01,9.99999e-01
1.052630555e+00,6.94942e-06,1.18317e-05,9.96984e-01,5.88507e-01,9.99999e-01
1.057893707e+00,2.49739e-05,4.21093e-05,9.94976e-01,5.94703e-01,9.99999e-01
1.063183176e+00,3.31857e-04,5.55096e-04,9.91739e-01,6.00839e-01,9.99999e-01
1.068499092e+00,2.37985e-03,3.96012e-03,9.86190e-01,6.06915e-01,9.99999e-01
1.073841587e+00,1.74468e-02,2.88136e-02,9.83891e-01,6.12931e-01,9.99999e-01
1.079210795e+00,6.50234e-02,1.06871e-01,9.79336e-01,6.18886e-01,9.99998e-01
1.084606849e+00,1.72161e-01,2.83482e-01,9.68945e-01,6.24780e-01,9.99998e-01
1.090029883e+00,3.12946e-01,5.17646e-01,9.55946e-01,6.30612e-01,9.99997e-01
1.095480033e+00,4.07610e-01,7.21989e-01,8.84344e-01,6.36381e-01,9.99996e-01
1.100957433e+00,4.03806e-01,8.54256e-01,7.33346e-01,6.42088e-01,9.99994e-01
1.106462220e+00,2.82975e-01,9.36803e-01,4.63987e-01,6.47731e-01,9.99987e-01
1.111994531e+00,1.30402e-01,9.76073e-01,2.03775e-01,6.53311e-01,9.99976e-01
1.117554504e+00,5.30321e-02,9.94082e-01,8.08086e-02,6.58828e-01,9.99966e-01
1.123142276e+00,1.14338e-01,9.99608e-01,1.72143e-01,6.64281e-01,9.99960e-01
1.128757988e+00,2.03508e-01,9.99999e-01,3.03906e-01,6.69670e-01,9.99956e-01
1.134401778e+00,9.19337e-02,9.99999e-01,1.36206e-01,6.74995e-01,9.99951e-01
1.140073787e+00,3.26482e-01,9.99999e-01,4.79958e-01,6.80256e-01,9.99960e-01
1.145774156e+00,1.58114e-01,9.99999e-01,2.30678e-01,6.85452e-01,9.99966e-01
1.151503026e+00,1.37151e-01,9.99999e-01,1.98606e-01,6.90585e-01,9.99971e-01
1.157260541e+00,1.67861e-01,9.99999e-01,2.41305e-01,6.95653e-01,9.99978e-01
1.163046844e+00,2.42464e-01,9.99999e-01,3.46056e-01,7.00658e-01,9.99985e-01
1.168862078e+00,3.32315e-01,9.99999e-01,4.70971e-01,7.05599e-01,9.99992e-01
1.174706389e+00,4.46108e-01,9.99999e-01,6.27902e-01,7.10475e-01,9.99996e-01
1.180579921e+00,5.38095e-01,9.99999e-01,7.52277e-01,7.15289e-01,9.99997e-01
1.186482820e+00,6.12686e-01,9.99987e-01,8.50916e-01,7.20038e-01,9.99997e-01
1.192415234e+00,6.39716e-01,9.69175e-01,9.10005e-01,7.24725e-01,9.99997e-01
1.198377311e+00,3.62945e-01,5.31663e-01,9.23736e-01,7.29349e-01,9.99998e-01
1.204369197e+00,2.60193e-24,3.70263e-24,9.27765e-01,7.33910e-01,9.99998e-01
1.210391043e+00,5.73068e-97,8.07690e-97,9.30715e-01,7.38408e-01,9.99998e-01
1.216442998e+00,5.64040e-84,7.88569e-84,9.40645e-01,7.42844e-01,9.99998e-01
1.222525213e+00,1.02501e-82,1.40580e-82,9.53467e-01,7.47219e-01,9.99999e-01
1.228637839e+00,6.87167e-64,9.34977e-64,9.67468e-01,7.51532e-01,9.99999e-01
1.234781029e+00,6.17074e-40,8.25165e-40,9.75719e-01,7.55785e-01,9.99999e-01
1.240954934e+00,1.33857e-26,1.77829e-26,9.84591e-01,7.59976e-01,9.99999e-01
1.247159708e+00,4.43521e-13,5.84590e-13,9.87971e-01,7.64107e-01,9.99999e-01
1.253395507e+00,7.33005e-09,9.61445e-09,9.89327e-01,7.68179e-01,9.99999e-01
1.259662485e+00,1.12182e-05,1.46352e-05,9.89958e-01,7.72191e-01,9.99999e-01
1.265960797e+00,2.12846e-03,2.77067e-03,9.83905e-01,7.76144e-01,9.99999e-01
1.272290601e+00,4.29616e-02,5.61378e-02,9.76392e-01,7.80039e-01,9.99998e-01
1.278652054e+00,4.62991e-02,6.11151e-02,9.50789e-01,7.83876e-01,9.99998e-01
1.285045314e+00,1.40548e-04,1.85399e-04,9.23849e-01,7.87655e-01,9.99997e-01
1.291470541e+00,9.74592e-12,1.34585e-11,8.52707e-01,7.91378e-01,9.99996e-01
1.297927893e+00,2.19743e-05,3.03907e-05,8.12632e-01,7.95044e-01,9.99994e-01
1.304417533e+00,4.65862e-03,7.21354e-03,7.65722e-01,7.98654e-01,9.99989e-01
1.310939621e+00,1.23075e-03,1.82666e-03,7.37746e-01,8.02208e-01,9.99982e-01
1.317494319e+00,2.61052e-33,3.88156e-33,7.17846e-01,8.05708e-01,9.99970e-01
1.324081790e+00,4.58920e-22,7.09676e-22,6.12995e-01,8.09154e-01,9.99951e-01
1.330702199e+00,2.34009e-13,5.70206e-13,2.09167e-01,8.12545e-01,9.99919e-01
1.337355710e+00,1.86711e-13,5.31006e-12,1.13395e-02,8.15884e-01,9.99846e-01
1.344042489e+00,1.95045e-14,2.51910e-12,2.89845e-04,8.19170e-01,9.99672e-01
1.350762701e+00,5.22424e-22,2.87293e-13,2.53951e-10,8.22403e-01,9.99477e-01
1.357516515e+00,2.36553e-21,2.79145e-08,5.72504e-15,8.25586e-01,9.99352e-01
1.364304097e+00,3.72366e-14,4.94657e-06,1.73039e-09,8.28717e-01,9.99306e-01
1.371125618e+00,1.26638e-08,1.94227e-03,2.80504e-06,8.31798e-01,9.99300e-01
1.377981246e+00,8.63544e-08,4.74492e-03,9.53780e-06,8.34830e-01,9.99248e-01
1.384871152e+00,1.88465e-09,4.42781e-02,2.93994e-08,8.37812e-01,9.99256e-01
1.391795508e+00,1.63445e-10,5.60874e-02,1.71131e-09,8.40745e-01,9.99363e-01
1.398754485e+00,2.02365e-08,1.64681e-01,1.15117e-07,8.43631e-01,9.99468e-01
1.405748258e+00,3.80758e-08,2.67508e-01,1.31659e-07,8.46469e-01,9.99522e-01
1.412776999e+00,6.31529e-08,4.32301e-01,1.33454e-07,8.49261e-01,9.99616e-01
1.419840884e+00,1.32144e-07,4.00429e-01,2.77291e-07,8.52006e-01,9.99713e-01
1.426940089e+00,5.29710e-06,1.77219e-02,1.71441e-05,8.54706e-01,9.99822e-01
1.434074789e+00,0.00000e+00,0.00000e+00,1.39873e-04,8.57360e-01,9.99889e-01
1.441245163e+00,0.00000e+00,0.00000e+00,7.27417e-04,8.59970e-01,9.99913e-01
1.448451389e+00,0.00000e+00,0.00000e+00,6.79976e-03,8.62537e-01,9.99928e-01
1.455693646e+00,0.00000e+00,0.00000e+00,3.26886e-02,8.65060e-01,9.99940e-01
1.462972114e+00,0.00000e+00,0.00000e+00,4.74415e-02,8.67540e-01,9.99949e-01
1.470286975e+00,2.41389e-161,2.36616e-160,2.93766e-02,8.69979e-01,9.99954e-01
