#,Wave/freq,Total,CO2,H2O,Rayleigh,CIA
4.000000000e-01,3.73363e-06,9.99999e-01,9.99975e-01,3.73372e-06,9.99999e-01
4.020000000e-01,4.78032e-06,9.99999e-01,9.99984e-01,4.78039e-06,9.99999e-01
4.040100000e-01,6.08911e-06,9.99999e-01,9.99993e-01,6.08915e-06,9.99999e-01
4.060300500e-01,7.71923e-06,9.99999e-01,9.99998e-01,7.71924e-06,9.99999e-01
4.080602003e-01,9.73997e-06,9.99999e-01,9.99999e-01,9.73997e-06,9.99999e-01
4.101005013e-01,1.22334e-05,9.99999e-01,9.99999e-01,1.22334e-05,9.99999e-01
4.121510038e-01,1.52960e-05,9.99999e-01,9.99998e-01,1.52961e-05,9.99999e-01
4.142117588e-01,1.90411e-05,9.99999e-01,9.99992e-01,1.90413e-05,9.99999e-01
4.162828176e-01,2.36005e-05,9.99999e-01,9.99969e-01,2.36012e-05,9.99999e-01
4.183642317e-01,2.91287e-05,9.99999e-01,9.99981e-01,2.91293e-05,9.99999e-01
4.204560528e-01,3.58027e-05,9.99999e-01,9.99988e-01,3.58031e-05,9.99999e-01
4.225583331e-01,4.38268e-05,9.99999e-01,9.99995e-01,4.38270e-05,9.99999e-01
4.246711247e-01,5.34351e-05,9.99999e-01,9.99996e-01,5.34352e-05,9.99999e-01
4.267944804e-01,6.48951e-05,9.99999e-01,9.99994e-01,6.48954e-05,9.99999e-01
4.289284528e-01,7.85111e-05,9.99999e-01,9.99995e-01,7.85114e-05,9.99999e-01
4.310730950e-01,9.46275e-05,9.99999e-01,9.99997e-01,9.46277e-05,9.99999e-01
4.332284605e-01,1.13632e-04,9.99999e-01,9.99999e-01,1.13632e-04,9.99999e-01
4.353946028e-01,1.35961e-04,9.99999e-01,9.99999e-01,1.35961e-04,9.99999e-01
4.375715758e-01,1.62102e-04,9.99999e-01,9.99996e-01,1.62103e-04,9.99999e-01
4.397594337e-01,1.92595e-04,9.99999e-01,9.99972e-01,1.92600e-04,9.99999e-01
4.419582309e-01,2.28026e-04,9.99999e-01,9.99862e-01,2.28057e-04,9.99999e-01
4.441680220e-01,2.69113e-04,9.99999e-01,9.99894e-01,2.69142e-04,9.99999e-01
4.463888621e-01,3.16556e-04,9.99999e-01,9.99889e-01,3.16590e-04,9.99999e-01
4.486208064e-01,3.71186e-04,9.99999e-01,9.99931e-01,3.71212e-04,9.99999e-01
4.508639105e-01,4.33877e-04,9.99999e-01,9.99967e-01,4.33890e-04,9.99999e-01
4.531182300e-01,5.05585e-04,9.99999e-01,9.99986e-01,5.05592e-04,9.99999e-01
4.553838212e-01,5.87360e-04,9.99999e-01,9.99990e-01,5.87365e-04,9.99999e-01
4.576607403e-01,6.80344e-04,9.99999e-01,9.99995e-01,6.80347e-04,9.99999e-01
4.599490440e-01,7.85761e-04,9.99999e-01,9.99996e-01,7.85763e-04,9.99999e-01
4.622487892e-01,9.04934e-04,9.99999e-01,9.99999e-01,9.04935e-04,9.99999e-01
4.645600332e-01,1.03928e-03,9.99999e-01,9.99997e-01,1.03928e-03,9.99999e-01
4.668828333e-01,1.19027e-03,9.99999e-01,9.99967e-01,1.19031e-03,9.99999e-01
4.692172475e-01,1.35954e-03,9.99999e-01,9.99930e-01,1.35963e-03,9.99999e-01
4.715633337e-01,1.54890e-03,9.99999e-01,9.99954e-01,1.54897e-03,9.99999e-01
4.739211504e-01,1.76006e-03,9.99999e-01,9.99956e-01,1.76014e-03,9.99999e-01
4.762907561e-01,1.99501e-03,9.99999e-01,9.99977e-01,1.99505e-03,9.99999e-01
4.786722099e-01,2.25571e-03,9.99999e-01,9.99990e-01,2.25573e-03,9.99999e-01
4.810655710e-01,2.54428e-03,9.99999e-01,9.99996e-01,2.54429e-03,9.99999e-01
4.834708988e-01,2.86287e-03,9.99999e-01,9.99972e-01,2.86294e-03,9.99999e-01
4.858882533e-01,3.21385e-03,9.99999e-01,9.99950e-01,3.21401e-03,9.99999e-01
4.883176946e-01,3.59974e-03,9.99999e-01,9.99958e-01,3.59989e-03,9.99999e-01
4.907592831e-01,4.02293e-03,9.99999e-01,9.99962e-01,4.02308e-03,9.99999e-01
4.932130795e-01,4.48604e-03,9.99999e-01,9.99973e-01,4.48615e-03,9.99999e-01
4.956791449e-01,4.99171e-03,9.99999e-01,9.99985e-01,4.99178e-03,9.99999e-01
4.981575406e-01,5.54230e-03,9.99999e-01,9.99929e-01,5.54269e-03,9.99999e-01
5.006483283e-01,6.14057e-03,9.99999e-01,9.99818e-01,6.14169e-03,9.99999e-01
5.031515699e-01,6.78545e-03,9.99999e-01,9.99087e-01,6.79164e-03,9.99999e-01
5.056673278e-01,7.49187e-03,9.99999e-01,9.99520e-01,7.49546e-03,9.99999e-01
5.081956644e-01,8.25114e-03,9.99999e-01,9.99395e-01,8.25613e-03,9.99999e-01
5.107366428e-01,9.07294e-03,9.99999e-01,9.99591e-01,9.07664e-03,9.99999e-01
5.132903260e-01,9.95773e-03,9.99999e-01,9.99766e-01,9.96004e-03,9.99999e-01
5.158567776e-01,1.09083e-02,9.99999e-01,9.99901e-01,1.09094e-02,9.99999e-01
5.184360615e-01,1.19273e-02,9.99999e-01,9.99960e-01,1.19278e-02,9.99999e-01
5.210282418e-01,1.30180e-02,9.99999e-01,9.99984e-01,1.30182e-02,9.99999e-01
5.236333830e-01,1.41830e-02,9.99999e-01,9.99940e-01,1.41838e-02,9.99999e-01
5.262515499e-01,1.54271e-02,9.99999e-01,9.99962e-01,1.54277e-02,9.99999e-01
5.288828077e-01,1.67522e-02,9.99999e-01,9.99965e-01,1.67527e-02,9.99999e-01
5.315272217e-01,1.81615e-02,9.99999e-01,9.99969e-01,1.81620e-02,9.99999e-01
5.341848578e-01,1.96581e-02,9.99999e-01,9.99979e-01,1.96585e-02,9.99999e-01
5.368557821e-01,2.12435e-02,9.99999e-01,9.99930e-01,2.12450e-02,9.99999e-01
5.395400610e-01,2.29186e-02,9.99999e-01,9.99747e-01,2.29244e-02,9.99999e-01
5.422377613e-01,2.46915e-02,9.99999e-01,9.99678e-01,2.46994e-02,9.99999e-01
5.449489501e-01,2.65646e-02,9.99999e-01,9.99698e-01,2.65726e-02,9.99999e-01
5.476736949e-01,2.85392e-02,9.99999e-01,9.99735e-01,2.85467e-02,9.99999e-01
5.504120634e-01,3.06182e-02,9.99999e-01,9.99807e-01,3.06240e-02,9.99999e-01
5.531641237e-01,3.28038e-02,9.99999e-01,9.99903e-01,3.28070e-02,9.99999e-01
5.559299443e-01,3.50962e-02,9.99999e-01,9.99953e-01,3.50978e-02,9.99999e-01
5.587095940e-01,3.74974e-02,9.99999e-01,9.99970e-01,3.74985e-02,9.99999e-01
5.615031420e-01,4.00098e-02,9.99999e-01,9.99966e-01,4.00111e-02,9.99999e-01
5.643106577e-01,4.26358e-02,9.99999e-01,9.99962e-01,4.26374e-02,9.99999e-01
5.671322110e-01,4.53583e-02,9.99999e-01,9.99541e-01,4.53791e-02,9.99999e-01
5.699678720e-01,4.82148e-02,9.99999e-01,9.99525e-01,4.82377e-02,9.99999e-01
5.728177114e-01,5.11889e-02,9.99999e-01,9.99500e-01,5.12145e-02,9.99999e-01
5.756818000e-01,5.42859e-02,9.99999e-01,9.99542e-01,5.43107e-02,9.99999e-01
5.785602090e-01,5.75045e-02,9.99999e-01,9.99601e-01,5.75274e-02,9.99999e-01
5.814530100e-01,6.08410e-02,9.99999e-01,9.99599e-01,6.08654e-02,9.99999e-01
5.843602750e-01,6.42944e-02,9.99999e-01,9.99518e-01,6.43253e-02,9.99999e-01
5.872820764e-01,6.76268e-02,9.99999e-01,9.95861e-01,6.79078e-02,9.99999e-01
5.902184868e-01,7.12573e-02,9.99999e-01,9.95032e-01,7.16130e-02,9.99999e-01
5.931695792e-01,7.51756e-02,9.99999e-01,9.96478e-01,7.54412e-02,9.99999e-01
5.961354271e-01,7.90866e-02,9.99999e-01,9.96148e-01,7.93923e-02,9.99999e-01
5.991161043e-01,8.32320e-02,9.99999e-01,9.97193e-01,8.34662e-02,9.99999e-01
6.021116848e-01,8.75230e-02,9.99999e-01,9.98408e-01,8.76624e-02,9.99999e-01
6.051222432e-01,9.19064e-02,9.99999e-01,9.99194e-01,9.19805e-02,9.99999e-01
6.081478544e-01,9.63861e-02,9.99999e-01,9.99652e-01,9.64196e-02,9.99999e-01
6.111885937e-01,1.00964e-01,9.99999e-01,9.99852e-01,1.00979e-01,9.99999e-01
6.142445367e-01,1.05650e-01,9.99999e-01,9.99933e-01,1.05657e-01,9.99999e-01
6.173157594e-01,1.10450e-01,9.99999e-01,9.99963e-01,1.10454e-01,9.99999e-01
6.204023382e-01,1.15363e-01,9.99999e-01,9.99968e-01,1.15366e-01,9.99999e-01
6.235043498e-01,1.20378e-01,9.99999e-01,9.99861e-01,1.20394e-01,9.99999e-01
6.266218716e-01,1.25445e-01,9.99999e-01,9.99282e-01,1.25535e-01,9.99999e-01
6.297549810e-01,1.30753e-01,9.99999e-01,9.99736e-01,1.30788e-01,9.99999e-01
6.329037559e-01,1.36079e-01,9.99999e-01,9.99481e-01,1.36150e-01,9.99999e-01
6.360682746e-01,1.41557e-01,9.99999e-01,9.99556e-01,1.41619e-01,9.99999e-01
6.392486160e-01,1.47110e-01,9.99999e-01,9.99426e-01,1.47194e-01,9.99999e-01
6.424448591e-01,1.52753e-01,9.99999e-01,9.99225e-01,1.52871e-01,9.99999e-01
6.456570834e-01,1.58080e-01,9.99999e-01,9.96410e-01,1.58649e-01,9.99999e-01
6.488853688e-01,1.64097e-01,9.99999e-01,9.97399e-01,1.64525e-01,9.99999e-01
6.521297956e-01,1.70044e-01,9.99999e-01,9.97349e-01,1.70495e-01,9.99999e-01
6.553904446e-01,1.76090e-01,9.99999e-01,9.97349e-01,1.76558e-01,9.99999e-01
6.586673968e-01,1.82298e-01,9.99999e-01,9.97739e-01,1.82711e-01,9.99999e-01
6.619607338e-01,1.88712e-01,9.99999e-01,9.98740e-01,1.88950e-01,9.99999e-01
6.652705375e-01,1.95124e-01,9.99999e-01,9.99243e-01,1.95272e-01,9.99999e-01
6.685968902e-01,2.01610e-01,9.99999e-01,9.99678e-01,2.01675e-01,9.99999e-01
6.719398746e-01,2.08121e-01,9.99999e-01,9.99837e-01,2.08155e-01,9.99999e-01
6.752995740e-01,2.14690e-01,9.99999e-01,9.99913e-01,2.14709e-01,9.99999e-01
6.786760719e-01,2.21305e-01,9.99999e-01,9.99870e-01,2.21334e-01,9.99999e-01
6.820694522e-01,2.27976e-01,9.99999e-01,9.99778e-01,2.28026e-01,9.99999e-01
6.854797995e-01,2.34716e-01,9.99999e-01,9.99716e-01,2.34783e-01,9.99999e-01
6.889071985e-01,2.41432e-01,9.99999e-01,9.99305e-01,2.41600e-01,9.99999e-01
6.923517345e-01,2.45696e-01,9.99999e-01,9.88816e-01,2.48475e-01,9.99999e-01
6.958134932e-01,2.53945e-01,9.99999e-01,9.94290e-01,2.55403e-01,9.99999e-01
6.992925606e-01,2.60931e-01,9.99999e-01,9.94464e-01,2.62383e-01,9.99999e-01
7.027890234e-01,2.67584e-01,9.99999e-01,9.93222e-01,2.69410e-01,9.99999e-01
7.063029686e-01,2.74903e-01,9.99999e-01,9.94294e-01,2.76480e-01,9.99999e-01
7.098344834e-01,2.82038e-01,9.99999e-01,9.94525e-01,2.83591e-01,9.99999e-01
7.133836558e-01,2.88593e-01,9.99999e-01,9.92618e-01,2.90739e-01,9.99999e-01
7.169505741e-01,2.80769e-01,9.99999e-01,9.42429e-01,2.97920e-01,9.99998e-01
7.205353270e-01,2.96566e-01,9.99999e-01,9.71926e-01,3.05132e-01,9.99998e-01
7.241380036e-01,3.01098e-01,9.99999e-01,9.63913e-01,3.12371e-01,9.99998e-01
7.277586936e-01,3.09217e-01,9.99999e-01,9.67411e-01,3.19633e-01,9.99998e-01
7.313974871e-01,3.15670e-01,9.99999e-01,9.65600e-01,3.26916e-01,9.99999e-01
7.350544745e-01,3.27878e-01,9.99999e-01,9.81035e-01,3.34216e-01,9.99999e-01
7.387297469e-01,3.36757e-01,9.99999e-01,9.86022e-01,3.41530e-01,9.99999e-01
7.424233956e-01,3.46467e-01,9.99999e-01,9.93154e-01,3.48855e-01,9.99999e-01
7.461355126e-01,3.54706e-01,9.99999e-01,9.95840e-01,3.56188e-01,9.99999e-01
7.498661902e-01,3.62823e-01,9.99999e-01,9.98067e-01,3.63525e-01,9.99999e-01
7.536155211e-01,3.70512e-01,9.99999e-01,9.99048e-01,3.70864e-01,9.99999e-01
7.573835987e-01,3.78017e-01,9.99999e-01,9.99510e-01,3.78202e-01,9.99999e-01
7.611705167e-01,3.85419e-01,9.99999e-01,9.99695e-01,3.85536e-01,9.99999e-01
7.649763693e-01,3.92788e-01,9.99999e-01,9.99808e-01,3.92863e-01,9.99999e-01
7.688012511e-01,4.00127e-01,9.99999e-01,9.99866e-01,4.00180e-01,9.99999e-01
7.726452574e-01,4.07441e-01,9.99999e-01,9.99889e-01,4.07486e-01,9.99999e-01
7.765084837e-01,4.14711e-01,9.99999e-01,9.99842e-01,4.14776e-01,9.99999e-01
7.803910261e-01,4.04303e-01,9.58579e-01,9.99320e-01,4.22049e-01,9.99999e-01
7.842929812e-01,3.57721e-01,8.35129e-01,9.97629e-01,4.29302e-01,9.99999e-01
7.882144461e-01,3.57896e-01,8.23659e-01,9.95162e-01,4.36532e-01,9.99999e-01
7.921555184e-01,3.94969e-01,8.92385e-01,9.97358e-01,4.43738e-01,9.99999e-01
7.961162960e-01,4.16086e-01,9.27083e-01,9.95281e-01,4.50918e-01,9.99999e-01
8.000968774e-01,4.37238e-01,9.59707e-01,9.94583e-01,4.58068e-01,9.99999e-01
8.040973618e-01,4.52954e-01,9.79003e-01,9.94574e-01,4.65186e-01,9.99999e-01
8.081178486e-01,4.61947e-01,9.90268e-01,9.87729e-01,4.72272e-01,9.99999e-01
8.121584379e-01,4.53961e-01,9.97015e-01,9.49891e-01,4.79322e-01,9.99998e-01
8.162192301e-01,4.57521e-01,9.99339e-01,9.41358e-01,4.86336e-01,9.99998e-01
8.203003262e-01,4.78434e-01,9.99990e-01,9.69853e-01,4.93310e-01,9.99998e-01
8.244018279e-01,4.79805e-01,9.99999e-01,9.59142e-01,5.00244e-01,9.99998e-01
8.285238370e-01,4.89066e-01,9.99999e-01,9.64370e-01,5.07135e-01,9.99998e-01
8.326664562e-01,4.95548e-01,9.99999e-01,9.64134e-01,5.13982e-01,9.99998e-01
8.368297885e-01,5.07400e-01,9.99999e-01,9.74300e-01,5.20784e-01,9.99999e-01
8.410139374e-01,5.19447e-01,9.99999e-01,9.84662e-01,5.27539e-01,9.99999e-01
8.452190071e-01,5.30218e-01,9.99999e-01,9.92461e-01,5.34245e-01,9.99999e-01
8.494451021e-01,5.38524e-01,9.99999e-01,9.95604e-01,5.40901e-01,9.99999e-01
8.536923276e-01,5.46088e-01,9.99999e-01,9.97407e-01,5.47507e-01,9.99999e-01
8.579607893e-01,5.53173e-01,9.99999e-01,9.98398e-01,5.54060e-01,9.99999e-01
8.622505932e-01,5.59992e-01,9.99999e-01,9.98984e-01,5.60561e-01,9.99999e-01
8.665618462e-01,5.17914e-01,9.13968e-01,9.99369e-01,5.67006e-01,9.99999e-01
8.708946554e-01,3.62387e-01,6.32439e-01,9.99276e-01,5.73397e-01,9.99999e-01
8.752491287e-01,4.00428e-01,6.91359e-01,9.99033e-01,5.79731e-01,9.99999e-01
8.796253743e-01,4.77629e-01,8.16113e-01,9.98657e-01,5.86007e-01,9.99999e-01
8.840235012e-01,5.32085e-01,8.99803e-01,9.98467e-01,5.92226e-01,9.99999e-01
8.884436187e-01,5.70864e-01,9.59394e-01,9.94317e-01,5.98386e-01,9.99999e-01
8.928858368e-01,5.60251e-01,9.83313e-01,9.42382e-01,6.04487e-01,9.99998e-01
8.973502660e-01,5.48038e-01,9.95945e-01,9.01213e-01,6.10527e-01,9.99998e-01
9.018370173e-01,5.84627e-01,9.99553e-01,9.48699e-01,6.16506e-01,9.99998e-01
9.063462024e-01,5.87042e-01,9.88215e-01,9.53981e-01,6.22425e-01,9.99997e-01
9.108779334e-01,5.68874e-01,9.73735e-01,9.29506e-01,6.28281e-01,9.99997e-01
9.154323231e-01,5.80131e-01,9.93840e-01,9.20451e-01,6.34076e-01,9.99997e-01
9.200094847e-01,5.49609e-01,9.12828e-01,9.37305e-01,6.39807e-01,9.99996e-01
9.246095321e-01,5.12513e-01,8.77786e-01,9.02032e-01,6.45476e-01,9.99994e-01
9.292325798e-01,3.02565e-01,9.02085e-01,5.08658e-01,6.51082e-01,9.99989e-01
9.338787427e-01,2.54116e-01,9.05996e-01,4.22141e-01,6.56624e-01,9.99986e-01
9.385481364e-01,4.36897e-01,9.29934e-01,7.06138e-01,6.62102e-01,9.99986e-01
9.432408771e-01,3.94069e-01,9.56593e-01,6.15385e-01,6.67517e-01,9.99985e-01
9.479570815e-01,3.38350e-01,9.77445e-01,5.13704e-01,6.72868e-01,9.99987e-01
9.526968669e-01,4.07338e-01,9.89086e-01,6.06620e-01,6.78154e-01,9.99990e-01
9.574603512e-01,4.27642e-01,9.95323e-01,6.28490e-01,6.83377e-01,9.99992e-01
9.622476530e-01,4.71226e-01,9.98540e-01,6.85322e-01,6.88535e-01,9.99994e-01
9.670588912e-01,5.57293e-01,9.99563e-01,8.03776e-01,6.93629e-01,9.99996e-01
9.718941857e-01,6.09094e-01,9.99969e-01,8.71829e-01,6.98659e-01,9.99997e-01
9.767536566e-01,6.27871e-01,9.99999e-01,8.92336e-01,7.03626e-01,9.99998e-01
9.816374249e-01,6.51289e-01,9.99999e-01,9.19214e-01,7.08528e-01,9.99998e-01
9.865456120e-01,6.76799e-01,9.99999e-01,9.48739e-01,7.13367e-01,9.99999e-01
9.914783401e-01,6.95147e-01,9.99999e-01,9.67979e-01,7.18142e-01,9.99999e-01
9.964357318e-01,7.10161e-01,9.99999e-01,9.82439e-01,7.22854e-01,9.99999e-01
1.001417910e+00,7.19824e-01,9.99999e-01,9.89445e-01,7.27503e-01,9.99999e-01
1.006425000e+00,7.27665e-01,9.99999e-01,9.93957e-01,7.32089e-01,9.99999e-01
1.011457125e+00,7.33854e-01,9.99999e-01,9.96255e-01,7.36612e-01,9.99999e-01
1.016514411e+00,7.39186e-01,9.99999e-01,9.97452e-01,7.41073e-01,9.99999e-01
1.021596983e+00,7.43906e-01,9.99928e-01,9.97968e-01,7.45473e-01,9.99999e-01
1.026704968e+00,7.45155e-01,9.95365e-01,9.98414e-01,7.49810e-01,9.99999e-01
1.031838492e+00,7.12693e-01,9.46154e-01,9.98849e-01,7.54087e-01,9.99999e-01
1.036997685e+00,9.59233e-02,1.26565e-01,9.99315e-01,7.58303e-01,9.99999e-01
1.042182673e+00,6.20317e-02,8.14154e-02,9.99180e-01,7.62458e-01,9.99999e-01
1.047393587e+00,7.97897e-02,1.04188e-01,9.98915e-01,7.66554e-01,9.99999e-01
1.052630555e+00,1.21207e-03,1.57459e-03,9.98510e-01,7.70590e-01,9.99999e-01
1.057893707e+00,3.45660e-03,4.46985e-03,9.97510e-01,7.74567e-01,9.99999e-01
1.063183176e+00,1.40753e-02,1.81316e-02,9.95909e-01,7.78485e-01,9.99999e-01
1.068499092e+00,4.59313e-02,5.90394e-02,9.93168e-01,7.82345e-01,9.99999e-01
1.073841587e+00,1.30830e-01,1.67540e-01,9.91993e-01,7.86147e-01,9.99999e-01
1.079210795e+00,2.52385e-01,3.22473e-01,9.89783e-01,7.89892e-01,9.99999e-01
1.084606849e+00,4.18899e-01,5.35695e-01,9.84545e-01,7.93581e-01,9.99999e-01
1.090029883e+00,5.63730e-01,7.22693e-01,9.77736e-01,7.97213e-01,9.99998e-01
1.095480033e+00,6.42470e-01,8.52278e-01,9.40610e-01,8.00790e-01,9.99998e-01
1.100957433e+00,6.38088e-01,9.25810e-01,8.56081e-01,8.04312e-01,9.99996e-01
1.106462220e+00,5.28619e-01,9.68672e-01,6.74651e-01,8.07779e-01,9.99993e-01
1.111994531e+00,3.53904e-01,9.88270e-01,4.41019e-01,8.11192e-01,9.99987e-01
1.117554504e+00,2.18192e-01,9.97139e-01,2.68476e-01,8.14552e-01,9.99983e-01
1.123142276e+00,3.17163e-01,9.99813e-01,3.87833e-01,8.17859e-01,9.99980e-01
1.128757988e+00,4.42162e-01,9.99999e-01,5.38502e-01,8.21113e-01,9.99978e-01
1.134401778e+00,2.39569e-01,9.99999e-01,2.90634e-01,8.24316e-01,9.99975e-01
1.140073787e+00,5.69479e-01,9.99999e-01,6.88231e-01,8.27468e-01,9.99980e-01
1.145774156e+00,3.85455e-01,9.99999e-01,4.64092e-01,8.30569e-01,9.99983e-01
1.151503026e+00,3.55396e-01,9.99999e-01,4.26334e-01,8.33620e-01,9.99985e-01
1.157260541e+00,4.06522e-01,9.99999e-01,4.85913e-01,8.36622e-01,9.99989e-01
1.163046844e+00,4.92411e-01,9.99999e-01,5.86503e-01,8.39575e-01,9.99992e-01
1.168862078e+00,5.80482e-01,9.99999e-01,6.89017e-01,8.42480e-01,9.99996e-01
1.174706389e+00,6.71639e-01,9.99999e-01,7.94523e-01,8.45337e-01,9.99997e-01
1.180579921e+00,7.37261e-01,9.99999e-01,8.69261e-01,8.48147e-01,9.99998e-01
1.186482820e+00,7.86037e-01,9.99988e-01,9.23769e-01,8.50911e-01,9.99998e-01
1.192415234e+00,8.01745e-01,9.83530e-01,9.54734e-01,8.53629e-01,9.99998e-01
1.198377311e+00,4.60214e-01,5.55273e-01,9.61648e-01,8.56301e-01,9.99998e-01
1.204369197e+00,4.24805e-13,5.05248e-13,9.63714e-01,8.58929e-01,9.99998e-01
1.210391043e+00,7.94364e-49,9.40333e-49,9.65274e-01,8.61513e-01,9.99999e-01
1.216442998e+00,1.94570e-42,2.29410e-42,9.70444e-01,8.64054e-01,9.99999e-01
1.222525213e+00,8.10101e-42,9.46190e-42,9.76894e-01,8.66551e-01,9.99999e-01
1.228637839e+00,2.14815e-32,2.49972e-32,9.83889e-01,8.69006e-01,9.99999e-01
1.234781029e+00,8.80912e-21,1.01617e-20,9.88027e-01,8.71420e-01,9.99999e-01
1.240954934e+00,5.54363e-14,6.37551e-14,9.92407e-01,8.73792e-01,9.99999e-01
1.247159708e+00,1.46234e-07,1.67501e-07,9.94088e-01,8.76123e-01,9.99999e-01
1.253395507e+00,6.15743e-05,7.03702e-05,9.94742e-01,8.78415e-01,9.99999e-01
1.259662485e+00,3.62547e-03,4.13300e-03,9.94994e-01,8.80667e-01,9.99999e-01
1.265960797e+00,3.74997e-02,4.27361e-02,9.92028e-01,8.82880e-01,9.99999e-01
1.272290601e+00,2.25773e-01,2.58008e-01,9.87462e-01,8.85055e-01,9.99999e-01
1.278652054e+00,1.88248e-01,2.16319e-01,9.75234e-01,8.87193e-01,9.99999e-01
1.285045314e+00,2.66224e-03,3.05187e-03,9.55483e-01,8.89293e-01,9.99998e-01
1.291470541e+00,2.10857e-06,2.48637e-06,9.23718e-01,8.91356e-01,9.99998e-01
1.297927893e+00,4.18543e-03,4.95061e-03,8.93301e-01,8.93383e-01,9.99996e-01
1.304417533e+00,6.70212e-02,8.41106e-02,8.75762e-01,8.95375e-01,9.99994e-01
1.310939621e+00,1.10795e-02,1.34840e-02,8.45582e-01,8.97331e-01,9.99991e-01
1.317494319e+00,2.25730e-17,2.76163e-17,8.48366e-01,8.99254e-01,9.99985e-01
1.324081790e+00,6.02364e-09,7.45725e-09,7.84812e-01,9.01142e-01,9.99976e-01
1.330702199e+00,3.59010e-07,6.32622e-07,3.90707e-01,9.02996e-01,9.99960e-01
1.337355710e+00,2.02019e-07,1.10533e-06,8.78211e-02,9.04818e-01,9.99924e-01
1.344042489e+00,3.05910e-08,3.47146e-07,4.17442e-03,9.06608e-01,9.99838e-01
1.350762701e+00,9.79510e-12,3.82153e-07,6.02453e-06,9.08365e-01,9.99742e-01
1.357516515e+00,1.66748e-11,8.77964e-05,3.49636e-08,9.10091e-01,9.99681e-01
1.364304097e+00,8.40865e-08,2.03716e-03,1.88832e-05,9.11786e-01,9.99658e-01
1.371125618e+00,4.67038e-05,4.03593e-02,7.07125e-04,9.13451e-01,9.99655e-01
1.377981246e+00,1.67411e-04,6.95977e-02,1.87014e-03,9.15086e-01,9.99630e-01
1.384871152e+00,9.52750e-06,2.12241e-01,3.69721e-05,9.16691e-01,9.99640e-01
1.391795508e+00,7.13119e-06,2.39009e-01,2.41644e-05,9.18267e-01,9.99695e-01
1.398754485e+00,6.96390e-05,4.12334e-01,1.68093e-04,9.19815e-01,9.99738e-01
1.405748258e+00,7.90717e-05,5.21804e-01,1.46509e-04,9.21335e-01,9.99765e-01
1.412776999e+00,1.00487e-04,6.62887e-01,1.49185e-04,9.22827e-01,9.99811e-01
1.419840884e+00,1.89469e-04,5.88550e-01,2.74361e-04,9.24292e-01,9.99858e-01
1.426940089e+00,5.36514e-04,4.66425e-02,1.70574e-03,9.25731e-01,9.99912e-01
1.434074789e+00,0.00000e+00,0.00000e+00,7.52059e-03,9.27143e-01,9.99945e-01
1.441245163e+00,0.00000e+00,0.00000e+00,2.10047e-02,9.28529e-01,9.99957e-01
1.448451389e+00,0.00000e+00,0.00000e+00,6.61481e-02,9.29890e-01,9.99964e-01
1.455693646e+00,0.00000e+00,0.00000e+00,1.61676e-01,9.31227e-01,9.99970e-01
1.462972114e+00,1.07835e-191,3.07056e-191,2.04024e-01,9.32538e-01,9.99974e-01
1.470286975e+00,1.74479e-80,5.36060e-80,1.57712e-01,9.33825e-01,9.99977e-01
