#,Wave/freq,Total,CO2,H2O,Rayleigh,CIA
4.000000000e-01,5.03987e-07,9.99999e-01,9.99971e-01,5.04001e-07,9.99999e-01
4.020000000e-01,6.71342e-07,9.99999e-01,9.99981e-01,6.71354e-07,9.99999e-01
4.040100000e-01,8.88958e-07,9.99999e-01,9.99992e-01,8.88965e-07,9.99999e-01
4.060300500e-01,1.17060e-06,9.99999e-01,9.99997e-01,1.17060e-06,9.99999e-01
4.080602003e-01,1.53311e-06,9.99999e-01,9.99998e-01,1.53311e-06,9.99999e-01
4.101005013e-01,1.99720e-06,9.99999e-01,9.99999e-01,1.99720e-06,9.99999e-01
4.121510038e-01,2.58823e-06,9.99999e-01,9.99998e-01,2.58823e-06,9.99999e-01
4.142117588e-01,3.33700e-06,9.99999e-01,9.99991e-01,3.33703e-06,9.99999e-01
4.162828176e-01,4.28077e-06,9.99999e-01,9.99964e-01,4.28092e-06,9.99999e-01
4.183642317e-01,5.46473e-06,9.99999e-01,9.99978e-01,5.46484e-06,9.99999e-01
4.204560528e-01,6.94253e-06,9.99999e-01,9.99986e-01,6.94262e-06,9.99999e-01
4.225583331e-01,8.77837e-06,9.99999e-01,9.99994e-01,8.77842e-06,9.99999e-01
4.246711247e-01,1.10483e-05,9.99999e-01,9.99995e-01,1.10483e-05,9.99999e-01
4.267944804e-01,1.38421e-05,9.99999e-01,9.99993e-01,1.38421e-05,9.99999e-01
4.289284528e-01,1.72653e-05,9.99999e-01,9.99995e-01,1.72654e-05,9.99999e-01
4.310730950e-01,2.14414e-05,9.99999e-01,9.99997e-01,2.14415e-05,9.99999e-01
4.332284605e-01,2.65139e-05,9.99999e-01,9.99999e-01,2.65139e-05,9.99999e-01
4.353946028e-01,3.26491e-05,9.99999e-01,9.99999e-01,3.26491e-05,9.99999e-01
4.375715758e-01,4.00389e-05,9.99999e-01,9.99996e-01,4.00390e-05,9.99999e-01
4.397594337e-01,4.89026e-05,9.99999e-01,9.99968e-01,4.89041e-05,9.99999e-01
4.419582309e-01,5.94871e-05,9.99999e-01,9.99842e-01,5.94965e-05,9.99999e-01
4.441680220e-01,7.20946e-05,9.99999e-01,9.99877e-01,7.21034e-05,9.99999e-01
4.463888621e-01,8.70394e-05,9.99999e-01,9.99872e-01,8.70505e-05,9.99999e-01
4.486208064e-01,1.04698e-04,9.99999e-01,9.99920e-01,1.04706e-04,9.99999e-01
4.508639105e-01,1.25479e-04,9.99999e-01,9.99962e-01,1.25483e-04,9.99999e-01
4.531182300e-01,1.49845e-04,9.99999e-01,9.99984e-01,1.49847e-04,9.99999e-01
4.553838212e-01,1.78314e-04,9.99999e-01,9.99989e-01,1.78316e-04,9.99999e-01
4.576607403e-01,2.11464e-04,9.99999e-01,9.99994e-01,2.11465e-04,9.99999e-01
4.599490440e-01,2.49932e-04,9.99999e-01,9.99996e-01,2.49933e-04,9.99999e-01
4.622487892e-01,2.94425e-04,9.99999e-01,9.99998e-01,2.94425e-04,9.99999e-01
4.645600332e-01,3.45717e-04,9.99999e-01,9.99997e-01,3.45718e-04,9.99999e-01
4.668828333e-01,4.04645e-04,9.99999e-01,9.99962e-01,4.04660e-04,9.99999e-01
4.692172475e-01,4.72144e-04,9.99999e-01,9.99919e-01,4.72181e-04,9.99999e-01
4.715633337e-01,5.49263e-04,9.99999e-01,9.99947e-01,5.49292e-04,9.99999e-01
4.739211504e-01,6.37058e-04,9.99999e-01,9.99949e-01,6.37089e-04,9.99999e-01
4.762907561e-01,7.36740e-04,9.99999e-01,9.99973e-01,7.36759e-04,9.99999e-01
4.786722099e-01,8.49569e-04,9.99999e-01,9.99988e-01,8.49578e-04,9.99999e-01
4.810655710e-01,9.76917e-04,9.99999e-01,9.99996e-01,9.76920e-04,9.99999e-01
4.834708988e-01,1.12022e-03,9.99999e-01,9.99968e-01,1.12026e-03,9.99999e-01
4.858882533e-01,1.28108e-03,9.99999e-01,9.99943e-01,1.28115e-03,9.99999e-01
4.883176946e-01,1.46121e-03,9.99999e-01,9.99952e-01,1.46128e-03,9.99999e-01
4.907592831e-01,1.66233e-03,9.99999e-01,9.99956e-01,1.66240e-03,9.99999e-01
4.932130795e-01,1.88634e-03,9.99999e-01,9.99969e-01,1.88640e-03,9.99999e-01
4.956791449e-01,2.13520e-03,9.99999e-01,9.99983e-01,2.13524e-03,9.99999e-01
4.981575406e-01,2.41080e-03,9.99999e-01,9.99919e-01,2.41099e-03,9.99999e-01
5.006483283e-01,2.71527e-03,9.99999e-01,9.99791e-01,2.71584e-03,9.99999e-01
5.031515699e-01,3.04882e-03,9.99999e-01,9.98944e-01,3.05205e-03,9.99999e-01
5.056673278e-01,3.42007e-03,9.99999e-01,9.99442e-01,3.42197e-03,9.99999e-01
5.081956644e-01,3.82539e-03,9.99999e-01,9.99297e-01,3.82808e-03,9.99999e-01
5.107366428e-01,4.27088e-03,9.99999e-01,9.99525e-01,4.27290e-03,9.99999e-01
5.132903260e-01,4.75778e-03,9.99999e-01,9.99728e-01,4.75907e-03,9.99999e-01
5.158567776e-01,5.28868e-03,9.99999e-01,9.99885e-01,5.28928e-03,9.99999e-01
5.184360615e-01,5.86604e-03,9.99999e-01,9.99953e-01,5.86631e-03,9.99999e-01
5.210282418e-01,6.49289e-03,9.99999e-01,9.99982e-01,6.49300e-03,9.99999e-01
5.236333830e-01,7.17175e-03,9.99999e-01,9.99930e-01,7.17224e-03,9.99999e-01
5.262515499e-01,7.90665e-03,9.99999e-01,9.99956e-01,7.90699e-03,9.99999e-01
5.288828077e-01,8.69989e-03,9.99999e-01,9.99960e-01,8.70023e-03,9.99999e-01
5.315272217e-01,9.55466e-03,9.99999e-01,9.99964e-01,9.55499e-03,9.99999e-01
5.341848578e-01,1.04741e-02,9.99999e-01,9.99976e-01,1.04743e-02,9.99999e-01
5.368557821e-01,1.14604e-02,9.99999e-01,9.99919e-01,1.14613e-02,9.99999e-01
5.395400610e-01,1.25153e-02,9.99999e-01,9.99710e-01,1.25189e-02,9.99999e-01
5.422377613e-01,1.36453e-02,9.99999e-01,9.99626e-01,1.36504e-02,9.99999e-01
5.449489501e-01,1.48535e-02,9.99999e-01,9.99651e-01,1.48587e-02,9.99999e-01
5.476736949e-01,1.61419e-02,9.99999e-01,9.99692e-01,1.61469e-02,9.99999e-01
5.504120634e-01,1.75141e-02,9.99999e-01,9.99776e-01,1.75180e-02,9.99999e-01
5.531641237e-01,1.89728e-02,9.99999e-01,9.99887e-01,1.89749e-02,9.99999e-01
5.559299443e-01,2.05195e-02,9.99999e-01,9.99945e-01,2.05206e-02,9.99999e-01
5.587095940e-01,2.21571e-02,9.99999e-01,9.99965e-01,2.21579e-02,9.99999e-01
5.615031420e-01,2.38886e-02,9.99999e-01,9.99961e-01,2.38895e-02,9.99999e-01
5.643106577e-01,2.57172e-02,9.99999e-01,9.99956e-01,2.57183e-02,9.99999e-01
5.671322110e-01,2.76323e-02,9.99999e-01,9.99476e-01,2.76467e-02,9.99999e-01
5.699678720e-01,2.96609e-02,9.99999e-01,9.99445e-01,2.96774e-02,9.99999e-01
5.728177114e-01,3.17942e-02,9.99999e-01,9.99421e-01,3.18126e-02,9.99999e-01
5.756818000e-01,3.40366e-02,9.99999e-01,9.99469e-01,3.40546e-02,9.99999e-01
5.785602090e-01,3.63889e-02,9.99999e-01,9.99537e-01,3.64057e-02,9.99999e-01
5.814530100e-01,3.88497e-02,9.99999e-01,9.99535e-01,3.88678e-02,9.99999e-01
5.843602750e-01,4.14198e-02,9.99999e-01,9.99445e-01,4.14428e-02,9.99999e-01
5.872820764e-01,4.39219e-02,9.99999e-01,9.95229e-01,4.41324e-02,9.99999e-01
5.902184868e-01,4.66674e-02,9.99999e-01,9.94229e-01,4.69383e-02,9.99999e-01
5.931695792e-01,4.96583e-02,9.99999e-01,9.95919e-01,4.98618e-02,9.99999e-01
5.961354271e-01,5.26677e-02,9.99999e-01,9.95529e-01,5.29042e-02,9.99999e-01
5.991161043e-01,5.58837e-02,9.99999e-01,9.96738e-01,5.60666e-02,9.99999e-01
6.021116848e-01,5.92401e-02,9.99999e-01,9.98148e-01,5.93499e-02,9.99999e-01
6.051222432e-01,6.26962e-02,9.99999e-01,9.99062e-01,6.27550e-02,9.99999e-01
6.081478544e-01,6.62555e-02,9.99999e-01,9.99595e-01,6.62823e-02,9.99999e-01
6.111885937e-01,6.99204e-02,9.99999e-01,9.99828e-01,6.99323e-02,9.99999e-01
6.142445367e-01,7.36996e-02,9.99999e-01,9.99923e-01,7.37053e-02,9.99999e-01
6.173157594e-01,7.75979e-02,9.99999e-01,9.99957e-01,7.76011e-02,9.99999e-01
6.204023382e-01,8.16170e-02,9.99999e-01,9.99963e-01,8.16199e-02,9.99999e-01
6.235043498e-01,8.57477e-02,9.99999e-01,9.99842e-01,8.57612e-02,9.99999e-01
6.266218716e-01,8.99497e-02,9.99999e-01,9.99168e-01,9.00245e-02,9.99999e-01
6.297549810e-01,9.43805e-02,9.99999e-01,9.99694e-01,9.44093e-02,9.99999e-01
6.329037559e-01,9.88551e-02,9.99999e-01,9.99397e-01,9.89147e-02,9.99999e-01
6.360682746e-01,1.03487e-01,9.99999e-01,9.99486e-01,1.03540e-01,9.99999e-01
6.392486160e-01,1.08211e-01,9.99999e-01,9.99334e-01,1.08283e-01,9.99999e-01
6.424448591e-01,1.13043e-01,9.99999e-01,9.99108e-01,1.13144e-01,9.99999e-01
6.456570834e-01,1.17632e-01,9.99999e-01,9.95865e-01,1.18120e-01,9.99999e-01
6.488853688e-01,1.22838e-01,9.99999e-01,9.96977e-01,1.23211e-01,9.99999e-01
6.521297956e-01,1.28018e-01,9.99999e-01,9.96918e-01,1.28413e-01,9.99999e-01
6.553904446e-01,1.33316e-01,9.99999e-01,9.96930e-01,1.33726e-01,9.99999e-01
6.586673968e-01,1.38782e-01,9.99999e-01,9.97372e-01,1.39148e-01,9.99999e-01
6.619607338e-01,1.44464e-01,9.99999e-01,9.98535e-01,1.44675e-01,9.99999e-01
6.652705375e-01,1.50175e-01,9.99999e-01,9.99120e-01,1.50307e-01,9.99999e-01
6.685968902e-01,1.55976e-01,9.99999e-01,9.99591e-01,1.56040e-01,9.99999e-01
6.719398746e-01,1.61841e-01,9.99999e-01,9.99810e-01,1.61872e-01,9.99999e-01
6.752995740e-01,1.67783e-01,9.99999e-01,9.99896e-01,1.67800e-01,9.99999e-01
6.786760719e-01,1.73796e-01,9.99999e-01,9.99851e-01,1.73822e-01,9.99999e-01
6.820694522e-01,1.79889e-01,9.99999e-01,9.99745e-01,1.79934e-01,9.99999e-01
6.854797995e-01,1.86074e-01,9.99999e-01,9.99672e-01,1.86135e-01,9.99999e-01
6.889071985e-01,1.92267e-01,9.99999e-01,9.99205e-01,1.92420e-01,9.99999e-01
6.923517345e-01,1.96225e-01,9.99999e-01,9.87113e-01,1.98787e-01,9.99999e-01
6.958134932e-01,2.03859e-01,9.99999e-01,9.93304e-01,2.05233e-01,9.99999e-01
6.992925606e-01,2.10402e-01,9.99999e-01,9.93615e-01,2.11754e-01,9.99999e-01
7.027890234e-01,2.16629e-01,9.99999e-01,9.92131e-01,2.18347e-01,9.99999e-01
7.063029686e-01,2.23520e-01,9.99999e-01,9.93380e-01,2.25010e-01,9.99999e-01
7.098344834e-01,2.30266e-01,9.99999e-01,9.93647e-01,2.31738e-01,9.99999e-01
7.133836558e-01,2.36507e-01,9.99999e-01,9.91524e-01,2.38528e-01,9.99999e-01
7.169505741e-01,2.29157e-01,9.99999e-01,9.33895e-01,2.45378e-01,9.99998e-01
7.205353270e-01,2.44003e-01,9.99999e-01,9.67181e-01,2.52283e-01,9.99998e-01
7.241380036e-01,2.48452e-01,9.99999e-01,9.58387e-01,2.59240e-01,9.99998e-01
7.277586936e-01,2.56229e-01,9.99999e-01,9.62379e-01,2.66246e-01,9.99998e-01
7.313974871e-01,2.62384e-01,9.99999e-01,9.60070e-01,2.73297e-01,9.99998e-01
7.350544745e-01,2.74218e-01,9.99999e-01,9.77986e-01,2.80390e-01,9.99999e-01
7.387297469e-01,2.82851e-01,9.99999e-01,9.83757e-01,2.87521e-01,9.99999e-01
7.424233956e-01,2.92338e-01,9.99999e-01,9.92024e-01,2.94688e-01,9.99999e-01
7.461355126e-01,3.00426e-01,9.99999e-01,9.95159e-01,3.01887e-01,9.99999e-01
7.498661902e-01,3.08417e-01,9.99999e-01,9.97744e-01,3.09114e-01,9.99999e-01
7.536155211e-01,3.16016e-01,9.99999e-01,9.98892e-01,3.16366e-01,9.99999e-01
7.573835987e-01,3.23456e-01,9.99999e-01,9.99429e-01,3.23640e-01,9.99999e-01
7.611705167e-01,3.30816e-01,9.99999e-01,9.99645e-01,3.30933e-01,9.99999e-01
7.649763693e-01,3.38166e-01,9.99999e-01,9.99777e-01,3.38241e-01,9.99999e-01
7.688012511e-01,3.45508e-01,9.99999e-01,9.99844e-01,3.45561e-01,9.99999e-01
7.726452574e-01,3.52846e-01,9.99999e-01,9.99872e-01,3.52891e-01,9.99999e-01
7.765084837e-01,3.60161e-01,9.99999e-01,9.99818e-01,3.60227e-01,9.99999e-01
7.803910261e-01,3.50553e-01,9.54430e-01,9.99217e-01,3.67565e-01,9.99999e-01
7.842929812e-01,3.03485e-01,8.11572e-01,9.97270e-01,3.74904e-01,9.99999e-01
7.882144461e-01,3.04138e-01,7.99921e-01,9.94390e-01,3.82240e-01,9.99999e-01
7.921555184e-01,3.40491e-01,8.76627e-01,9.96923e-01,3.89571e-01,9.99999e-01
7.961162960e-01,3.61426e-01,9.15558e-01,9.94557e-01,3.96893e-01,9.99999e-01
8.000968774e-01,3.82909e-01,9.53278e-01,9.93720e-01,4.04204e-01,9.99999e-01
8.040973618e-01,3.98918e-01,9.75532e-01,9.93717e-01,4.11501e-01,9.99999e-01
8.081178486e-01,4.08206e-01,9.88683e-01,9.85874e-01,4.18782e-01,9.99999e-01
8.121584379e-01,4.00132e-01,9.96498e-01,9.42435e-01,4.26044e-01,9.99998e-01
8.162192301e-01,4.03579e-01,9.99225e-01,9.32143e-01,4.33285e-01,9.99998e-01
8.203003262e-01,4.25342e-01,9.99988e-01,9.65594e-01,4.40503e-01,9.99998e-01
8.244018279e-01,4.26410e-01,9.99999e-01,9.52459e-01,4.47694e-01,9.99998e-01
8.285238370e-01,4.36159e-01,9.99999e-01,9.58891e-01,4.54857e-01,9.99998e-01
8.326664562e-01,4.42810e-01,9.99999e-01,9.58483e-01,4.61991e-01,9.99998e-01
8.368297885e-01,4.55098e-01,9.99999e-01,9.70168e-01,4.69091e-01,9.99999e-01
8.410139374e-01,4.67669e-01,9.99999e-01,9.82172e-01,4.76158e-01,9.99999e-01
8.452190071e-01,4.78947e-01,9.99999e-01,9.91222e-01,4.83188e-01,9.99999e-01
8.494451021e-01,4.87679e-01,9.99999e-01,9.94896e-01,4.90180e-01,9.99999e-01
8.536923276e-01,4.95632e-01,9.99999e-01,9.96981e-01,4.97132e-01,9.99999e-01
8.579607893e-01,5.03105e-01,9.99999e-01,9.98139e-01,5.04043e-01,9.99999e-01
8.622505932e-01,5.10306e-01,9.99999e-01,9.98817e-01,5.10910e-01,9.99999e-01
8.665618462e-01,4.70472e-01,9.09350e-01,9.99268e-01,5.17732e-01,9.99999e-01
8.708946554e-01,3.09604e-01,5.90746e-01,9.99161e-01,5.24508e-01,9.99999e-01
8.752491287e-01,3.46205e-01,6.52398e-01,9.98879e-01,5.31236e-01,9.99999e-01
8.796253743e-01,4.24153e-01,7.89688e-01,9.98447e-01,5.37916e-01,9.99999e-01
8.840235012e-01,4.80730e-01,8.84346e-01,9.98226e-01,5.44544e-01,9.99999e-01
8.884436187e-01,5.21698e-01,9.52696e-01,9.93528e-01,5.51121e-01,9.99999e-01
8.928858368e-01,5.10825e-01,9.80548e-01,9.33990e-01,5.57645e-01,9.99998e-01
8.973502660e-01,4.97726e-01,9.95248e-01,8.86406e-01,5.64116e-01,9.99998e-01
9.018370173e-01,5.36247e-01,9.99475e-01,9.40382e-01,5.70531e-01,9.99997e-01
9.063462024e-01,5.39407e-01,9.86577e-01,9.47195e-01,5.76891e-01,9.99997e-01
9.108779334e-01,5.19837e-01,9.69486e-01,9.18939e-01,5.83193e-01,9.99997e-01
9.154323231e-01,5.31697e-01,9.92766e-01,9.08421e-01,5.89438e-01,9.99997e-01
9.200094847e-01,5.00888e-01,9.01831e-01,9.27596e-01,5.95625e-01,9.99996e-01
9.246095321e-01,4.61614e-01,8.59388e-01,8.89432e-01,6.01752e-01,9.99994e-01
9.292325798e-01,2.53267e-01,8.88215e-01,4.61687e-01,6.07819e-01,9.99988e-01
9.338787427e-01,2.05920e-01,8.91668e-01,3.70533e-01,6.13826e-01,9.99985e-01
9.385481364e-01,3.83633e-01,9.19059e-01,6.69203e-01,6.19772e-01,9.99984e-01
9.432408771e-01,3.42901e-01,9.49617e-01,5.75009e-01,6.25657e-01,9.99982e-01
9.479570815e-01,2.88608e-01,9.73813e-01,4.68458e-01,6.31479e-01,9.99985e-01
9.526968669e-01,3.54647e-01,9.87296e-01,5.62894e-01,6.37239e-01,9.99988e-01
9.574603512e-01,3.74312e-01,9.94548e-01,5.85101e-01,6.42936e-01,9.99991e-01
9.622476530e-01,4.17917e-01,9.98297e-01,6.45381e-01,6.48570e-01,9.99994e-01
9.670588912e-01,5.07670e-01,9.99489e-01,7.76457e-01,6.54141e-01,9.99996e-01
9.718941857e-01,5.62640e-01,9.99963e-01,8.52969e-01,6.59648e-01,9.99997e-01
9.767536566e-01,5.82811e-01,9.99999e-01,8.76288e-01,6.65091e-01,9.99998e-01
9.816374249e-01,6.07939e-01,9.99999e-01,9.06734e-01,6.70471e-01,9.99998e-01
9.865456120e-01,6.35673e-01,9.99999e-01,9.40642e-01,6.75786e-01,9.99999e-01
9.914783401e-01,6.55751e-01,9.99999e-01,9.62870e-01,6.81037e-01,9.99999e-01
9.964357318e-01,6.72232e-01,9.99999e-01,9.79609e-01,6.86224e-01,9.99999e-01
1.001417910e+00,6.82865e-01,9.99999e-01,9.87730e-01,6.91347e-01,9.99999e-01
1.006425000e+00,6.91522e-01,9.99999e-01,9.92986e-01,6.96406e-01,9.99999e-01
1.011457125e+00,6.98346e-01,9.99999e-01,9.95643e-01,7.01401e-01,9.99999e-01
1.016514411e+00,7.04242e-01,9.99999e-01,9.97039e-01,7.06332e-01,9.99999e-01
1.021596983e+00,7.09470e-01,9.99926e-01,9.97640e-01,7.11200e-01,9.99999e-01
1.026704968e+00,7.10923e-01,9.94731e-01,9.98159e-01,7.16003e-01,9.99999e-01
1.031838492e+00,6.79265e-01,9.43665e-01,9.98662e-01,7.20744e-01,9.99999e-01
1.036997685e+00,8.10867e-02,1.11848e-01,9.99204e-01,7.25421e-01,9.99999e-01
1.042182673e+00,4.12392e-02,5.65352e-02,9.99051e-01,7.30035e-01,9.99999e-01
1.047393587e+00,5.90700e-02,8.05005e-02,9.98742e-01,7.34586e-01,9.99999e-01
1.052630555e+00,5.15286e-04,6.98048e-04,9.98274e-01,7.39076e-01,9.99999e-01
1.057893707e+00,1.55238e-03,2.09169e-03,9.97120e-01,7.43503e-01,9.99999e-01
1.063183176e+00,7.61972e-03,1.02211e-02,9.95266e-01,7.47868e-01,9.99999e-01
1.068499092e+00,2.87081e-02,3.84095e-02,9.92086e-01,7.52172e-01,9.99999e-01
1.073841587e+00,9.51024e-02,1.26688e-01,9.90742e-01,7.56415e-01,9.99999e-01
1.079210795e+00,2.03393e-01,2.70236e-01,9.88155e-01,7.60598e-01,9.99999e-01
1.084606849e+00,3.64203e-01,4.84384e-01,9.82119e-01,7.64720e-01,9.99998e-01
1.090029883e+00,5.14224e-01,6.85788e-01,9.74392e-01,7.68783e-01,9.99998e-01
1.095480033e+00,5.98514e-01,8.30317e-01,9.31780e-01,7.72786e-01,9.99997e-01
1.100957433e+00,5.94347e-01,9.14220e-01,8.35907e-01,7.76731e-01,9.99996e-01
1.106462220e+00,4.79667e-01,9.63592e-01,6.36543e-01,7.80617e-01,9.99992e-01
1.111994531e+00,3.02218e-01,9.86345e-01,3.90091e-01,7.84445e-01,9.99986e-01
1.117554504e+00,1.73853e-01,9.96653e-01,2.21132e-01,7.88216e-01,9.99980e-01
1.123142276e+00,2.68164e-01,9.99780e-01,3.38655e-01,7.91930e-01,9.99977e-01
1.128757988e+00,3.91046e-01,9.99999e-01,4.91530e-01,7.95587e-01,9.99975e-01
1.134401778e+00,2.01658e-01,9.99999e-01,2.52335e-01,7.99189e-01,9.99972e-01
1.140073787e+00,5.22088e-01,9.99999e-01,6.50400e-01,8.02735e-01,9.99977e-01
1.145774156e+00,3.33923e-01,9.99999e-01,4.14187e-01,8.06227e-01,9.99980e-01
1.151503026e+00,3.05000e-01,9.99999e-01,3.76705e-01,8.09664e-01,9.99983e-01
1.157260541e+00,3.53534e-01,9.99999e-01,4.34831e-01,8.13048e-01,9.99987e-01
1.163046844e+00,4.40251e-01,9.99999e-01,5.39277e-01,8.16379e-01,9.99991e-01
1.168862078e+00,5.31940e-01,9.99999e-01,6.48981e-01,8.19657e-01,9.99995e-01
1.174706389e+00,6.30079e-01,9.99999e-01,7.65698e-01,8.22883e-01,9.99997e-01
1.180579921e+00,7.01977e-01,9.99999e-01,8.49793e-01,8.26057e-01,9.99998e-01
1.186482820e+00,7.56212e-01,9.99989e-01,9.12007e-01,8.29181e-01,9.99998e-01
1.192415234e+00,7.74255e-01,9.81422e-01,9.47642e-01,8.32255e-01,9.99998e-01
1.198377311e+00,4.43820e-01,5.51836e-01,9.55680e-01,8.35279e-01,9.99998e-01
1.204369197e+00,7.79282e-15,9.52963e-15,9.58041e-01,8.38254e-01,9.99998e-01
1.210391043e+00,2.78636e-56,3.38873e-56,9.59826e-01,8.41180e-01,9.99998e-01
1.216442998e+00,7.18917e-49,8.70316e-49,9.65733e-01,8.44059e-01,9.99999e-01
1.222525213e+00,3.76066e-48,4.50306e-48,9.73211e-01,8.46890e-01,9.99999e-01
1.228637839e+00,2.74121e-37,3.26807e-37,9.81321e-01,8.49674e-01,9.99999e-01
1.234781029e+00,9.52108e-24,1.12373e-23,9.86100e-01,8.52413e-01,9.99999e-01
1.240954934e+00,5.87732e-16,6.91207e-16,9.91188e-01,8.55106e-01,9.99999e-01
1.247159708e+00,2.01391e-08,2.35746e-08,9.93133e-01,8.57754e-01,9.99999e-01
1.253395507e+00,1.46462e-05,1.70994e-05,9.93900e-01,8.60357e-01,9.99999e-01
1.259662485e+00,1.57631e-03,1.83495e-03,9.94203e-01,8.62917e-01,9.99999e-01
1.265960797e+00,2.31667e-02,2.69544e-02,9.90754e-01,8.65434e-01,9.99999e-01
1.272290601e+00,1.78690e-01,2.08568e-01,9.85505e-01,8.67908e-01,9.99999e-01
1.278652054e+00,1.50604e-01,1.76865e-01,9.71388e-01,8.70340e-01,9.99998e-01
1.285045314e+00,1.61009e-03,1.88613e-03,9.48703e-01,8.72731e-01,9.99998e-01
1.291470541e+00,3.03339e-07,3.66685e-07,9.12333e-01,8.75080e-01,9.99997e-01
1.297927893e+00,9.08856e-04,1.09594e-03,8.87308e-01,8.77390e-01,9.99996e-01
1.304417533e+00,4.39998e-02,5.71171e-02,8.57615e-01,8.79660e-01,9.99993e-01
1.310939621e+00,1.05790e-02,1.32946e-02,8.38542e-01,8.81890e-01,9.99989e-01
1.317494319e+00,9.07864e-20,1.14285e-19,8.26480e-01,8.84082e-01,9.99982e-01
1.324081790e+00,1.98673e-13,2.55796e-13,7.52468e-01,8.86237e-01,9.99972e-01
1.330702199e+00,3.87977e-08,7.16584e-08,3.52835e-01,8.88353e-01,9.99954e-01
1.337355710e+00,2.26620e-08,1.60037e-07,6.29807e-02,8.90433e-01,9.99912e-01
1.344042489e+00,3.35436e-09,5.48602e-08,2.59682e-03,8.92476e-01,9.99813e-01
1.350762701e+00,2.44309e-13,4.11271e-08,1.23540e-06,8.94484e-01,9.99701e-01
1.357516515e+00,4.70106e-13,2.32700e-05,2.94551e-09,8.96456e-01,9.99630e-01
1.364304097e+00,8.28123e-09,7.79949e-04,4.26927e-06,8.98394e-01,9.99604e-01
1.371125618e+00,1.21079e-05,2.47494e-02,2.76939e-04,9.00297e-01,9.99600e-01
1.377981246e+00,5.02124e-05,4.55833e-02,8.08147e-04,9.02167e-01,9.99571e-01
1.384871152e+00,2.46235e-06,1.65795e-01,1.18356e-05,9.04003e-01,9.99583e-01
1.391795508e+00,1.31024e-06,1.90063e-01,5.31778e-06,9.05807e-01,9.99646e-01
1.398754485e+00,1.86019e-05,3.57284e-01,5.14177e-05,9.07579e-01,9.99696e-01
1.405748258e+00,2.34735e-05,4.69678e-01,4.79112e-05,9.09319e-01,9.99727e-01
1.412776999e+00,2.95095e-05,6.19867e-01,4.63116e-05,9.11028e-01,9.99781e-01
1.419840884e+00,5.94646e-05,5.53928e-01,9.11991e-05,9.12706e-01,9.99836e-01
1.426940089e+00,2.49752e-04,3.94735e-02,7.55224e-04,9.14355e-01,9.99898e-01
1.434074789e+00,0.00000e+00,0.00000e+00,3.91304e-03,9.15973e-01,9.99936e-01
1.441245163e+00,0.00000e+00,0.00000e+00,1.21519e-02,9.17562e-01,9.99950e-01
1.448451389e+00,0.00000e+00,0.00000e+00,4.55005e-02,9.19123e-01,9.99958e-01
1.455693646e+00,0.00000e+00,0.00000e+00,1.23637e-01,9.20655e-01,9.99965e-01
1.462972114e+00,5.13197e-222,1.72777e-221,1.61190e-01,9.22160e-01,9.99970e-01
1.470286975e+00,5.24030e-93,1.92688e-92,1.20025e-01,9.23637e-01,9.99973e-01
