#,Wave/freq,Total,CO2,H2O,Rayleigh,CIA
4.000000000e-01,2.97384e-09,9.99999e-01,9.99961e-01,2.97395e-09,9.99999e-01
4.020000000e-01,4.38454e-09,9.99999e-01,9.99975e-01,4.38464e-09,9.99999e-01
4.040100000e-01,6.41242e-09,9.99999e-01,9.99989e-01,6.41249e-09,9.99999e-01
4.060300500e-01,9.30801e-09,9.99999e-01,9.99997e-01,9.30804e-09,9.99999e-01
4.080602003e-01,1.34120e-08,9.99999e-01,9.99998e-01,1.34120e-08,9.99999e-01
4.101005013e-01,1.91864e-08,9.99999e-01,9.99999e-01,1.91864e-08,9.99999e-01
4.121510038e-01,2.72536e-08,9.99999e-01,9.99998e-01,2.72536e-08,9.99999e-01
4.142117588e-01,3.84449e-08,9.99999e-01,9.99989e-01,3.84453e-08,9.99999e-01
4.162828176e-01,5.38630e-08,9.99999e-01,9.99951e-01,5.38656e-08,9.99999e-01
4.183642317e-01,7.49676e-08,9.99999e-01,9.99971e-01,7.49697e-08,9.99999e-01
4.204560528e-01,1.03661e-07,9.99999e-01,9.99982e-01,1.03663e-07,9.99999e-01
4.225583331e-01,1.42423e-07,9.99999e-01,9.99992e-01,1.42424e-07,9.99999e-01
4.246711247e-01,1.94453e-07,9.99999e-01,9.99994e-01,1.94454e-07,9.99999e-01
4.267944804e-01,2.63862e-07,9.99999e-01,9.99991e-01,2.63864e-07,9.99999e-01
4.289284528e-01,3.55894e-07,9.99999e-01,9.99993e-01,3.55896e-07,9.99999e-01
4.310730950e-01,4.77199e-07,9.99999e-01,9.99996e-01,4.77200e-07,9.99999e-01
4.332284605e-01,6.36153e-07,9.99999e-01,9.99998e-01,6.36154e-07,9.99999e-01
4.353946028e-01,8.43251e-07,9.99999e-01,9.99999e-01,8.43252e-07,9.99999e-01
4.375715758e-01,1.11156e-06,9.99999e-01,9.99994e-01,1.11156e-06,9.99999e-01
4.397594337e-01,1.45722e-06,9.99999e-01,9.99958e-01,1.45728e-06,9.99999e-01
4.419582309e-01,1.89992e-06,9.99999e-01,9.99790e-01,1.90032e-06,9.99999e-01
4.441680220e-01,2.46469e-06,9.99999e-01,9.99832e-01,2.46510e-06,9.99999e-01
4.463888621e-01,3.18078e-06,9.99999e-01,9.99827e-01,3.18133e-06,9.99999e-01
4.486208064e-01,4.08460e-06,9.99999e-01,9.99891e-01,4.08504e-06,9.99999e-01
4.508639105e-01,5.21935e-06,9.99999e-01,9.99949e-01,5.21961e-06,9.99999e-01
4.531182300e-01,6.63696e-06,9.99999e-01,9.99979e-01,6.63710e-06,9.99999e-01
4.553838212e-01,8.39945e-06,9.99999e-01,9.99986e-01,8.39957e-06,9.99999e-01
4.576607403e-01,1.05807e-05,9.99999e-01,9.99993e-01,1.05807e-05,9.99999e-01
4.599490440e-01,1.32676e-05,9.99999e-01,9.99995e-01,1.32676e-05,9.99999e-01
4.622487892e-01,1.65627e-05,9.99999e-01,9.99998e-01,1.65627e-05,9.99999e-01
4.645600332e-01,2.05856e-05,9.99999e-01,9.99996e-01,2.05856e-05,9.99999e-01
4.668828333e-01,2.54748e-05,9.99999e-01,9.99949e-01,2.54761e-05,9.99999e-01
4.692172475e-01,3.13925e-05,9.99999e-01,9.99891e-01,3.13959e-05,9.99999e-01
4.715633337e-01,3.85293e-05,9.99999e-01,9.99928e-01,3.85320e-05,9.99999e-01
4.739211504e-01,4.70959e-05,9.99999e-01,9.99931e-01,4.70991e-05,9.99999e-01
4.762907561e-01,5.73411e-05,9.99999e-01,9.99964e-01,5.73431e-05,9.99999e-01
4.786722099e-01,6.95433e-05,9.99999e-01,9.99985e-01,6.95443e-05,9.99999e-01
4.810655710e-01,8.40205e-05,9.99999e-01,9.99995e-01,8.40209e-05,9.99999e-01
4.834708988e-01,1.01128e-04,9.99999e-01,9.99959e-01,1.01132e-04,9.99999e-01
4.858882533e-01,1.21275e-04,9.99999e-01,9.99922e-01,1.21284e-04,9.99999e-01
4.883176946e-01,1.44921e-04,9.99999e-01,9.99935e-01,1.44930e-04,9.99999e-01
4.907592831e-01,1.72568e-04,9.99999e-01,9.99941e-01,1.72578e-04,9.99999e-01
4.932130795e-01,2.04784e-04,9.99999e-01,9.99958e-01,2.04792e-04,9.99999e-01
4.956791449e-01,2.42195e-04,9.99999e-01,9.99977e-01,2.42200e-04,9.99999e-01
4.981575406e-01,2.85463e-04,9.99999e-01,9.99891e-01,2.85493e-04,9.99999e-01
5.006483283e-01,3.35340e-04,9.99999e-01,9.99720e-01,3.35434e-04,9.99999e-01
5.031515699e-01,3.92297e-04,9.99999e-01,9.98574e-01,3.92857e-04,9.99999e-01
5.056673278e-01,4.58331e-04,9.99999e-01,9.99244e-01,4.58677e-04,9.99999e-01
5.081956644e-01,5.33380e-04,9.99999e-01,9.99047e-01,5.33888e-04,9.99999e-01
5.107366428e-01,6.19173e-04,9.99999e-01,9.99355e-01,6.19572e-04,9.99999e-01
5.132903260e-01,7.16631e-04,9.99999e-01,9.99630e-01,7.16895e-04,9.99999e-01
5.158567776e-01,8.26990e-04,9.99999e-01,9.99843e-01,8.27119e-04,9.99999e-01
5.184360615e-01,9.51539e-04,9.99999e-01,9.99937e-01,9.51599e-04,9.99999e-01
5.210282418e-01,1.09176e-03,9.99999e-01,9.99976e-01,1.09178e-03,9.99999e-01
5.236333830e-01,1.24911e-03,9.99999e-01,9.99906e-01,1.24923e-03,9.99999e-01
5.262515499e-01,1.42549e-03,9.99999e-01,9.99941e-01,1.42557e-03,9.99999e-01
5.288828077e-01,1.62249e-03,9.99999e-01,9.99946e-01,1.62258e-03,9.99999e-01
5.315272217e-01,1.84200e-03,9.99999e-01,9.99952e-01,1.84209e-03,9.99999e-01
5.341848578e-01,2.08600e-03,9.99999e-01,9.99968e-01,2.08606e-03,9.99999e-01
5.368557821e-01,2.35630e-03,9.99999e-01,9.99891e-01,2.35655e-03,9.99999e-01
5.395400610e-01,2.65469e-03,9.99999e-01,9.99612e-01,2.65571e-03,9.99999e-01
5.422377613e-01,2.98428e-03,9.99999e-01,9.99492e-01,2.98580e-03,9.99999e-01
5.449489501e-01,3.34758e-03,9.99999e-01,9.99531e-01,3.34915e-03,9.99999e-01
5.476736949e-01,3.74663e-03,9.99999e-01,9.99581e-01,3.74820e-03,9.99999e-01
5.504120634e-01,4.18422e-03,9.99999e-01,9.99696e-01,4.18548e-03,9.99999e-01
5.531641237e-01,4.66290e-03,9.99999e-01,9.99846e-01,4.66361e-03,9.99999e-01
5.559299443e-01,5.18488e-03,9.99999e-01,9.99925e-01,5.18526e-03,9.99999e-01
5.587095940e-01,5.75294e-03,9.99999e-01,9.99953e-01,5.75320e-03,9.99999e-01
5.615031420e-01,6.36993e-03,9.99999e-01,9.99948e-01,6.37026e-03,9.99999e-01
5.643106577e-01,7.03891e-03,9.99999e-01,9.99942e-01,7.03931e-03,9.99999e-01
5.671322110e-01,7.75793e-03,9.99999e-01,9.99307e-01,7.76331e-03,9.99999e-01
5.699678720e-01,8.53875e-03,9.99999e-01,9.99241e-01,8.54523e-03,9.99999e-01
5.728177114e-01,9.38076e-03,9.99999e-01,9.99219e-01,9.38809e-03,9.99999e-01
5.756818000e-01,1.02876e-02,9.99999e-01,9.99281e-01,1.02949e-02,9.99999e-01
5.785602090e-01,1.12618e-02,9.99999e-01,9.99372e-01,1.12688e-02,9.99999e-01
5.814530100e-01,1.23051e-02,9.99999e-01,9.99371e-01,1.23129e-02,9.99999e-01
5.843602750e-01,1.34201e-02,9.99999e-01,9.99257e-01,1.34301e-02,9.99999e-01
5.872820764e-01,1.45301e-02,9.99999e-01,9.93602e-01,1.46236e-02,9.99999e-01
5.902184868e-01,1.57721e-02,9.99999e-01,9.92178e-01,1.58964e-02,9.99999e-01
5.931695792e-01,1.71565e-02,9.99999e-01,9.94488e-01,1.72516e-02,9.99999e-01
5.961354271e-01,1.85788e-02,9.99999e-01,9.93944e-01,1.86920e-02,9.99999e-01
5.991161043e-01,2.01312e-02,9.99999e-01,9.95575e-01,2.02206e-02,9.99999e-01
6.021116848e-01,2.17854e-02,9.99999e-01,9.97484e-01,2.18403e-02,9.99999e-01
6.051222432e-01,2.35239e-02,9.99999e-01,9.98725e-01,2.35539e-02,9.99999e-01
6.081478544e-01,2.53501e-02,9.99999e-01,9.99450e-01,2.53641e-02,9.99999e-01
6.111885937e-01,2.72670e-02,9.99999e-01,9.99766e-01,2.72734e-02,9.99999e-01
6.142445367e-01,2.92814e-02,9.99999e-01,9.99895e-01,2.92845e-02,9.99999e-01
6.173157594e-01,3.13979e-02,9.99999e-01,9.99942e-01,3.13997e-02,9.99999e-01
6.204023382e-01,3.36197e-02,9.99999e-01,9.99951e-01,3.36213e-02,9.99999e-01
6.235043498e-01,3.59440e-02,9.99999e-01,9.99790e-01,3.59515e-02,9.99999e-01
6.266218716e-01,3.83493e-02,9.99999e-01,9.98875e-01,3.83924e-02,9.99999e-01
6.297549810e-01,4.09290e-02,9.99999e-01,9.99587e-01,4.09459e-02,9.99999e-01
6.329037559e-01,4.35780e-02,9.99999e-01,9.99182e-01,4.36137e-02,9.99999e-01
6.360682746e-01,4.63652e-02,9.99999e-01,9.99306e-01,4.63974e-02,9.99999e-01
6.392486160e-01,4.92541e-02,9.99999e-01,9.99099e-01,4.92985e-02,9.99999e-01
6.424448591e-01,5.22618e-02,9.99999e-01,9.98920e-01,5.23182e-02,9.99999e-01
6.456570834e-01,5.51528e-02,9.99999e-01,9.94499e-01,5.54578e-02,9.99999e-01
6.488853688e-01,5.84356e-02,9.99999e-01,9.95186e-01,5.87182e-02,9.99999e-01
6.521297956e-01,6.18406e-02,9.99999e-01,9.95820e-01,6.21001e-02,9.99999e-01
6.553904446e-01,6.53335e-02,9.99999e-01,9.95873e-01,6.56042e-02,9.99999e-01
6.586673968e-01,6.89840e-02,9.99999e-01,9.96431e-01,6.92310e-02,9.99999e-01
6.619607338e-01,7.28300e-02,9.99999e-01,9.97936e-01,7.29806e-02,9.99999e-01
6.652705375e-01,7.67611e-02,9.99999e-01,9.98801e-01,7.68532e-02,9.99999e-01
6.685968902e-01,8.08037e-02,9.99999e-01,9.99443e-01,8.08487e-02,9.99999e-01
6.719398746e-01,8.49448e-02,9.99999e-01,9.99741e-01,8.49667e-02,9.99999e-01
6.752995740e-01,8.91946e-02,9.99999e-01,9.99860e-01,8.92070e-02,9.99999e-01
6.786760719e-01,9.35502e-02,9.99999e-01,9.99800e-01,9.35688e-02,9.99999e-01
6.820694522e-01,9.80178e-02,9.99999e-01,9.99656e-01,9.80514e-02,9.99999e-01
6.854797995e-01,1.02609e-01,9.99999e-01,9.99558e-01,1.02654e-01,9.99999e-01
6.889071985e-01,1.07262e-01,9.99999e-01,9.98946e-01,1.07375e-01,9.99999e-01
6.923517345e-01,1.10276e-01,9.99999e-01,9.82731e-01,1.12213e-01,9.99999e-01
6.958134932e-01,1.16091e-01,9.99999e-01,9.90809e-01,1.17168e-01,9.99999e-01
6.992925606e-01,1.21189e-01,9.99999e-01,9.91430e-01,1.22237e-01,9.99999e-01
7.027890234e-01,1.26061e-01,9.99999e-01,9.89344e-01,1.27418e-01,9.99999e-01
7.063029686e-01,1.31522e-01,9.99999e-01,9.91042e-01,1.32711e-01,9.99999e-01
7.098344834e-01,1.36924e-01,9.99999e-01,9.91402e-01,1.38112e-01,9.99999e-01
7.133836558e-01,1.41998e-01,9.99999e-01,9.88708e-01,1.43620e-01,9.99999e-01
7.169505741e-01,1.36160e-01,9.99999e-01,9.12405e-01,1.49232e-01,9.99998e-01
7.205353270e-01,1.48020e-01,9.99999e-01,9.55307e-01,1.54945e-01,9.99998e-01
7.241380036e-01,1.51815e-01,9.99999e-01,9.44365e-01,1.60759e-01,9.99998e-01
7.277586936e-01,1.58272e-01,9.99999e-01,9.49616e-01,1.66669e-01,9.99998e-01
7.313974871e-01,1.63370e-01,9.99999e-01,9.46122e-01,1.72673e-01,9.99998e-01
7.350544745e-01,1.73450e-01,9.99999e-01,9.70246e-01,1.78769e-01,9.99999e-01
7.387297469e-01,1.80883e-01,9.99999e-01,9.77995e-01,1.84953e-01,9.99999e-01
7.424233956e-01,1.89147e-01,9.99999e-01,9.89147e-01,1.91222e-01,9.99999e-01
7.461355126e-01,1.96274e-01,9.99999e-01,9.93421e-01,1.97574e-01,9.99999e-01
7.498661902e-01,2.03378e-01,9.99999e-01,9.96924e-01,2.04005e-01,9.99999e-01
7.536155211e-01,2.10195e-01,9.99999e-01,9.98494e-01,2.10512e-01,9.99999e-01
7.573835987e-01,2.16924e-01,9.99999e-01,9.99224e-01,2.17092e-01,9.99999e-01
7.611705167e-01,2.23634e-01,9.99999e-01,9.99517e-01,2.23742e-01,9.99999e-01
7.649763693e-01,2.30388e-01,9.99999e-01,9.99698e-01,2.30458e-01,9.99999e-01
7.688012511e-01,2.37187e-01,9.99999e-01,9.99789e-01,2.37236e-01,9.99999e-01
7.726452574e-01,2.44033e-01,9.99999e-01,9.99827e-01,2.44075e-01,9.99999e-01
7.765084837e-01,2.50909e-01,9.99999e-01,9.99756e-01,2.50970e-01,9.99999e-01
7.803910261e-01,2.43184e-01,9.43815e-01,9.98950e-01,2.57917e-01,9.99999e-01
7.842929812e-01,1.99461e-01,7.55458e-01,9.96342e-01,2.64914e-01,9.99999e-01
7.882144461e-01,2.00729e-01,7.43346e-01,9.92413e-01,2.71957e-01,9.99999e-01
7.921555184e-01,2.32802e-01,8.37648e-01,9.95813e-01,2.79042e-01,9.99999e-01
7.961162960e-01,2.51975e-01,8.86886e-01,9.92691e-01,2.86167e-01,9.99999e-01
8.000968774e-01,2.72543e-01,9.37051e-01,9.91512e-01,2.93327e-01,9.99999e-01
8.040973618e-01,2.88066e-01,9.66722e-01,9.91522e-01,3.00520e-01,9.99999e-01
8.081178486e-01,2.97309e-01,9.84644e-01,9.81116e-01,3.07742e-01,9.99999e-01
8.121584379e-01,2.89535e-01,9.95193e-01,9.23546e-01,3.14990e-01,9.99998e-01
8.162192301e-01,2.92662e-01,9.98936e-01,9.09091e-01,3.22260e-01,9.99998e-01
8.203003262e-01,3.14607e-01,9.99981e-01,9.54674e-01,3.29549e-01,9.99998e-01
8.244018279e-01,3.15263e-01,9.99999e-01,9.35902e-01,3.36855e-01,9.99998e-01
8.285238370e-01,3.25239e-01,9.99999e-01,9.44987e-01,3.44173e-01,9.99998e-01
8.326664562e-01,3.31890e-01,9.99999e-01,9.44209e-01,3.51501e-01,9.99998e-01
8.368297885e-01,3.44376e-01,9.99999e-01,9.59703e-01,3.58836e-01,9.99999e-01
8.410139374e-01,3.57329e-01,9.99999e-01,9.75844e-01,3.66174e-01,9.99999e-01
8.452190071e-01,3.69057e-01,9.99999e-01,9.88069e-01,3.73513e-01,9.99999e-01
8.494451021e-01,3.78217e-01,9.99999e-01,9.93086e-01,3.80850e-01,9.99999e-01
8.536923276e-01,3.86587e-01,9.99999e-01,9.95892e-01,3.88182e-01,9.99999e-01
8.579607893e-01,3.94508e-01,9.99999e-01,9.97476e-01,3.95505e-01,9.99999e-01
8.622505932e-01,4.02172e-01,9.99999e-01,9.98392e-01,4.02819e-01,9.99999e-01
8.665618462e-01,3.68121e-01,8.98439e-01,9.99009e-01,4.10119e-01,9.99999e-01
8.708946554e-01,2.07826e-01,4.98433e-01,9.98868e-01,4.17403e-01,9.99999e-01
8.752491287e-01,2.39203e-01,5.64080e-01,9.98484e-01,4.24669e-01,9.99999e-01
8.796253743e-01,3.13234e-01,7.26661e-01,9.97908e-01,4.31914e-01,9.99999e-01
8.840235012e-01,3.70786e-01,8.46319e-01,9.97609e-01,4.39136e-01,9.99999e-01
8.884436187e-01,4.14228e-01,9.35919e-01,9.91462e-01,4.46333e-01,9.99999e-01
8.928858368e-01,4.03178e-01,9.73578e-01,9.12770e-01,4.53502e-01,9.99998e-01
8.973502660e-01,3.88996e-01,9.93476e-01,8.49805e-01,4.60641e-01,9.99997e-01
9.018370173e-01,4.29916e-01,9.99277e-01,9.19748e-01,4.67748e-01,9.99997e-01
9.063462024e-01,4.34237e-01,9.82353e-01,9.29997e-01,4.74821e-01,9.99996e-01
9.108779334e-01,4.12696e-01,9.58736e-01,8.92488e-01,4.81858e-01,9.99996e-01
9.154323231e-01,4.25322e-01,9.90063e-01,8.78421e-01,4.88858e-01,9.99996e-01
9.200094847e-01,3.95536e-01,8.75101e-01,9.03341e-01,4.95817e-01,9.99995e-01
9.246095321e-01,3.53103e-01,8.14259e-01,8.57428e-01,5.02736e-01,9.99992e-01
9.292325798e-01,1.61846e-01,8.53701e-01,3.62669e-01,5.09611e-01,9.99984e-01
9.338787427e-01,1.21493e-01,8.56291e-01,2.67965e-01,5.16442e-01,9.99979e-01
9.385481364e-01,2.76518e-01,8.91888e-01,5.86037e-01,5.23227e-01,9.99979e-01
9.432408771e-01,2.41640e-01,9.31972e-01,4.86202e-01,5.29965e-01,9.99976e-01
9.479570815e-01,1.93082e-01,9.64592e-01,3.71865e-01,5.36653e-01,9.99979e-01
9.526968669e-01,2.50155e-01,9.82745e-01,4.67402e-01,5.43292e-01,9.99984e-01
9.574603512e-01,2.67093e-01,9.92578e-01,4.88948e-01,5.49879e-01,9.99988e-01
9.622476530e-01,3.08136e-01,9.97677e-01,5.54947e-01,5.56413e-01,9.99992e-01
9.670588912e-01,4.00236e-01,9.99301e-01,7.11487e-01,5.62893e-01,9.99994e-01
9.718941857e-01,4.59247e-01,9.99949e-01,8.06698e-01,5.69319e-01,9.99996e-01
9.767536566e-01,4.81638e-01,9.99999e-01,8.36629e-01,5.75689e-01,9.99997e-01
9.816374249e-01,5.09645e-01,9.99999e-01,8.75674e-01,5.82003e-01,9.99998e-01
9.865456120e-01,5.41367e-01,9.99999e-01,9.20288e-01,5.88259e-01,9.99998e-01
9.914783401e-01,5.64700e-01,9.99999e-01,9.49942e-01,5.94456e-01,9.99999e-01
9.964357318e-01,5.84027e-01,9.99999e-01,9.72413e-01,6.00595e-01,9.99999e-01
1.001417910e+00,5.96584e-01,9.99999e-01,9.83369e-01,6.06674e-01,9.99999e-01
1.006425000e+00,6.06875e-01,9.99999e-01,9.90505e-01,6.12692e-01,9.99999e-01
1.011457125e+00,6.14989e-01,9.99999e-01,9.94081e-01,6.18650e-01,9.99999e-01
1.016514411e+00,6.22038e-01,9.99999e-01,9.95984e-01,6.24546e-01,9.99999e-01
1.021596983e+00,6.28310e-01,9.99913e-01,9.96801e-01,6.30380e-01,9.99999e-01
1.026704968e+00,6.30171e-01,9.93068e-01,9.97506e-01,6.36152e-01,9.99999e-01
1.031838492e+00,5.99574e-01,9.35750e-01,9.98183e-01,6.41861e-01,9.99999e-01
1.036997685e+00,5.58546e-02,8.63322e-02,9.98922e-01,6.47507e-01,9.99999e-01
1.042182673e+00,1.52317e-02,2.33472e-02,9.98720e-01,6.53090e-01,9.99999e-01
1.047393587e+00,2.77854e-02,4.22496e-02,9.98300e-01,6.58609e-01,9.99999e-01
1.052630555e+00,6.41583e-05,9.67663e-05,9.97671e-01,6.64064e-01,9.99999e-01
1.057893707e+00,2.13991e-04,3.20368e-04,9.96120e-01,6.69456e-01,9.99999e-01
1.063183176e+00,1.67764e-03,2.49631e-03,9.93616e-01,6.74783e-01,9.99999e-01
1.068499092e+00,8.78313e-03,1.30204e-02,9.89318e-01,6.80047e-01,9.99999e-01
1.073841587e+00,4.24971e-02,6.26285e-02,9.87536e-01,6.85246e-01,9.99999e-01
1.079210795e+00,1.18116e-01,1.73445e-01,9.83999e-01,6.90381e-01,9.99999e-01
1.084606849e+00,2.55270e-01,3.75363e-01,9.75922e-01,6.95452e-01,9.99998e-01
1.090029883e+00,4.06729e-01,6.00179e-01,9.65802e-01,7.00459e-01,9.99998e-01
1.095480033e+00,4.99381e-01,7.76986e-01,9.09393e-01,7.05402e-01,9.99997e-01
1.100957433e+00,4.95653e-01,8.85288e-01,7.86411e-01,7.10282e-01,9.99995e-01
1.106462220e+00,3.74385e-01,9.50775e-01,5.48923e-01,7.15098e-01,9.99990e-01
1.111994531e+00,2.02872e-01,9.81456e-01,2.86510e-01,7.19850e-01,9.99981e-01
1.117554504e+00,9.85531e-02,9.95420e-01,1.36465e-01,7.24539e-01,9.99973e-01
1.123142276e+00,1.77387e-01,9.99696e-01,2.43301e-01,7.29165e-01,9.99969e-01
1.128757988e+00,2.86806e-01,9.99999e-01,3.90901e-01,7.33728e-01,9.99966e-01
1.134401778e+00,1.35468e-01,9.99999e-01,1.83511e-01,7.38229e-01,9.99962e-01
1.140073787e+00,4.18475e-01,9.99999e-01,5.63491e-01,7.42668e-01,9.99968e-01
1.145774156e+00,2.33378e-01,9.99999e-01,3.12409e-01,7.47045e-01,9.99974e-01
1.151503026e+00,2.08217e-01,9.99999e-01,2.77125e-01,7.51361e-01,9.99977e-01
1.157260541e+00,2.48334e-01,9.99999e-01,3.28656e-01,7.55616e-01,9.99983e-01
1.163046844e+00,3.31594e-01,9.99999e-01,4.36421e-01,7.59810e-01,9.99989e-01
1.168862078e+00,4.25807e-01,9.99999e-01,5.57383e-01,7.63943e-01,9.99994e-01
1.174706389e+00,5.35305e-01,9.99999e-01,6.96997e-01,7.68017e-01,9.99996e-01
1.180579921e+00,6.19256e-01,9.99999e-01,8.02112e-01,7.72032e-01,9.99997e-01
1.186482820e+00,6.84915e-01,9.99990e-01,8.82644e-01,7.75987e-01,9.99998e-01
1.192415234e+00,7.08012e-01,9.75956e-01,9.29730e-01,7.79885e-01,9.99998e-01
1.198377311e+00,4.04225e-01,5.42849e-01,9.40558e-01,7.83724e-01,9.99998e-01
1.204369197e+00,2.76526e-19,3.63113e-19,9.43677e-01,7.87505e-01,9.99998e-01
1.210391043e+00,2.18243e-75,2.84461e-75,9.46020e-01,7.91230e-01,9.99998e-01
1.216442998e+00,2.35297e-65,3.04782e-65,9.53798e-01,7.94898e-01,9.99999e-01
1.222525213e+00,2.20872e-64,2.81888e-64,9.63853e-01,7.98511e-01,9.99999e-01
1.228637839e+00,8.50495e-50,1.07890e-49,9.74776e-01,8.02067e-01,9.99999e-01
1.234781029e+00,2.38140e-31,2.98046e-31,9.81189e-01,8.05569e-01,9.99999e-01
1.240954934e+00,5.62703e-21,7.00775e-21,9.88076e-01,8.09017e-01,9.99999e-01
1.247159708e+00,1.30266e-10,1.61230e-10,9.90695e-01,8.12411e-01,9.99999e-01
1.253395507e+00,3.95491e-07,4.87693e-07,9.91747e-01,8.15751e-01,9.99999e-01
1.259662485e+00,1.17273e-04,1.44016e-04,9.92237e-01,8.19039e-01,9.99999e-01
1.265960797e+00,7.16000e-03,8.78161e-03,9.87549e-01,8.22275e-01,9.99999e-01
1.272290601e+00,8.48313e-02,1.04358e-01,9.81727e-01,8.25460e-01,9.99999e-01
1.278652054e+00,8.62146e-02,1.06978e-01,9.61770e-01,8.28593e-01,9.99998e-01
1.285045314e+00,5.86697e-04,7.26931e-04,9.40640e-01,8.31676e-01,9.99998e-01
1.291470541e+00,2.25782e-09,2.90459e-09,8.84070e-01,8.34709e-01,9.99997e-01
1.297927893e+00,1.49778e-04,1.92559e-04,8.51568e-01,8.37694e-01,9.99995e-01
1.304417533e+00,1.50905e-02,2.13022e-02,8.13004e-01,8.40629e-01,9.99991e-01
1.310939621e+00,3.85718e-03,5.24337e-03,7.89964e-01,8.43517e-01,9.99986e-01
1.317494319e+00,3.70171e-26,5.03700e-26,7.73102e-01,8.46357e-01,9.99976e-01
1.324081790e+00,1.66304e-17,2.33220e-17,6.83042e-01,8.49150e-01,9.99962e-01
1.330702199e+00,1.34018e-10,2.81965e-10,2.74612e-01,8.51897e-01,9.99938e-01
1.337355710e+00,8.92555e-11,1.21269e-09,2.77033e-02,8.54599e-01,9.99881e-01
1.344042489e+00,1.16643e-11,4.99923e-10,8.83972e-04,8.57255e-01,9.99747e-01
1.350762701e+00,2.01359e-17,1.48309e-10,2.24165e-08,8.59867e-01,9.99596e-01
1.357516515e+00,5.68936e-17,9.09329e-07,5.77266e-12,8.62435e-01,9.99500e-01
1.364304097e+00,2.41481e-11,6.98025e-05,1.03510e-07,8.64960e-01,9.99464e-01
1.371125618e+00,4.46088e-07,7.31575e-03,2.95001e-05,8.67442e-01,9.99459e-01
1.377981246e+00,2.43841e-06,1.55777e-02,9.82028e-05,8.69882e-01,9.99419e-01
1.384871152e+00,8.31767e-08,8.86826e-02,6.94263e-07,8.72280e-01,9.99425e-01
1.391795508e+00,1.83600e-08,1.06321e-01,1.17031e-07,8.74638e-01,9.99508e-01
1.398754485e+00,6.99176e-07,2.47832e-01,2.71853e-06,8.76955e-01,9.99589e-01
1.405748258e+00,1.12000e-06,3.59530e-01,2.92866e-06,8.79232e-01,9.99631e-01
1.412776999e+00,1.50938e-06,5.22462e-01,2.72277e-06,8.81470e-01,9.99703e-01
1.419840884e+00,3.25686e-06,4.76119e-01,5.78732e-06,8.83670e-01,9.99778e-01
1.426940089e+00,3.93061e-05,2.65333e-02,1.14187e-04,8.85831e-01,9.99862e-01
1.434074789e+00,0.00000e+00,0.00000e+00,7.85971e-04,8.87955e-01,9.99914e-01
1.441245163e+00,0.00000e+00,0.00000e+00,3.13577e-03,8.90042e-01,9.99933e-01
1.448451389e+00,0.00000e+00,0.00000e+00,1.81378e-02,8.92092e-01,9.99944e-01
1.455693646e+00,0.00000e+00,0.00000e+00,6.43835e-02,8.94106e-01,9.99954e-01
1.462972114e+00,1.01373e-299,5.24258e-299,8.96921e-02,8.96085e-01,9.99960e-01
1.470286975e+00,4.26318e-125,2.48428e-124,6.09820e-02,8.98029e-01,9.99964e-01
