#,Wave/freq,Total,CO2,H2O,Rayleigh,CIA
4.000000000e-01,1.47384e-02,9.99999e-01,9.99991e-01,1.47386e-02,9.99999e-01
4.020000000e-01,1.60202e-02,9.99999e-01,9.99994e-01,1.60203e-02,9.99999e-01
4.040100000e-01,1.73832e-02,9.99999e-01,9.99997e-01,1.73833e-02,9.99999e-01
4.060300500e-01,1.88319e-02,9.99999e-01,9.99999e-01,1.88319e-02,9.99999e-01
4.080602003e-01,2.03689e-02,9.99999e-01,9.99999e-01,2.03689e-02,9.99999e-01
4.101005013e-01,2.19974e-02,9.99999e-01,9.99999e-01,2.19974e-02,9.99999e-01
4.121510038e-01,2.37199e-02,9.99999e-01,9.99999e-01,2.37199e-02,9.99999e-01
4.142117588e-01,2.55392e-02,9.99999e-01,9.99997e-01,2.55393e-02,9.99999e-01
4.162828176e-01,2.74578e-02,9.99999e-01,9.99989e-01,2.74581e-02,9.99999e-01
4.183642317e-01,2.94786e-02,9.99999e-01,9.99993e-01,2.94788e-02,9.99999e-01
4.204560528e-01,3.16038e-02,9.99999e-01,9.99995e-01,3.16039e-02,9.99999e-01
4.225583331e-01,3.38356e-02,9.99999e-01,9.99998e-01,3.38357e-02,9.99999e-01
4.246711247e-01,3.61762e-02,9.99999e-01,9.99998e-01,3.61762e-02,9.99999e-01
4.267944804e-01,3.86276e-02,9.99999e-01,9.99997e-01,3.86276e-02,9.99999e-01
4.289284528e-01,4.11917e-02,9.99999e-01,9.99998e-01,4.11918e-02,9.99999e-01
4.310730950e-01,4.38703e-02,9.99999e-01,9.99998e-01,4.38704e-02,9.99999e-01
4.332284605e-01,4.66651e-02,9.99999e-01,9.99999e-01,4.66651e-02,9.99999e-01
4.353946028e-01,4.95773e-02,9.99999e-01,9.99999e-01,4.95773e-02,9.99999e-01
4.375715758e-01,5.26082e-02,9.99999e-01,9.99998e-01,5.26083e-02,9.99999e-01
4.397594337e-01,5.57587e-02,9.99999e-01,9.99990e-01,5.57592e-02,9.99999e-01
4.419582309e-01,5.90282e-02,9.99999e-01,9.99953e-01,5.90309e-02,9.99999e-01
4.441680220e-01,6.24221e-02,9.99999e-01,9.99964e-01,6.24243e-02,9.99999e-01
4.463888621e-01,6.59375e-02,9.99999e-01,9.99962e-01,6.59399e-02,9.99999e-01
4.486208064e-01,6.95766e-02,9.99999e-01,9.99976e-01,6.95782e-02,9.99999e-01
4.508639105e-01,7.33386e-02,9.99999e-01,9.99988e-01,7.33394e-02,9.99999e-01
4.531182300e-01,7.72232e-02,9.99999e-01,9.99995e-01,7.72235e-02,9.99999e-01
4.553838212e-01,8.12303e-02,9.99999e-01,9.99996e-01,8.12305e-02,9.99999e-01
4.576607403e-01,8.53600e-02,9.99999e-01,9.99998e-01,8.53601e-02,9.99999e-01
4.599490440e-01,8.96118e-02,9.99999e-01,9.99998e-01,8.96119e-02,9.99999e-01
4.622487892e-01,9.39850e-02,9.99999e-01,9.99999e-01,9.39851e-02,9.99999e-01
4.645600332e-01,9.84789e-02,9.99999e-01,9.99998e-01,9.84790e-02,9.99999e-01
4.668828333e-01,1.03091e-01,9.99999e-01,9.99988e-01,1.03093e-01,9.99999e-01
4.692172475e-01,1.07822e-01,9.99999e-01,9.99976e-01,1.07825e-01,9.99999e-01
4.715633337e-01,1.12673e-01,9.99999e-01,9.99984e-01,1.12674e-01,9.99999e-01
4.739211504e-01,1.17638e-01,9.99999e-01,9.99985e-01,1.17640e-01,9.99999e-01
4.762907561e-01,1.22718e-01,9.99999e-01,9.99991e-01,1.22719e-01,9.99999e-01
4.786722099e-01,1.27911e-01,9.99999e-01,9.99996e-01,1.27911e-01,9.99999e-01
4.810655710e-01,1.33214e-01,9.99999e-01,9.99998e-01,1.33214e-01,9.99999e-01
4.834708988e-01,1.38624e-01,9.99999e-01,9.99990e-01,1.38625e-01,9.99999e-01
4.858882533e-01,1.44140e-01,9.99999e-01,9.99983e-01,1.44143e-01,9.99999e-01
4.883176946e-01,1.49762e-01,9.99999e-01,9.99985e-01,1.49764e-01,9.99999e-01
4.907592831e-01,1.55486e-01,9.99999e-01,9.99987e-01,1.55488e-01,9.99999e-01
4.932130795e-01,1.61309e-01,9.99999e-01,9.99990e-01,1.61310e-01,9.99999e-01
4.956791449e-01,1.67229e-01,9.99999e-01,9.99994e-01,1.67229e-01,9.99999e-01
4.981575406e-01,1.73238e-01,9.99999e-01,9.99976e-01,1.73242e-01,9.99999e-01
5.006483283e-01,1.79336e-01,9.99999e-01,9.99938e-01,1.79346e-01,9.99999e-01
5.031515699e-01,1.85482e-01,9.99999e-01,9.99692e-01,1.85539e-01,9.99999e-01
5.056673278e-01,1.91785e-01,9.99999e-01,9.99837e-01,1.91816e-01,9.99999e-01
5.081956644e-01,1.98135e-01,9.99999e-01,9.99795e-01,1.98175e-01,9.99999e-01
5.107366428e-01,2.04585e-01,9.99999e-01,9.99861e-01,2.04613e-01,9.99999e-01
5.132903260e-01,2.11111e-01,9.99999e-01,9.99920e-01,2.11128e-01,9.99999e-01
5.158567776e-01,2.17707e-01,9.99999e-01,9.99966e-01,2.17714e-01,9.99999e-01
5.184360615e-01,2.24367e-01,9.99999e-01,9.99986e-01,2.24370e-01,9.99999e-01
5.210282418e-01,2.31091e-01,9.99999e-01,9.99994e-01,2.31092e-01,9.99999e-01
5.236333830e-01,2.37872e-01,9.99999e-01,9.99979e-01,2.37877e-01,9.99999e-01
5.262515499e-01,2.44718e-01,9.99999e-01,9.99987e-01,2.44721e-01,9.99999e-01
5.288828077e-01,2.51618e-01,9.99999e-01,9.99988e-01,2.51620e-01,9.99999e-01
5.315272217e-01,2.58570e-01,9.99999e-01,9.99989e-01,2.58573e-01,9.99999e-01
5.341848578e-01,2.65572e-01,9.99999e-01,9.99992e-01,2.65574e-01,9.99999e-01
5.368557821e-01,2.72615e-01,9.99999e-01,9.99976e-01,2.72621e-01,9.99999e-01
5.395400610e-01,2.79687e-01,9.99999e-01,9.99915e-01,2.79710e-01,9.99999e-01
5.422377613e-01,2.86807e-01,9.99999e-01,9.99891e-01,2.86838e-01,9.99999e-01
5.449489501e-01,2.93972e-01,9.99999e-01,9.99898e-01,2.94002e-01,9.99999e-01
5.476736949e-01,3.01171e-01,9.99999e-01,9.99910e-01,3.01198e-01,9.99999e-01
5.504120634e-01,3.08402e-01,9.99999e-01,9.99934e-01,3.08422e-01,9.99999e-01
5.531641237e-01,3.15662e-01,9.99999e-01,9.99966e-01,3.15672e-01,9.99999e-01
5.559299443e-01,3.22939e-01,9.99999e-01,9.99983e-01,3.22944e-01,9.99999e-01
5.587095940e-01,3.30232e-01,9.99999e-01,9.99989e-01,3.30235e-01,9.99999e-01
5.615031420e-01,3.37538e-01,9.99999e-01,9.99988e-01,3.37542e-01,9.99999e-01
5.643106577e-01,3.44857e-01,9.99999e-01,9.99986e-01,3.44861e-01,9.99999e-01
5.671322110e-01,3.52136e-01,9.99999e-01,9.99846e-01,3.52190e-01,9.99999e-01
5.699678720e-01,3.59468e-01,9.99999e-01,9.99838e-01,3.59525e-01,9.99999e-01
5.728177114e-01,3.66802e-01,9.99999e-01,9.99831e-01,3.66864e-01,9.99999e-01
5.756818000e-01,3.74145e-01,9.99999e-01,9.99845e-01,3.74203e-01,9.99999e-01
5.785602090e-01,3.81488e-01,9.99999e-01,9.99865e-01,3.81539e-01,9.99999e-01
5.814530100e-01,3.88818e-01,9.99999e-01,9.99864e-01,3.88870e-01,9.99999e-01
5.843602750e-01,3.96129e-01,9.99999e-01,9.99837e-01,3.96193e-01,9.99999e-01
5.872820764e-01,4.02943e-01,9.99999e-01,9.98606e-01,4.03506e-01,9.99999e-01
5.902184868e-01,4.10114e-01,9.99999e-01,9.98318e-01,4.10804e-01,9.99999e-01
5.931695792e-01,4.17590e-01,9.99999e-01,9.98810e-01,4.18087e-01,9.99999e-01
5.961354271e-01,4.24797e-01,9.99999e-01,9.98697e-01,4.25351e-01,9.99999e-01
5.991161043e-01,4.32184e-01,9.99999e-01,9.99050e-01,4.32594e-01,9.99999e-01
6.021116848e-01,4.39577e-01,9.99999e-01,9.99461e-01,4.39814e-01,9.99999e-01
6.051222432e-01,4.46886e-01,9.99999e-01,9.99727e-01,4.47008e-01,9.99999e-01
6.081478544e-01,4.54121e-01,9.99999e-01,9.99882e-01,4.54174e-01,9.99999e-01
6.111885937e-01,4.61287e-01,9.99999e-01,9.99949e-01,4.61310e-01,9.99999e-01
6.142445367e-01,4.68404e-01,9.99999e-01,9.99977e-01,4.68414e-01,9.99999e-01
6.173157594e-01,4.75478e-01,9.99999e-01,9.99987e-01,4.75484e-01,9.99999e-01
6.204023382e-01,4.82513e-01,9.99999e-01,9.99989e-01,4.82518e-01,9.99999e-01
6.235043498e-01,4.89491e-01,9.99999e-01,9.99953e-01,4.89514e-01,9.99999e-01
6.266218716e-01,4.96349e-01,9.99999e-01,9.99757e-01,4.96470e-01,9.99999e-01
6.297549810e-01,5.03339e-01,9.99999e-01,9.99910e-01,5.03384e-01,9.99999e-01
6.329037559e-01,5.10166e-01,9.99999e-01,9.99824e-01,5.10256e-01,9.99999e-01
6.360682746e-01,5.17005e-01,9.99999e-01,9.99850e-01,5.17082e-01,9.99999e-01
6.392486160e-01,5.23761e-01,9.99999e-01,9.99806e-01,5.23863e-01,9.99999e-01
6.424448591e-01,5.30458e-01,9.99999e-01,9.99739e-01,5.30596e-01,9.99999e-01
6.456570834e-01,5.36631e-01,9.99999e-01,9.98792e-01,5.37279e-01,9.99999e-01
6.488853688e-01,5.43435e-01,9.99999e-01,9.99119e-01,5.43913e-01,9.99999e-01
6.521297956e-01,5.50001e-01,9.99999e-01,9.99102e-01,5.50495e-01,9.99999e-01
6.553904446e-01,5.56526e-01,9.99999e-01,9.99105e-01,5.57024e-01,9.99999e-01
6.586673968e-01,5.63069e-01,9.99999e-01,9.99235e-01,5.63500e-01,9.99999e-01
6.619607338e-01,5.69678e-01,9.99999e-01,9.99573e-01,5.69920e-01,9.99999e-01
6.652705375e-01,5.76138e-01,9.99999e-01,9.99743e-01,5.76285e-01,9.99999e-01
6.685968902e-01,5.82530e-01,9.99999e-01,9.99890e-01,5.82593e-01,9.99999e-01
6.719398746e-01,5.88811e-01,9.99999e-01,9.99944e-01,5.88844e-01,9.99999e-01
6.752995740e-01,5.95018e-01,9.99999e-01,9.99969e-01,5.95036e-01,9.99999e-01
6.786760719e-01,6.01143e-01,9.99999e-01,9.99956e-01,6.01169e-01,9.99999e-01
6.820694522e-01,6.07197e-01,9.99999e-01,9.99925e-01,6.07242e-01,9.99999e-01
6.854797995e-01,6.13196e-01,9.99999e-01,9.99904e-01,6.13255e-01,9.99999e-01
6.889071985e-01,6.19063e-01,9.99999e-01,9.99767e-01,6.19207e-01,9.99999e-01
6.923517345e-01,6.22737e-01,9.99999e-01,9.96223e-01,6.25097e-01,9.99999e-01
6.958134932e-01,6.29696e-01,9.99999e-01,9.98051e-01,6.30925e-01,9.99999e-01
6.992925606e-01,6.35504e-01,9.99999e-01,9.98134e-01,6.36691e-01,9.99999e-01
7.027890234e-01,6.40920e-01,9.99999e-01,9.97704e-01,6.42394e-01,9.99999e-01
7.063029686e-01,6.46784e-01,9.99999e-01,9.98069e-01,6.48034e-01,9.99999e-01
7.098344834e-01,6.52401e-01,9.99999e-01,9.98148e-01,6.53611e-01,9.99999e-01
7.133836558e-01,6.57488e-01,9.99999e-01,9.97517e-01,6.59124e-01,9.99999e-01
7.169505741e-01,6.51379e-01,9.99999e-01,9.80145e-01,6.64574e-01,9.99999e-01
7.205353270e-01,6.63478e-01,9.99999e-01,9.90326e-01,6.69959e-01,9.99999e-01
7.241380036e-01,6.66945e-01,9.99999e-01,9.87655e-01,6.75281e-01,9.99999e-01
7.277586936e-01,6.72955e-01,9.99999e-01,9.88857e-01,6.80538e-01,9.99999e-01
7.313974871e-01,6.77641e-01,9.99999e-01,9.88201e-01,6.85731e-01,9.99999e-01
7.350544745e-01,6.86398e-01,9.99999e-01,9.93540e-01,6.90861e-01,9.99999e-01
7.387297469e-01,6.92619e-01,9.99999e-01,9.95248e-01,6.95926e-01,9.99999e-01
7.424233956e-01,6.99298e-01,9.99999e-01,9.97676e-01,7.00927e-01,9.99999e-01
7.461355126e-01,7.04869e-01,9.99999e-01,9.98590e-01,7.05864e-01,9.99999e-01
7.498661902e-01,7.10272e-01,9.99999e-01,9.99344e-01,7.10737e-01,9.99999e-01
7.536155211e-01,7.15317e-01,9.99999e-01,9.99677e-01,7.15547e-01,9.99999e-01
7.573835987e-01,7.20174e-01,9.99999e-01,9.99833e-01,7.20293e-01,9.99999e-01
7.611705167e-01,7.24902e-01,9.99999e-01,9.99896e-01,7.24976e-01,9.99999e-01
7.649763693e-01,7.29550e-01,9.99999e-01,9.99935e-01,7.29597e-01,9.99999e-01
7.688012511e-01,7.34121e-01,9.99999e-01,9.99954e-01,7.34154e-01,9.99999e-01
7.726452574e-01,7.38622e-01,9.99999e-01,9.99962e-01,7.38649e-01,9.99999e-01
7.765084837e-01,7.43043e-01,9.99999e-01,9.99946e-01,7.43082e-01,9.99999e-01
7.803910261e-01,7.36136e-01,9.85079e-01,9.99771e-01,7.47454e-01,9.99999e-01
7.842929812e-01,7.05624e-01,9.39356e-01,9.99202e-01,7.51764e-01,9.99999e-01
7.882144461e-01,7.05547e-01,9.34750e-01,9.98364e-01,7.56013e-01,9.99999e-01
7.921555184e-01,7.30731e-01,9.62085e-01,9.99104e-01,7.60201e-01,9.99999e-01
7.961162960e-01,7.43762e-01,9.74633e-01,9.98410e-01,7.64329e-01,9.99999e-01
8.000968774e-01,7.56382e-01,9.86165e-01,9.98168e-01,7.68397e-01,9.99999e-01
8.040973618e-01,7.65463e-01,9.92828e-01,9.98167e-01,7.72406e-01,9.99999e-01
8.081178486e-01,7.70588e-01,9.96696e-01,9.95856e-01,7.76356e-01,9.99999e-01
8.121584379e-01,7.66054e-01,9.98983e-01,9.82803e-01,7.80248e-01,9.99999e-01
8.162192301e-01,7.67978e-01,9.99775e-01,9.79679e-01,7.84082e-01,9.99999e-01
8.203003262e-01,7.79731e-01,9.99996e-01,9.89687e-01,7.87858e-01,9.99999e-01
8.244018279e-01,7.80277e-01,9.99999e-01,9.85724e-01,7.91577e-01,9.99999e-01
8.285238370e-01,7.85553e-01,9.99999e-01,9.87818e-01,7.95240e-01,9.99999e-01
8.326664562e-01,7.89022e-01,9.99999e-01,9.87699e-01,7.98847e-01,9.99999e-01
8.368297885e-01,7.95357e-01,9.99999e-01,9.91224e-01,8.02399e-01,9.99999e-01
8.410139374e-01,8.01691e-01,9.99999e-01,9.94781e-01,8.05896e-01,9.99999e-01
8.452190071e-01,8.07268e-01,9.99999e-01,9.97441e-01,8.09338e-01,9.99999e-01
8.494451021e-01,8.11519e-01,9.99999e-01,9.98513e-01,8.12727e-01,9.99999e-01
8.536923276e-01,8.15346e-01,9.99999e-01,9.99121e-01,8.16063e-01,9.99999e-01
8.579607893e-01,8.18902e-01,9.99999e-01,9.99458e-01,8.19346e-01,9.99999e-01
8.622505932e-01,8.22294e-01,9.99999e-01,9.99656e-01,8.22577e-01,9.99999e-01
8.665618462e-01,7.91979e-01,9.59294e-01,9.99786e-01,8.25756e-01,9.99999e-01
8.708946554e-01,7.04636e-01,8.50304e-01,9.99755e-01,8.28885e-01,9.99999e-01
8.752491287e-01,7.31450e-01,8.79467e-01,9.99673e-01,8.31963e-01,9.99999e-01
8.796253743e-01,7.78475e-01,9.32731e-01,9.99547e-01,8.34992e-01,9.99999e-01
8.840235012e-01,8.08009e-01,9.64738e-01,9.99483e-01,8.37972e-01,9.99999e-01
8.884436187e-01,8.27565e-01,9.86005e-01,9.98099e-01,8.40903e-01,9.99999e-01
8.928858368e-01,8.22358e-01,9.94309e-01,9.80162e-01,8.43786e-01,9.99999e-01
8.973502660e-01,8.16074e-01,9.98619e-01,9.65240e-01,8.46621e-01,9.99999e-01
9.018370173e-01,8.34127e-01,9.99847e-01,9.82154e-01,8.49410e-01,9.99999e-01
9.063462024e-01,8.35395e-01,9.96020e-01,9.84200e-01,8.52153e-01,9.99998e-01
9.108779334e-01,8.26465e-01,9.91020e-01,9.75510e-01,8.54850e-01,9.99998e-01
9.154323231e-01,8.31993e-01,9.97895e-01,9.72278e-01,8.57502e-01,9.99998e-01
9.200094847e-01,8.15061e-01,9.68234e-01,9.78223e-01,8.60110e-01,9.99998e-01
9.246095321e-01,7.97075e-01,9.56708e-01,9.65422e-01,8.62674e-01,9.99997e-01
9.292325798e-01,6.60324e-01,9.65555e-01,7.89038e-01,8.65195e-01,9.99996e-01
9.338787427e-01,6.18907e-01,9.66962e-01,7.36401e-01,8.67673e-01,9.99995e-01
9.385481364e-01,7.51340e-01,9.75673e-01,8.84469e-01,8.70109e-01,9.99995e-01
9.432408771e-01,7.22378e-01,9.85080e-01,8.40158e-01,8.72504e-01,9.99994e-01
9.479570815e-01,6.80107e-01,9.92313e-01,7.83254e-01,8.74858e-01,9.99995e-01
9.526968669e-01,7.30663e-01,9.96289e-01,8.35948e-01,8.77171e-01,9.99996e-01
9.574603512e-01,7.47439e-01,9.98413e-01,8.51212e-01,8.79444e-01,9.99997e-01
9.622476530e-01,7.73655e-01,9.99504e-01,8.77903e-01,8.81679e-01,9.99997e-01
9.670588912e-01,8.19974e-01,9.99851e-01,9.27839e-01,8.83875e-01,9.99998e-01
9.718941857e-01,8.45730e-01,9.99989e-01,9.54523e-01,8.86032e-01,9.99998e-01
9.767536566e-01,8.54506e-01,9.99999e-01,9.62116e-01,8.88153e-01,9.99999e-01
9.816374249e-01,8.65180e-01,9.99999e-01,9.71854e-01,8.90236e-01,9.99999e-01
9.865456120e-01,8.76526e-01,9.99999e-01,9.82341e-01,8.92283e-01,9.99999e-01
9.914783401e-01,8.84505e-01,9.99999e-01,9.89054e-01,8.94294e-01,9.99999e-01
9.964357318e-01,8.90916e-01,9.99999e-01,9.94026e-01,8.96269e-01,9.99999e-01
1.001417910e+00,8.94993e-01,9.99999e-01,9.96417e-01,8.98210e-01,9.99999e-01
1.006425000e+00,8.98277e-01,9.99999e-01,9.97955e-01,9.00117e-01,9.99999e-01
1.011457125e+00,9.00846e-01,9.99999e-01,9.98731e-01,9.01990e-01,9.99999e-01
1.016514411e+00,9.03051e-01,9.99999e-01,9.99138e-01,9.03829e-01,9.99999e-01
1.021596983e+00,9.04995e-01,9.99977e-01,9.99313e-01,9.05636e-01,9.99999e-01
1.026704968e+00,9.05521e-01,9.98450e-01,9.99464e-01,9.07411e-01,9.99999e-01
1.031838492e+00,8.86425e-01,9.75370e-01,9.99610e-01,9.09154e-01,9.99999e-01
1.036997685e+00,2.98234e-01,3.27482e-01,9.99768e-01,9.10866e-01,9.99999e-01
1.042182673e+00,3.67161e-01,4.02452e-01,9.99723e-01,9.12547e-01,9.99999e-01
1.047393587e+00,3.29874e-01,3.60954e-01,9.99633e-01,9.14198e-01,9.99999e-01
1.052630555e+00,6.54296e-02,7.14727e-02,9.99497e-01,9.15820e-01,9.99999e-01
1.057893707e+00,1.16730e-01,1.27325e-01,9.99160e-01,9.17412e-01,9.99999e-01
1.063183176e+00,2.07169e-01,2.25695e-01,9.98619e-01,9.18975e-01,9.99999e-01
1.068499092e+00,3.42229e-01,3.72575e-01,9.97689e-01,9.20510e-01,9.99999e-01
1.073841587e+00,4.94098e-01,5.37230e-01,9.97293e-01,9.22017e-01,9.99999e-01
1.079210795e+00,6.22235e-01,6.76030e-01,9.96538e-01,9.23497e-01,9.99999e-01
1.084606849e+00,7.43500e-01,8.07978e-01,9.94757e-01,9.24950e-01,9.99999e-01
1.090029883e+00,8.23378e-01,8.95497e-01,9.92452e-01,9.26377e-01,9.99999e-01
1.095480033e+00,8.60889e-01,9.47163e-01,9.79577e-01,9.27777e-01,9.99999e-01
1.100957433e+00,8.58932e-01,9.74224e-01,9.48777e-01,9.29152e-01,9.99998e-01
1.106462220e+00,8.04441e-01,9.89272e-01,8.73753e-01,9.30501e-01,9.99997e-01
1.111994531e+00,6.97911e-01,9.96012e-01,7.51876e-01,9.31826e-01,9.99995e-01
1.117554504e+00,5.85972e-01,9.99027e-01,6.28527e-01,9.33127e-01,9.99994e-01
1.123142276e+00,6.59448e-01,9.99935e-01,7.05779e-01,9.34403e-01,9.99992e-01
1.128757988e+00,7.50971e-01,9.99999e-01,8.02619e-01,9.35656e-01,9.99992e-01
1.134401778e+00,5.48806e-01,9.99999e-01,5.85781e-01,9.36886e-01,9.99991e-01
1.140073787e+00,8.24445e-01,9.99999e-01,8.78856e-01,9.38094e-01,9.99993e-01
1.145774156e+00,7.15193e-01,9.99999e-01,7.61432e-01,9.39278e-01,9.99994e-01
1.151503026e+00,6.92380e-01,9.99999e-01,7.36231e-01,9.40441e-01,9.99994e-01
1.157260541e+00,7.33420e-01,9.99999e-01,7.78924e-01,9.41583e-01,9.99995e-01
1.163046844e+00,7.84398e-01,9.99999e-01,8.32074e-01,9.42703e-01,9.99997e-01
1.168862078e+00,8.31425e-01,9.99999e-01,8.80932e-01,9.43802e-01,9.99998e-01
1.174706389e+00,8.73798e-01,9.99999e-01,9.24770e-01,9.44881e-01,9.99998e-01
1.180579921e+00,9.02010e-01,9.99999e-01,9.53559e-01,9.45940e-01,9.99999e-01
1.186482820e+00,9.21905e-01,9.99996e-01,9.73524e-01,9.46979e-01,9.99999e-01
1.192415234e+00,9.28090e-01,9.94415e-01,9.84471e-01,9.47998e-01,9.99999e-01
1.198377311e+00,5.57382e-01,5.93912e-01,9.86885e-01,9.48999e-01,9.99999e-01
1.204369197e+00,6.61936e-06,7.01828e-06,9.87581e-01,9.49981e-01,9.99999e-01
1.210391043e+00,5.77403e-18,6.11224e-18,9.88128e-01,9.50944e-01,9.99999e-01
1.216442998e+00,8.51855e-16,9.00558e-16,9.89901e-01,9.51889e-01,9.99999e-01
1.222525213e+00,1.48748e-15,1.56772e-15,9.92130e-01,9.52817e-01,9.99999e-01
1.228637839e+00,6.25294e-12,6.58219e-12,9.94529e-01,9.53727e-01,9.99999e-01
1.234781029e+00,1.87179e-08,1.96444e-08,9.95937e-01,9.54620e-01,9.99999e-01
1.240954934e+00,9.71683e-06,1.01872e-05,9.97428e-01,9.55496e-01,9.99999e-01
1.247159708e+00,1.51485e-03,1.58635e-03,9.97998e-01,9.56355e-01,9.99999e-01
1.253395507e+00,2.84469e-02,2.97631e-02,9.98221e-01,9.57199e-01,9.99999e-01
1.259662485e+00,1.30996e-01,1.36941e-01,9.98309e-01,9.58026e-01,9.99999e-01
1.265960797e+00,3.02668e-01,3.16436e-01,9.97301e-01,9.58838e-01,9.99999e-01
1.272290601e+00,5.97490e-01,6.25173e-01,9.95756e-01,9.59634e-01,9.99999e-01
1.278652054e+00,5.31707e-01,5.57777e-01,9.91572e-01,9.60416e-01,9.99999e-01
1.285045314e+00,4.14139e-02,4.34575e-02,9.84740e-01,9.61182e-01,9.99999e-01
1.291470541e+00,8.66594e-03,9.19598e-03,9.73549e-01,9.61934e-01,9.99998e-01
1.297927893e+00,9.20144e-02,9.81884e-02,9.62529e-01,9.62672e-01,9.99998e-01
1.304417533e+00,3.94305e-01,4.27248e-01,9.55952e-01,9.63395e-01,9.99997e-01
1.310939621e+00,1.17027e-01,1.25452e-01,9.49582e-01,9.64105e-01,9.99996e-01
1.317494319e+00,1.33781e-06,1.43846e-06,9.45610e-01,9.64802e-01,9.99994e-01
1.324081790e+00,5.57140e-05,6.03953e-05,9.19289e-01,9.65485e-01,9.99991e-01
1.330702199e+00,4.82045e-03,6.26099e-03,6.88389e-01,9.66155e-01,9.99986e-01
1.337355710e+00,2.25655e-03,4.25344e-03,4.05005e-01,9.66812e-01,9.99974e-01
1.344042489e+00,4.18313e-04,1.61865e-03,8.10888e-02,9.67457e-01,9.99945e-01
1.350762701e+00,6.73403e-05,5.06271e-03,7.49441e-03,9.68089e-01,9.99912e-01
1.357516515e+00,8.52083e-05,3.03723e-02,1.65081e-03,9.68710e-01,9.99892e-01
1.364304097e+00,1.79690e-03,1.15621e-01,1.23434e-02,9.69318e-01,9.99884e-01
1.371125618e+00,1.99217e-02,3.18919e-01,5.42565e-02,9.69915e-01,9.99883e-01
1.377981246e+00,3.41987e-02,4.02998e-01,8.13326e-02,9.70500e-01,9.99874e-01
1.384871152e+00,6.27652e-03,5.89236e-01,1.01685e-02,9.71074e-01,9.99878e-01
1.391795508e+00,1.05186e-02,6.13712e-01,1.65506e-02,9.71637e-01,9.99896e-01
1.398754485e+00,2.02615e-02,7.40911e-01,2.75176e-02,9.72190e-01,9.99911e-01
1.405748258e+00,2.09824e-02,8.01411e-01,2.60489e-02,9.72732e-01,9.99920e-01
1.412776999e+00,2.59881e-02,8.69831e-01,3.01545e-02,9.73263e-01,9.99935e-01
1.419840884e+00,3.19228e-02,8.11346e-01,3.65105e-02,9.73784e-01,9.99952e-01
1.426940089e+00,2.02285e-02,1.15276e-01,7.76601e-02,9.74295e-01,9.99970e-01
1.434074789e+00,1.35568e-248,4.23774e-248,1.39903e-01,9.74796e-01,9.99981e-01
1.441245163e+00,0.00000e+00,0.00000e+00,2.37359e-01,9.75288e-01,9.99985e-01
1.448451389e+00,5.56492e-301,9.53824e-301,3.54888e-01,9.75770e-01,9.99987e-01
1.455693646e+00,5.35066e-135,7.62002e-135,5.17309e-01,9.76243e-01,9.99989e-01
1.462972114e+00,3.59361e-66,5.11552e-66,5.70047e-01,9.76707e-01,9.99991e-01
1.470286975e+00,1.21691e-28,1.77922e-28,5.17445e-01,9.77162e-01,9.99992e-01
