#,Wave/freq,Total,CO2,H2O,Rayleigh,CIA
4.000000000e-01,1.78570e-09,9.99999e-01,9.99960e-01,1.78577e-09,9.99999e-01
4.020000000e-01,2.65946e-09,9.99999e-01,9.99974e-01,2.65952e-09,9.99999e-01
4.040100000e-01,3.92808e-09,9.99999e-01,9.99989e-01,3.92813e-09,9.99999e-01
4.060300500e-01,5.75731e-09,9.99999e-01,9.99997e-01,5.75733e-09,9.99999e-01
4.080602003e-01,8.37484e-09,9.99999e-01,9.99998e-01,8.37485e-09,9.99999e-01
4.101005013e-01,1.20926e-08,9.99999e-01,9.99999e-01,1.20926e-08,9.99999e-01
4.121510038e-01,1.73343e-08,9.99999e-01,9.99998e-01,1.73344e-08,9.99999e-01
4.142117588e-01,2.46720e-08,9.99999e-01,9.99988e-01,2.46723e-08,9.99999e-01
4.162828176e-01,3.48707e-08,9.99999e-01,9.99950e-01,3.48724e-08,9.99999e-01
4.183642317e-01,4.89523e-08,9.99999e-01,9.99970e-01,4.89538e-08,9.99999e-01
4.204560528e-01,6.82611e-08,9.99999e-01,9.99981e-01,6.82623e-08,9.99999e-01
4.225583331e-01,9.45629e-08,9.99999e-01,9.99992e-01,9.45635e-08,9.99999e-01
4.246711247e-01,1.30157e-07,9.99999e-01,9.99994e-01,1.30158e-07,9.99999e-01
4.267944804e-01,1.78022e-07,9.99999e-01,9.99991e-01,1.78023e-07,9.99999e-01
4.289284528e-01,2.41988e-07,9.99999e-01,9.99993e-01,2.41989e-07,9.99999e-01
4.310730950e-01,3.26950e-07,9.99999e-01,9.99996e-01,3.26951e-07,9.99999e-01
4.332284605e-01,4.39124e-07,9.99999e-01,9.99998e-01,4.39125e-07,9.99999e-01
4.353946028e-01,5.86357e-07,9.99999e-01,9.99999e-01,5.86358e-07,9.99999e-01
4.375715758e-01,7.78493e-07,9.99999e-01,9.99994e-01,7.78497e-07,9.99999e-01
4.397594337e-01,1.02778e-06,9.99999e-01,9.99957e-01,1.02783e-06,9.99999e-01
4.419582309e-01,1.34929e-06,9.99999e-01,9.99784e-01,1.34958e-06,9.99999e-01
4.441680220e-01,1.76225e-06,9.99999e-01,9.99828e-01,1.76255e-06,9.99999e-01
4.463888621e-01,2.28938e-06,9.99999e-01,9.99822e-01,2.28979e-06,9.99999e-01
4.486208064e-01,2.95907e-06,9.99999e-01,9.99889e-01,2.95940e-06,9.99999e-01
4.508639105e-01,3.80529e-06,9.99999e-01,9.99947e-01,3.80549e-06,9.99999e-01
4.531182300e-01,4.86914e-06,9.99999e-01,9.99979e-01,4.86924e-06,9.99999e-01
4.553838212e-01,6.19999e-06,9.99999e-01,9.99985e-01,6.20007e-06,9.99999e-01
4.576607403e-01,7.85700e-06,9.99999e-01,9.99993e-01,7.85705e-06,9.99999e-01
4.599490440e-01,9.91035e-06,9.99999e-01,9.99994e-01,9.91040e-06,9.99999e-01
4.622487892e-01,1.24431e-05,9.99999e-01,9.99998e-01,1.24432e-05,9.99999e-01
4.645600332e-01,1.55531e-05,9.99999e-01,9.99996e-01,1.55531e-05,9.99999e-01
4.668828333e-01,1.93539e-05,9.99999e-01,9.99947e-01,1.93549e-05,9.99999e-01
4.692172475e-01,2.39795e-05,9.99999e-01,9.99888e-01,2.39822e-05,9.99999e-01
4.715633337e-01,2.95880e-05,9.99999e-01,9.99927e-01,2.95902e-05,9.99999e-01
4.739211504e-01,3.63558e-05,9.99999e-01,9.99929e-01,3.63583e-05,9.99999e-01
4.762907561e-01,4.44915e-05,9.99999e-01,9.99963e-01,4.44931e-05,9.99999e-01
4.786722099e-01,5.42305e-05,9.99999e-01,9.99984e-01,5.42313e-05,9.99999e-01
4.810655710e-01,6.58426e-05,9.99999e-01,9.99995e-01,6.58429e-05,9.99999e-01
4.834708988e-01,7.96316e-05,9.99999e-01,9.99957e-01,7.96349e-05,9.99999e-01
4.858882533e-01,9.59473e-05,9.99999e-01,9.99920e-01,9.59549e-05,9.99999e-01
4.883176946e-01,1.15187e-04,9.99999e-01,9.99934e-01,1.15194e-04,9.99999e-01
4.907592831e-01,1.37785e-04,9.99999e-01,9.99939e-01,1.37793e-04,9.99999e-01
4.932130795e-01,1.64236e-04,9.99999e-01,9.99957e-01,1.64243e-04,9.99999e-01
4.956791449e-01,1.95088e-04,9.99999e-01,9.99977e-01,1.95093e-04,9.99999e-01
4.981575406e-01,2.30924e-04,9.99999e-01,9.99888e-01,2.30950e-04,9.99999e-01
5.006483283e-01,2.72410e-04,9.99999e-01,9.99713e-01,2.72488e-04,9.99999e-01
5.031515699e-01,3.19980e-04,9.99999e-01,9.98537e-01,3.20448e-04,9.99999e-01
5.056673278e-01,3.75355e-04,9.99999e-01,9.99225e-01,3.75645e-04,9.99999e-01
5.081956644e-01,4.38541e-04,9.99999e-01,9.99022e-01,4.38970e-04,9.99999e-01
5.107366428e-01,5.11055e-04,9.99999e-01,9.99339e-01,5.11393e-04,9.99999e-01
5.132903260e-01,5.93746e-04,9.99999e-01,9.99621e-01,5.93971e-04,9.99999e-01
5.158567776e-01,6.87736e-04,9.99999e-01,9.99839e-01,6.87846e-04,9.99999e-01
5.184360615e-01,7.94202e-04,9.99999e-01,9.99935e-01,7.94252e-04,9.99999e-01
5.210282418e-01,9.14496e-04,9.99999e-01,9.99975e-01,9.14518e-04,9.99999e-01
5.236333830e-01,1.04996e-03,9.99999e-01,9.99904e-01,1.05006e-03,9.99999e-01
5.262515499e-01,1.20234e-03,9.99999e-01,9.99939e-01,1.20242e-03,9.99999e-01
5.288828077e-01,1.37311e-03,9.99999e-01,9.99944e-01,1.37319e-03,9.99999e-01
5.315272217e-01,1.56403e-03,9.99999e-01,9.99951e-01,1.56411e-03,9.99999e-01
5.341848578e-01,1.77695e-03,9.99999e-01,9.99968e-01,1.77700e-03,9.99999e-01
5.368557821e-01,2.01356e-03,9.99999e-01,9.99888e-01,2.01378e-03,9.99999e-01
5.395400610e-01,2.27558e-03,9.99999e-01,9.99602e-01,2.27649e-03,9.99999e-01
5.422377613e-01,2.56590e-03,9.99999e-01,9.99479e-01,2.56724e-03,9.99999e-01
5.449489501e-01,2.88687e-03,9.99999e-01,9.99519e-01,2.88825e-03,9.99999e-01
5.476736949e-01,3.24047e-03,9.99999e-01,9.99570e-01,3.24186e-03,9.99999e-01
5.504120634e-01,3.62934e-03,9.99999e-01,9.99688e-01,3.63046e-03,9.99999e-01
5.531641237e-01,4.05594e-03,9.99999e-01,9.99842e-01,4.05657e-03,9.99999e-01
5.559299443e-01,4.52242e-03,9.99999e-01,9.99923e-01,4.52276e-03,9.99999e-01
5.587095940e-01,5.03147e-03,9.99999e-01,9.99952e-01,5.03171e-03,9.99999e-01
5.615031420e-01,5.58585e-03,9.99999e-01,9.99946e-01,5.58614e-03,9.99999e-01
5.643106577e-01,6.18852e-03,9.99999e-01,9.99940e-01,6.18888e-03,9.99999e-01
5.671322110e-01,6.83792e-03,9.99999e-01,9.99287e-01,6.84279e-03,9.99999e-01
5.699678720e-01,7.54494e-03,9.99999e-01,9.99223e-01,7.55080e-03,9.99999e-01
5.728177114e-01,8.30921e-03,9.99999e-01,9.99198e-01,8.31587e-03,9.99999e-01
5.756818000e-01,9.13429e-03,9.99999e-01,9.99263e-01,9.14102e-03,9.99999e-01
5.785602090e-01,1.00228e-02,9.99999e-01,9.99356e-01,1.00293e-02,9.99999e-01
5.814530100e-01,1.09767e-02,9.99999e-01,9.99354e-01,1.09837e-02,9.99999e-01
5.843602750e-01,1.19983e-02,9.99999e-01,9.99236e-01,1.20074e-02,9.99999e-01
5.872820764e-01,1.30174e-02,9.99999e-01,9.93431e-01,1.31035e-02,9.99999e-01
5.902184868e-01,1.41604e-02,9.99999e-01,9.91978e-01,1.42749e-02,9.99999e-01
5.931695792e-01,1.54369e-02,9.99999e-01,9.94344e-01,1.55247e-02,9.99999e-01
5.961354271e-01,1.67513e-02,9.99999e-01,9.93788e-01,1.68560e-02,9.99999e-01
5.991161043e-01,1.81889e-02,9.99999e-01,9.95462e-01,1.82718e-02,9.99999e-01
6.021116848e-01,1.97239e-02,9.99999e-01,9.97419e-01,1.97750e-02,9.99999e-01
6.051222432e-01,2.13405e-02,9.99999e-01,9.98693e-01,2.13684e-02,9.99999e-01
6.081478544e-01,2.30419e-02,9.99999e-01,9.99436e-01,2.30549e-02,9.99999e-01
6.111885937e-01,2.48312e-02,9.99999e-01,9.99760e-01,2.48372e-02,9.99999e-01
6.142445367e-01,2.67151e-02,9.99999e-01,9.99893e-01,2.67179e-02,9.99999e-01
6.173157594e-01,2.86980e-02,9.99999e-01,9.99940e-01,2.86997e-02,9.99999e-01
6.204023382e-01,3.07834e-02,9.99999e-01,9.99950e-01,3.07849e-02,9.99999e-01
6.235043498e-01,3.29689e-02,9.99999e-01,9.99784e-01,3.29759e-02,9.99999e-01
6.266218716e-01,3.52343e-02,9.99999e-01,9.98845e-01,3.52750e-02,9.99999e-01
6.297549810e-01,3.76681e-02,9.99999e-01,9.99576e-01,3.76840e-02,9.99999e-01
6.329037559e-01,4.01715e-02,9.99999e-01,9.99161e-01,4.02052e-02,9.99999e-01
6.360682746e-01,4.28097e-02,9.99999e-01,9.99288e-01,4.28401e-02,9.99999e-01
6.392486160e-01,4.55485e-02,9.99999e-01,9.99076e-01,4.55906e-02,9.99999e-01
6.424448591e-01,4.83986e-02,9.99999e-01,9.98772e-01,4.84580e-02,9.99999e-01
6.456570834e-01,5.11511e-02,9.99999e-01,9.94309e-01,5.14438e-02,9.99999e-01
6.488853688e-01,5.42801e-02,9.99999e-01,9.95068e-01,5.45491e-02,9.99999e-01
6.521297956e-01,5.75272e-02,9.99999e-01,9.95712e-01,5.77749e-02,9.99999e-01
6.553904446e-01,6.08632e-02,9.99999e-01,9.95765e-01,6.11220e-02,9.99999e-01
6.586673968e-01,6.43549e-02,9.99999e-01,9.96340e-01,6.45912e-02,9.99999e-01
6.619607338e-01,6.80386e-02,9.99999e-01,9.97883e-01,6.81829e-02,9.99999e-01
6.652705375e-01,7.18091e-02,9.99999e-01,9.98771e-01,7.18974e-02,9.99999e-01
6.685968902e-01,7.56917e-02,9.99999e-01,9.99429e-01,7.57349e-02,9.99999e-01
6.719398746e-01,7.96742e-02,9.99999e-01,9.99734e-01,7.96953e-02,9.99999e-01
6.752995740e-01,8.37664e-02,9.99999e-01,9.99856e-01,8.37784e-02,9.99999e-01
6.786760719e-01,8.79658e-02,9.99999e-01,9.99794e-01,8.79838e-02,9.99999e-01
6.820694522e-01,9.22785e-02,9.99999e-01,9.99647e-01,9.23110e-02,9.99999e-01
6.854797995e-01,9.67153e-02,9.99999e-01,9.99546e-01,9.67592e-02,9.99999e-01
6.889071985e-01,1.01218e-01,9.99999e-01,9.98916e-01,1.01327e-01,9.99999e-01
6.923517345e-01,1.04136e-01,9.99999e-01,9.82274e-01,1.06015e-01,9.99999e-01
6.958134932e-01,1.09777e-01,9.99999e-01,9.90586e-01,1.10820e-01,9.99999e-01
6.992925606e-01,1.14723e-01,9.99999e-01,9.91202e-01,1.15742e-01,9.99999e-01
7.027890234e-01,1.19458e-01,9.99999e-01,9.89072e-01,1.20778e-01,9.99999e-01
7.063029686e-01,1.24770e-01,9.99999e-01,9.90811e-01,1.25927e-01,9.99999e-01
7.098344834e-01,1.30032e-01,9.99999e-01,9.91181e-01,1.31188e-01,9.99999e-01
7.133836558e-01,1.34974e-01,9.99999e-01,9.88398e-01,1.36559e-01,9.99999e-01
7.169505741e-01,1.29280e-01,9.99999e-01,9.10193e-01,1.42036e-01,9.99998e-01
7.205353270e-01,1.40866e-01,9.99999e-01,9.54255e-01,1.47619e-01,9.99998e-01
7.241380036e-01,1.44558e-01,9.99999e-01,9.42953e-01,1.53304e-01,9.99998e-01
7.277586936e-01,1.50870e-01,9.99999e-01,9.48340e-01,1.59089e-01,9.99998e-01
7.313974871e-01,1.55865e-01,9.99999e-01,9.44799e-01,1.64972e-01,9.99998e-01
7.350544745e-01,1.65735e-01,9.99999e-01,9.69498e-01,1.70949e-01,9.99999e-01
7.387297469e-01,1.73026e-01,9.99999e-01,9.77440e-01,1.77019e-01,9.99999e-01
7.424233956e-01,1.81140e-01,9.99999e-01,9.88875e-01,1.83178e-01,9.99999e-01
7.461355126e-01,1.88146e-01,9.99999e-01,9.93254e-01,1.89423e-01,9.99999e-01
7.498661902e-01,1.95135e-01,9.99999e-01,9.96847e-01,1.95752e-01,9.99999e-01
7.536155211e-01,2.01849e-01,9.99999e-01,9.98456e-01,2.02161e-01,9.99999e-01
7.573835987e-01,2.08481e-01,9.99999e-01,9.99204e-01,2.08646e-01,9.99999e-01
7.611705167e-01,2.15100e-01,9.99999e-01,9.99505e-01,2.15206e-01,9.99999e-01
7.649763693e-01,2.21767e-01,9.99999e-01,9.99690e-01,2.21836e-01,9.99999e-01
7.688012511e-01,2.28484e-01,9.99999e-01,9.99784e-01,2.28533e-01,9.99999e-01
7.726452574e-01,2.35253e-01,9.99999e-01,9.99822e-01,2.35295e-01,9.99999e-01
7.765084837e-01,2.42056e-01,9.99999e-01,9.99749e-01,2.42116e-01,9.99999e-01
7.803910261e-01,2.34394e-01,9.42320e-01,9.98922e-01,2.48995e-01,9.99999e-01
7.842929812e-01,1.91390e-01,7.50404e-01,9.96243e-01,2.55928e-01,9.99999e-01
7.882144461e-01,1.92617e-01,7.37977e-01,9.92217e-01,2.62911e-01,9.99999e-01
7.921555184e-01,2.24160e-01,8.33828e-01,9.95707e-01,2.69941e-01,9.99999e-01
7.961162960e-01,2.43136e-01,8.84214e-01,9.92496e-01,2.77015e-01,9.99999e-01
8.000968774e-01,2.63503e-01,9.35508e-01,9.91292e-01,2.84129e-01,9.99999e-01
8.040973618e-01,2.78912e-01,9.65910e-01,9.91300e-01,2.91279e-01,9.99999e-01
8.081178486e-01,2.88084e-01,9.84257e-01,9.80611e-01,2.98463e-01,9.99999e-01
8.121584379e-01,2.80351e-01,9.95076e-01,9.21597e-01,3.05677e-01,9.99998e-01
8.162192301e-01,2.83490e-01,9.98910e-01,9.06912e-01,3.12918e-01,9.99998e-01
8.203003262e-01,3.05281e-01,9.99981e-01,9.53475e-01,3.20182e-01,9.99998e-01
8.244018279e-01,3.05996e-01,9.99999e-01,9.34436e-01,3.27466e-01,9.99998e-01
8.285238370e-01,3.15883e-01,9.99999e-01,9.43590e-01,3.34767e-01,9.99998e-01
8.326664562e-01,3.22523e-01,9.99999e-01,9.42824e-01,3.42082e-01,9.99998e-01
8.368297885e-01,3.34977e-01,9.99999e-01,9.58698e-01,3.49408e-01,9.99999e-01
8.410139374e-01,3.47907e-01,9.99999e-01,9.75238e-01,3.56741e-01,9.99999e-01
8.452190071e-01,3.59625e-01,9.99999e-01,9.87768e-01,3.64078e-01,9.99999e-01
8.494451021e-01,3.68784e-01,9.99999e-01,9.92908e-01,3.71418e-01,9.99999e-01
8.536923276e-01,3.77160e-01,9.99999e-01,9.95788e-01,3.78755e-01,9.99999e-01
8.579607893e-01,3.85090e-01,9.99999e-01,9.97411e-01,3.86089e-01,9.99999e-01
8.622505932e-01,3.92767e-01,9.99999e-01,9.98351e-01,3.93415e-01,9.99999e-01
8.665618462e-01,3.59001e-01,8.96726e-01,9.98983e-01,4.00732e-01,9.99999e-01
8.708946554e-01,1.99803e-01,4.90205e-01,9.98838e-01,4.08036e-01,9.99999e-01
8.752491287e-01,2.30718e-01,5.56334e-01,9.98445e-01,4.15325e-01,9.99999e-01
8.796253743e-01,3.04067e-01,7.20986e-01,9.97853e-01,4.22596e-01,9.99999e-01
8.840235012e-01,3.61403e-01,8.42780e-01,9.97546e-01,4.29848e-01,9.99999e-01
8.884436187e-01,4.04881e-01,9.34398e-01,9.91216e-01,4.37077e-01,9.99999e-01
8.928858368e-01,3.93761e-01,9.72923e-01,9.10545e-01,4.44281e-01,9.99998e-01
8.973502660e-01,3.79614e-01,9.93318e-01,8.46302e-01,4.51458e-01,9.99997e-01
9.018370173e-01,4.20646e-01,9.99260e-01,9.17869e-01,4.58606e-01,9.99997e-01
9.063462024e-01,4.24904e-01,9.81857e-01,9.28206e-01,4.65722e-01,9.99996e-01
9.108779334e-01,4.03342e-01,9.57715e-01,8.89867e-01,4.72805e-01,9.99996e-01
9.154323231e-01,4.16009e-01,9.89826e-01,8.75503e-01,4.79853e-01,9.99996e-01
9.200094847e-01,3.86311e-01,8.72279e-01,9.01023e-01,4.86863e-01,9.99995e-01
9.246095321e-01,3.43718e-01,8.10041e-01,8.53860e-01,4.93834e-01,9.99992e-01
9.292325798e-01,1.54709e-01,8.50171e-01,3.53865e-01,5.00765e-01,9.99984e-01
9.338787427e-01,1.15553e-01,8.52947e-01,2.60037e-01,5.07653e-01,9.99979e-01
9.385481364e-01,2.67911e-01,8.89297e-01,5.78833e-01,5.14497e-01,9.99978e-01
9.432408771e-01,2.33350e-01,9.30333e-01,4.78035e-01,5.21295e-01,9.99976e-01
9.479570815e-01,1.85466e-01,9.63705e-01,3.63303e-01,5.28046e-01,9.99979e-01
9.526968669e-01,2.41781e-01,9.82314e-01,4.59130e-01,5.34749e-01,9.99984e-01
9.574603512e-01,2.58394e-01,9.92392e-01,4.80501e-01,5.41401e-01,9.99988e-01
9.622476530e-01,2.99137e-01,9.97618e-01,5.47032e-01,5.48003e-01,9.99991e-01
9.670588912e-01,3.90984e-01,9.99284e-01,7.05504e-01,5.54552e-01,9.99994e-01
9.718941857e-01,4.50096e-01,9.99948e-01,8.02279e-01,5.61048e-01,9.99996e-01
9.767536566e-01,4.72611e-01,9.99999e-01,8.32809e-01,5.67490e-01,9.99997e-01
9.816374249e-01,5.00833e-01,9.99999e-01,8.72720e-01,5.73876e-01,9.99998e-01
9.865456120e-01,5.32827e-01,9.99999e-01,9.18342e-01,5.80206e-01,9.99998e-01
9.914783401e-01,5.56389e-01,9.99999e-01,9.48694e-01,5.86478e-01,9.99999e-01
9.964357318e-01,5.75930e-01,9.99999e-01,9.71718e-01,5.92693e-01,9.99999e-01
1.001417910e+00,5.88637e-01,9.99999e-01,9.82947e-01,5.98848e-01,9.99999e-01
1.006425000e+00,5.99053e-01,9.99999e-01,9.90261e-01,6.04944e-01,9.99999e-01
1.011457125e+00,6.07272e-01,9.99999e-01,9.93931e-01,6.10980e-01,9.99999e-01
1.016514411e+00,6.14414e-01,9.99999e-01,9.95881e-01,6.16955e-01,9.99999e-01
1.021596983e+00,6.20770e-01,9.99909e-01,9.96719e-01,6.22869e-01,9.99999e-01
1.026704968e+00,6.22645e-01,9.92869e-01,9.97442e-01,6.28720e-01,9.99999e-01
1.031838492e+00,5.91659e-01,9.34135e-01,9.98136e-01,6.34510e-01,9.99999e-01
1.036997685e+00,5.37846e-02,8.40784e-02,9.98895e-01,6.40237e-01,9.99999e-01
1.042182673e+00,1.38738e-02,2.15029e-02,9.98686e-01,6.45901e-01,9.99999e-01
1.047393587e+00,2.57383e-02,3.95652e-02,9.98256e-01,6.51502e-01,9.99999e-01
1.052630555e+00,5.24401e-05,7.99408e-05,9.97610e-01,6.57039e-01,9.99999e-01
1.057893707e+00,1.77004e-04,2.67785e-04,9.96018e-01,6.62513e-01,9.99999e-01
1.063183176e+00,1.45176e-03,2.18257e-03,9.93448e-01,6.67923e-01,9.99999e-01
1.068499092e+00,7.81776e-03,1.17079e-02,9.89040e-01,6.73269e-01,9.99999e-01
1.073841587e+00,3.92955e-02,5.84947e-02,9.87210e-01,6.78550e-01,9.99999e-01
1.079210795e+00,1.12054e-01,1.66185e-01,9.83588e-01,6.83768e-01,9.99999e-01
1.084606849e+00,2.46629e-01,3.66295e-01,9.75301e-01,6.88921e-01,9.99998e-01
1.090029883e+00,3.97478e-01,5.92476e-01,9.64899e-01,6.94011e-01,9.99998e-01
1.095480033e+00,4.90543e-01,7.72056e-01,9.07101e-01,6.99036e-01,9.99997e-01
1.100957433e+00,4.86719e-01,8.82558e-01,7.81445e-01,7.03997e-01,9.99995e-01
1.106462220e+00,3.65049e-01,9.49564e-01,5.40521e-01,7.08895e-01,9.99990e-01
1.111994531e+00,1.94993e-01,9.80991e-01,2.77847e-01,7.13729e-01,9.99980e-01
1.117554504e+00,9.32105e-02,9.95307e-01,1.30160e-01,7.18499e-01,9.99973e-01
1.123142276e+00,1.70603e-01,9.99689e-01,2.35925e-01,7.23206e-01,9.99968e-01
1.128757988e+00,2.78152e-01,9.99999e-01,3.82169e-01,7.27851e-01,9.99965e-01
1.134401778e+00,1.30904e-01,9.99999e-01,1.78732e-01,7.32432e-01,9.99961e-01
1.140073787e+00,4.09311e-01,9.99999e-01,5.55428e-01,7.36951e-01,9.99968e-01
1.145774156e+00,2.25401e-01,9.99999e-01,3.04025e-01,7.41407e-01,9.99973e-01
1.151503026e+00,2.00564e-01,9.99999e-01,2.68929e-01,7.45802e-01,9.99977e-01
1.157260541e+00,2.39850e-01,9.99999e-01,3.19748e-01,7.50135e-01,9.99982e-01
1.163046844e+00,3.22584e-01,9.99999e-01,4.27603e-01,7.54407e-01,9.99988e-01
1.168862078e+00,4.16658e-01,9.99999e-01,5.49235e-01,7.58618e-01,9.99994e-01
1.174706389e+00,5.26811e-01,9.99999e-01,6.90657e-01,7.62769e-01,9.99996e-01
1.180579921e+00,6.11679e-01,9.99999e-01,7.97642e-01,7.66860e-01,9.99997e-01
1.186482820e+00,6.78242e-01,9.99989e-01,8.79823e-01,7.70892e-01,9.99998e-01
1.192415234e+00,7.01656e-01,9.75267e-01,9.27983e-01,7.74864e-01,9.99998e-01
1.198377311e+00,4.00297e-01,5.41704e-01,9.39057e-01,7.78778e-01,9.99998e-01
1.204369197e+00,9.97038e-20,1.31854e-19,9.42264e-01,7.82633e-01,9.99998e-01
1.210391043e+00,2.73505e-77,3.58953e-77,9.44663e-01,7.86431e-01,9.99998e-01
1.216442998e+00,5.37691e-67,7.01174e-67,9.52645e-01,7.90172e-01,9.99999e-01
1.222525213e+00,5.35000e-66,6.87136e-66,9.62940e-01,7.93857e-01,9.99999e-01
1.228637839e+00,4.85655e-51,6.19892e-51,9.74132e-01,7.97485e-01,9.99999e-01
1.234781029e+00,4.16934e-32,5.24867e-32,9.80710e-01,8.01057e-01,9.99999e-01
1.240954934e+00,1.80063e-21,2.25526e-21,9.87770e-01,8.04575e-01,9.99999e-01
1.247159708e+00,7.89338e-11,9.82384e-11,9.90457e-01,8.08038e-01,9.99999e-01
1.253395507e+00,2.78539e-07,3.45347e-07,9.91534e-01,8.11447e-01,9.99999e-01
1.259662485e+00,9.53673e-05,1.17740e-04,9.92035e-01,8.14803e-01,9.99999e-01
1.265960797e+00,6.44289e-03,7.94371e-03,9.87225e-01,8.18106e-01,9.99999e-01
1.272290601e+00,7.99322e-02,9.88576e-02,9.81244e-01,8.21356e-01,9.99999e-01
1.278652054e+00,8.14086e-02,1.01568e-01,9.60775e-01,8.24555e-01,9.99998e-01
1.285045314e+00,5.14755e-04,6.41319e-04,9.39088e-01,8.27703e-01,9.99998e-01
1.291470541e+00,1.39340e-09,1.80388e-09,8.81192e-01,8.30801e-01,9.99997e-01
1.297927893e+00,1.26433e-04,1.63595e-04,8.47994e-01,8.33848e-01,9.99995e-01
1.304417533e+00,1.36071e-02,1.93685e-02,8.08700e-01,8.36846e-01,9.99991e-01
1.310939621e+00,3.46881e-03,4.75188e-03,7.85066e-01,8.39796e-01,9.99985e-01
1.317494319e+00,8.62882e-27,1.18331e-26,7.68085e-01,8.42697e-01,9.99976e-01
1.324081790e+00,6.58263e-18,9.31128e-18,6.76463e-01,8.45551e-01,9.99961e-01
1.330702199e+00,7.63273e-11,1.62945e-10,2.67214e-01,8.48357e-01,9.99936e-01
1.337355710e+00,5.17905e-11,7.51628e-10,2.55325e-02,8.51117e-01,9.99878e-01
1.344042489e+00,6.63941e-12,3.13464e-10,7.97837e-04,8.53832e-01,9.99740e-01
1.350762701e+00,7.91733e-18,8.55903e-11,1.50494e-08,8.56501e-01,9.99585e-01
1.357516515e+00,2.33330e-17,6.68046e-07,3.11984e-12,8.59126e-01,9.99487e-01
1.364304097e+00,1.36345e-11,5.52668e-05,7.21393e-08,8.61706e-01,9.99450e-01
1.371125618e+00,3.25130e-07,6.51188e-03,2.39121e-05,8.64243e-01,9.99445e-01
1.377981246e+00,1.81042e-06,1.40290e-02,7.96572e-05,8.66738e-01,9.99404e-01
1.384871152e+00,5.95332e-08,8.34255e-02,5.25050e-07,8.69190e-01,9.99410e-01
1.391795508e+00,1.20903e-08,1.00530e-01,8.05029e-08,8.71600e-01,9.99495e-01
1.398754485e+00,5.11444e-07,2.39129e-01,2.05723e-06,8.73969e-01,9.99578e-01
1.405748258e+00,8.27179e-07,3.50386e-01,2.21670e-06,8.76298e-01,9.99621e-01
1.412776999e+00,1.13685e-06,5.13947e-01,2.07919e-06,8.78586e-01,9.99696e-01
1.419840884e+00,2.45042e-06,4.68267e-01,4.41880e-06,8.80835e-01,9.99773e-01
1.426940089e+00,3.28989e-05,2.54686e-02,9.62773e-05,8.83046e-01,9.99859e-01
1.434074789e+00,0.00000e+00,0.00000e+00,6.74775e-04,8.85218e-01,9.99912e-01
1.441245163e+00,0.00000e+00,0.00000e+00,2.75098e-03,8.87352e-01,9.99931e-01
1.448451389e+00,0.00000e+00,0.00000e+00,1.66138e-02,8.89449e-01,9.99943e-01
1.455693646e+00,0.00000e+00,0.00000e+00,6.06263e-02,8.91510e-01,9.99952e-01
1.462972114e+00,1.86131e-307,1.00462e-306,8.47078e-02,8.93535e-01,9.99959e-01
1.470286975e+00,2.72226e-128,1.66074e-127,5.71261e-02,8.95524e-01,9.99963e-01
