#,Wave/freq,Total,CO2,H2O,Rayleigh,CIA
4.000000000e-01,1.41829e-02,9.99999e-01,9.99991e-01,1.41831e-02,9.99999e-01
4.020000000e-01,1.54281e-02,9.99999e-01,9.99994e-01,1.54282e-02,9.99999e-01
4.040100000e-01,1.67532e-02,9.99999e-01,9.99997e-01,1.67533e-02,9.99999e-01
4.060300500e-01,1.81626e-02,9.99999e-01,9.99998e-01,1.81626e-02,9.99999e-01
4.080602003e-01,1.96591e-02,9.99999e-01,9.99999e-01,1.96591e-02,9.99999e-01
4.101005013e-01,2.12457e-02,9.99999e-01,9.99999e-01,2.12457e-02,9.99999e-01
4.121510038e-01,2.29251e-02,9.99999e-01,9.99999e-01,2.29251e-02,9.99999e-01
4.142117588e-01,2.47000e-02,9.99999e-01,9.99997e-01,2.47001e-02,9.99999e-01
4.162828176e-01,2.65731e-02,9.99999e-01,9.99989e-01,2.65734e-02,9.99999e-01
4.183642317e-01,2.85473e-02,9.99999e-01,9.99993e-01,2.85475e-02,9.99999e-01
4.204560528e-01,3.06247e-02,9.99999e-01,9.99995e-01,3.06249e-02,9.99999e-01
4.225583331e-01,3.28078e-02,9.99999e-01,9.99998e-01,3.28079e-02,9.99999e-01
4.246711247e-01,3.50987e-02,9.99999e-01,9.99998e-01,3.50987e-02,9.99999e-01
4.267944804e-01,3.74994e-02,9.99999e-01,9.99997e-01,3.74995e-02,9.99999e-01
4.289284528e-01,4.00121e-02,9.99999e-01,9.99998e-01,4.00121e-02,9.99999e-01
4.310730950e-01,4.26385e-02,9.99999e-01,9.99998e-01,4.26385e-02,9.99999e-01
4.332284605e-01,4.53802e-02,9.99999e-01,9.99999e-01,4.53802e-02,9.99999e-01
4.353946028e-01,4.82388e-02,9.99999e-01,9.99999e-01,4.82388e-02,9.99999e-01
4.375715758e-01,5.12156e-02,9.99999e-01,9.99998e-01,5.12157e-02,9.99999e-01
4.397594337e-01,5.43115e-02,9.99999e-01,9.99990e-01,5.43120e-02,9.99999e-01
4.419582309e-01,5.75260e-02,9.99999e-01,9.99953e-01,5.75287e-02,9.99999e-01
4.441680220e-01,6.08645e-02,9.99999e-01,9.99963e-01,6.08667e-02,9.99999e-01
4.463888621e-01,6.43243e-02,9.99999e-01,9.99962e-01,6.43267e-02,9.99999e-01
4.486208064e-01,6.79076e-02,9.99999e-01,9.99976e-01,6.79092e-02,9.99999e-01
4.508639105e-01,7.16137e-02,9.99999e-01,9.99988e-01,7.16145e-02,9.99999e-01
4.531182300e-01,7.54424e-02,9.99999e-01,9.99995e-01,7.54427e-02,9.99999e-01
4.553838212e-01,7.93937e-02,9.99999e-01,9.99996e-01,7.93939e-02,9.99999e-01
4.576607403e-01,8.34677e-02,9.99999e-01,9.99998e-01,8.34678e-02,9.99999e-01
4.599490440e-01,8.76640e-02,9.99999e-01,9.99998e-01,8.76641e-02,9.99999e-01
4.622487892e-01,9.19822e-02,9.99999e-01,9.99999e-01,9.19822e-02,9.99999e-01
4.645600332e-01,9.64213e-02,9.99999e-01,9.99998e-01,9.64213e-02,9.99999e-01
4.668828333e-01,1.00980e-01,9.99999e-01,9.99988e-01,1.00981e-01,9.99999e-01
4.692172475e-01,1.05657e-01,9.99999e-01,9.99976e-01,1.05659e-01,9.99999e-01
4.715633337e-01,1.10454e-01,9.99999e-01,9.99984e-01,1.10455e-01,9.99999e-01
4.739211504e-01,1.15367e-01,9.99999e-01,9.99984e-01,1.15368e-01,9.99999e-01
4.762907561e-01,1.20395e-01,9.99999e-01,9.99991e-01,1.20396e-01,9.99999e-01
4.786722099e-01,1.25537e-01,9.99999e-01,9.99996e-01,1.25537e-01,9.99999e-01
4.810655710e-01,1.30790e-01,9.99999e-01,9.99998e-01,1.30790e-01,9.99999e-01
4.834708988e-01,1.36151e-01,9.99999e-01,9.99990e-01,1.36152e-01,9.99999e-01
4.858882533e-01,1.41619e-01,9.99999e-01,9.99982e-01,1.41622e-01,9.99999e-01
4.883176946e-01,1.47194e-01,9.99999e-01,9.99985e-01,1.47196e-01,9.99999e-01
4.907592831e-01,1.52872e-01,9.99999e-01,9.99986e-01,1.52874e-01,9.99999e-01
4.932130795e-01,1.58650e-01,9.99999e-01,9.99990e-01,1.58651e-01,9.99999e-01
4.956791449e-01,1.64526e-01,9.99999e-01,9.99994e-01,1.64527e-01,9.99999e-01
4.981575406e-01,1.70494e-01,9.99999e-01,9.99975e-01,1.70498e-01,9.99999e-01
5.006483283e-01,1.76550e-01,9.99999e-01,9.99938e-01,1.76561e-01,9.99999e-01
5.031515699e-01,1.82657e-01,9.99999e-01,9.99689e-01,1.82713e-01,9.99999e-01
5.056673278e-01,1.88921e-01,9.99999e-01,9.99836e-01,1.88952e-01,9.99999e-01
5.081956644e-01,1.95234e-01,9.99999e-01,9.99793e-01,1.95274e-01,9.99999e-01
5.107366428e-01,2.01649e-01,9.99999e-01,9.99860e-01,2.01677e-01,9.99999e-01
5.132903260e-01,2.08141e-01,9.99999e-01,9.99919e-01,2.08157e-01,9.99999e-01
5.158567776e-01,2.14704e-01,9.99999e-01,9.99965e-01,2.14711e-01,9.99999e-01
5.184360615e-01,2.21333e-01,9.99999e-01,9.99986e-01,2.21336e-01,9.99999e-01
5.210282418e-01,2.28028e-01,9.99999e-01,9.99994e-01,2.28029e-01,9.99999e-01
5.236333830e-01,2.34780e-01,9.99999e-01,9.99979e-01,2.34785e-01,9.99999e-01
5.262515499e-01,2.41600e-01,9.99999e-01,9.99986e-01,2.41603e-01,9.99999e-01
5.288828077e-01,2.48474e-01,9.99999e-01,9.99987e-01,2.48477e-01,9.99999e-01
5.315272217e-01,2.55404e-01,9.99999e-01,9.99989e-01,2.55406e-01,9.99999e-01
5.341848578e-01,2.62384e-01,9.99999e-01,9.99992e-01,2.62386e-01,9.99999e-01
5.368557821e-01,2.69406e-01,9.99999e-01,9.99976e-01,2.69412e-01,9.99999e-01
5.395400610e-01,2.76459e-01,9.99999e-01,9.99914e-01,2.76483e-01,9.99999e-01
5.422377613e-01,2.83563e-01,9.99999e-01,9.99889e-01,2.83594e-01,9.99999e-01
5.449489501e-01,2.90712e-01,9.99999e-01,9.99897e-01,2.90742e-01,9.99999e-01
5.476736949e-01,2.97896e-01,9.99999e-01,9.99909e-01,2.97923e-01,9.99999e-01
5.504120634e-01,3.05115e-01,9.99999e-01,9.99933e-01,3.05135e-01,9.99999e-01
5.531641237e-01,3.12363e-01,9.99999e-01,9.99966e-01,3.12374e-01,9.99999e-01
5.559299443e-01,3.19631e-01,9.99999e-01,9.99983e-01,3.19636e-01,9.99999e-01
5.587095940e-01,3.26916e-01,9.99999e-01,9.99989e-01,3.26919e-01,9.99999e-01
5.615031420e-01,3.34215e-01,9.99999e-01,9.99988e-01,3.34219e-01,9.99999e-01
5.643106577e-01,3.41529e-01,9.99999e-01,9.99986e-01,3.41533e-01,9.99999e-01
5.671322110e-01,3.48804e-01,9.99999e-01,9.99846e-01,3.48858e-01,9.99999e-01
5.699678720e-01,3.56132e-01,9.99999e-01,9.99836e-01,3.56191e-01,9.99999e-01
5.728177114e-01,3.63466e-01,9.99999e-01,9.99829e-01,3.63528e-01,9.99999e-01
5.756818000e-01,3.70809e-01,9.99999e-01,9.99843e-01,3.70867e-01,9.99999e-01
5.785602090e-01,3.78154e-01,9.99999e-01,9.99863e-01,3.78205e-01,9.99999e-01
5.814530100e-01,3.85486e-01,9.99999e-01,9.99863e-01,3.85539e-01,9.99999e-01
5.843602750e-01,3.92802e-01,9.99999e-01,9.99837e-01,3.92866e-01,9.99999e-01
5.872820764e-01,3.99622e-01,9.99999e-01,9.98598e-01,4.00183e-01,9.99999e-01
5.902184868e-01,4.06797e-01,9.99999e-01,9.98301e-01,4.07488e-01,9.99999e-01
5.931695792e-01,4.14281e-01,9.99999e-01,9.98799e-01,4.14779e-01,9.99999e-01
5.961354271e-01,4.21497e-01,9.99999e-01,9.98684e-01,4.22052e-01,9.99999e-01
5.991161043e-01,4.28893e-01,9.99999e-01,9.99040e-01,4.29305e-01,9.99999e-01
6.021116848e-01,4.36298e-01,9.99999e-01,9.99455e-01,4.36535e-01,9.99999e-01
6.051222432e-01,4.43619e-01,9.99999e-01,9.99724e-01,4.43741e-01,9.99999e-01
6.081478544e-01,4.50867e-01,9.99999e-01,9.99880e-01,4.50920e-01,9.99999e-01
6.111885937e-01,4.58047e-01,9.99999e-01,9.99949e-01,4.58070e-01,9.99999e-01
6.142445367e-01,4.65179e-01,9.99999e-01,9.99977e-01,4.65189e-01,9.99999e-01
6.173157594e-01,4.72269e-01,9.99999e-01,9.99987e-01,4.72275e-01,9.99999e-01
6.204023382e-01,4.79320e-01,9.99999e-01,9.99989e-01,4.79325e-01,9.99999e-01
6.235043498e-01,4.86316e-01,9.99999e-01,9.99953e-01,4.86338e-01,9.99999e-01
6.266218716e-01,4.93192e-01,9.99999e-01,9.99755e-01,4.93313e-01,9.99999e-01
6.297549810e-01,5.00202e-01,9.99999e-01,9.99910e-01,5.00246e-01,9.99999e-01
6.329037559e-01,5.07048e-01,9.99999e-01,9.99822e-01,5.07138e-01,9.99999e-01
6.360682746e-01,5.13907e-01,9.99999e-01,9.99848e-01,5.13985e-01,9.99999e-01
6.392486160e-01,5.20685e-01,9.99999e-01,9.99804e-01,5.20786e-01,9.99999e-01
6.424448591e-01,5.27403e-01,9.99999e-01,9.99738e-01,5.27541e-01,9.99999e-01
6.456570834e-01,5.33599e-01,9.99999e-01,9.98785e-01,5.34247e-01,9.99999e-01
6.488853688e-01,5.40423e-01,9.99999e-01,9.99110e-01,5.40904e-01,9.99999e-01
6.521297956e-01,5.47013e-01,9.99999e-01,9.99093e-01,5.47510e-01,9.99999e-01
6.553904446e-01,5.53564e-01,9.99999e-01,9.99098e-01,5.54063e-01,9.99999e-01
6.586673968e-01,5.60130e-01,9.99999e-01,9.99227e-01,5.60563e-01,9.99999e-01
6.619607338e-01,5.66756e-01,9.99999e-01,9.99553e-01,5.67009e-01,9.99999e-01
6.652705375e-01,5.73251e-01,9.99999e-01,9.99741e-01,5.73399e-01,9.99999e-01
6.685968902e-01,5.79663e-01,9.99999e-01,9.99879e-01,5.79733e-01,9.99999e-01
6.719398746e-01,5.85977e-01,9.99999e-01,9.99943e-01,5.86010e-01,9.99999e-01
6.752995740e-01,5.92211e-01,9.99999e-01,9.99969e-01,5.92228e-01,9.99999e-01
6.786760719e-01,5.98362e-01,9.99999e-01,9.99956e-01,5.98388e-01,9.99999e-01
6.820694522e-01,6.04444e-01,9.99999e-01,9.99925e-01,6.04489e-01,9.99999e-01
6.854797995e-01,6.10471e-01,9.99999e-01,9.99903e-01,6.10529e-01,9.99999e-01
6.889071985e-01,6.16365e-01,9.99999e-01,9.99767e-01,6.16509e-01,9.99999e-01
6.923517345e-01,6.20063e-01,9.99999e-01,9.96200e-01,6.22427e-01,9.99999e-01
6.958134932e-01,6.27041e-01,9.99999e-01,9.98021e-01,6.28284e-01,9.99999e-01
6.992925606e-01,6.32888e-01,9.99999e-01,9.98122e-01,6.34078e-01,9.99999e-01
7.027890234e-01,6.38327e-01,9.99999e-01,9.97681e-01,6.39810e-01,9.99999e-01
7.063029686e-01,6.44221e-01,9.99999e-01,9.98051e-01,6.45478e-01,9.99999e-01
7.098344834e-01,6.49867e-01,9.99999e-01,9.98130e-01,6.51084e-01,9.99999e-01
7.133836558e-01,6.54990e-01,9.99999e-01,9.97507e-01,6.56626e-01,9.99999e-01
7.169505741e-01,6.48873e-01,9.99999e-01,9.80015e-01,6.62105e-01,9.99999e-01
7.205353270e-01,6.60967e-01,9.99999e-01,9.90183e-01,6.67519e-01,9.99999e-01
7.241380036e-01,6.64499e-01,9.99999e-01,9.87559e-01,6.72870e-01,9.99999e-01
7.277586936e-01,6.70538e-01,9.99999e-01,9.88766e-01,6.78156e-01,9.99999e-01
7.313974871e-01,6.75226e-01,9.99999e-01,9.88070e-01,6.83379e-01,9.99999e-01
7.350544745e-01,6.84044e-01,9.99999e-01,9.93473e-01,6.88537e-01,9.99999e-01
7.387297469e-01,6.90301e-01,9.99999e-01,9.95197e-01,6.93631e-01,9.99999e-01
7.424233956e-01,6.97019e-01,9.99999e-01,9.97649e-01,6.98661e-01,9.99999e-01
7.461355126e-01,7.02625e-01,9.99999e-01,9.98575e-01,7.03627e-01,9.99999e-01
7.498661902e-01,7.08060e-01,9.99999e-01,9.99336e-01,7.08530e-01,9.99999e-01
7.536155211e-01,7.13136e-01,9.99999e-01,9.99674e-01,7.13369e-01,9.99999e-01
7.573835987e-01,7.18023e-01,9.99999e-01,9.99832e-01,7.18144e-01,9.99999e-01
7.611705167e-01,7.22780e-01,9.99999e-01,9.99895e-01,7.22856e-01,9.99999e-01
7.649763693e-01,7.27457e-01,9.99999e-01,9.99934e-01,7.27504e-01,9.99999e-01
7.688012511e-01,7.32057e-01,9.99999e-01,9.99954e-01,7.32090e-01,9.99999e-01
7.726452574e-01,7.36586e-01,9.99999e-01,9.99962e-01,7.36614e-01,9.99999e-01
7.765084837e-01,7.41036e-01,9.99999e-01,9.99946e-01,7.41075e-01,9.99999e-01
7.803910261e-01,7.34297e-01,9.85229e-01,9.99770e-01,7.45474e-01,9.99999e-01
7.842929812e-01,7.03282e-01,9.38679e-01,9.99198e-01,7.49812e-01,9.99999e-01
7.882144461e-01,7.03345e-01,9.34223e-01,9.98349e-01,7.54089e-01,9.99999e-01
7.921555184e-01,7.28670e-01,9.61781e-01,9.99094e-01,7.58305e-01,9.99999e-01
7.961162960e-01,7.41710e-01,9.74336e-01,9.98400e-01,7.62460e-01,9.99999e-01
8.000968774e-01,7.54443e-01,9.86016e-01,9.98152e-01,7.66555e-01,9.99999e-01
8.040973618e-01,7.63583e-01,9.92736e-01,9.98152e-01,7.70591e-01,9.99999e-01
8.081178486e-01,7.68768e-01,9.96660e-01,9.95834e-01,7.74568e-01,9.99999e-01
8.121584379e-01,7.64229e-01,9.98967e-01,9.82695e-01,7.78486e-01,9.99999e-01
8.162192301e-01,7.66106e-01,9.99771e-01,9.79462e-01,7.82346e-01,9.99999e-01
8.203003262e-01,7.78017e-01,9.99996e-01,9.89659e-01,7.86149e-01,9.99999e-01
8.244018279e-01,7.78457e-01,9.99999e-01,9.85521e-01,7.89894e-01,9.99999e-01
8.285238370e-01,7.83839e-01,9.99999e-01,9.87722e-01,7.93582e-01,9.99999e-01
8.326664562e-01,7.87313e-01,9.99999e-01,9.87579e-01,7.97215e-01,9.99999e-01
8.368297885e-01,7.93689e-01,9.99999e-01,9.91130e-01,8.00791e-01,9.99999e-01
8.410139374e-01,8.00071e-01,9.99999e-01,9.94725e-01,8.04313e-01,9.99999e-01
8.452190071e-01,8.05690e-01,9.99999e-01,9.97411e-01,8.07780e-01,9.99999e-01
8.494451021e-01,8.09976e-01,9.99999e-01,9.98498e-01,8.11193e-01,9.99999e-01
8.536923276e-01,8.13830e-01,9.99999e-01,9.99111e-01,8.14553e-01,9.99999e-01
8.579607893e-01,8.17413e-01,9.99999e-01,9.99452e-01,8.17860e-01,9.99999e-01
8.622505932e-01,8.20829e-01,9.99999e-01,9.99652e-01,8.21114e-01,9.99999e-01
8.665618462e-01,7.90887e-01,9.59645e-01,9.99784e-01,8.24317e-01,9.99999e-01
8.708946554e-01,7.02377e-01,8.49030e-01,9.99753e-01,8.27469e-01,9.99999e-01
8.752491287e-01,7.29193e-01,8.78227e-01,9.99670e-01,8.30570e-01,9.99999e-01
8.796253743e-01,7.76571e-01,9.31981e-01,9.99544e-01,8.33621e-01,9.99999e-01
8.840235012e-01,8.06374e-01,9.64342e-01,9.99479e-01,8.36623e-01,9.99999e-01
8.884436187e-01,8.26108e-01,9.85823e-01,9.98099e-01,8.39576e-01,9.99999e-01
8.928858368e-01,8.20941e-01,9.94239e-01,9.80057e-01,8.42481e-01,9.99999e-01
8.973502660e-01,8.14545e-01,9.98598e-01,9.64913e-01,8.45338e-01,9.99999e-01
9.018370173e-01,8.32692e-01,9.99845e-01,9.81926e-01,8.48148e-01,9.99999e-01
9.063462024e-01,8.34099e-01,9.96018e-01,9.84108e-01,8.50912e-01,9.99998e-01
9.108779334e-01,8.25037e-01,9.90920e-01,9.75313e-01,8.53630e-01,9.99998e-01
9.154323231e-01,8.30590e-01,9.97862e-01,9.72031e-01,8.56302e-01,9.99998e-01
9.200094847e-01,8.13679e-01,9.68129e-01,9.78004e-01,8.58930e-01,9.99998e-01
9.246095321e-01,7.95617e-01,9.56254e-01,9.65408e-01,8.61514e-01,9.99997e-01
9.292325798e-01,6.58355e-01,9.65360e-01,7.87874e-01,8.64055e-01,9.99996e-01
9.338787427e-01,6.15983e-01,9.66617e-01,7.34103e-01,8.66552e-01,9.99995e-01
9.385481364e-01,7.49182e-01,9.75426e-01,8.83259e-01,8.69007e-01,9.99995e-01
9.432408771e-01,7.20526e-01,9.84909e-01,8.39185e-01,8.71420e-01,9.99994e-01
9.479570815e-01,6.78273e-01,9.92233e-01,7.82157e-01,8.73793e-01,9.99995e-01
9.526968669e-01,7.28377e-01,9.96247e-01,8.34360e-01,8.76124e-01,9.99996e-01
9.574603512e-01,7.45418e-01,9.98394e-01,8.49920e-01,8.78416e-01,9.99997e-01
9.622476530e-01,7.71681e-01,9.99498e-01,8.76674e-01,8.80668e-01,9.99997e-01
9.670588912e-01,8.18436e-01,9.99849e-01,9.27142e-01,8.82881e-01,9.99998e-01
9.718941857e-01,8.44427e-01,9.99988e-01,9.54104e-01,8.85056e-01,9.99998e-01
9.767536566e-01,8.53278e-01,9.99999e-01,9.61772e-01,8.87193e-01,9.99999e-01
9.816374249e-01,8.64008e-01,9.99999e-01,9.71566e-01,8.89293e-01,9.99999e-01
9.865456120e-01,8.75453e-01,9.99999e-01,9.82156e-01,8.91357e-01,9.99999e-01
9.914783401e-01,8.83506e-01,9.99999e-01,9.88942e-01,8.93384e-01,9.99999e-01
9.964357318e-01,8.89972e-01,9.99999e-01,9.93964e-01,8.95376e-01,9.99999e-01
1.001417910e+00,8.94084e-01,9.99999e-01,9.96379e-01,8.97332e-01,9.99999e-01
1.006425000e+00,8.97398e-01,9.99999e-01,9.97935e-01,8.99254e-01,9.99999e-01
1.011457125e+00,8.99988e-01,9.99999e-01,9.98718e-01,9.01142e-01,9.99999e-01
1.016514411e+00,9.02212e-01,9.99999e-01,9.99129e-01,9.02997e-01,9.99999e-01
1.021596983e+00,9.04173e-01,9.99978e-01,9.99306e-01,9.04819e-01,9.99999e-01
1.026704968e+00,9.04717e-01,9.98452e-01,9.99458e-01,9.06608e-01,9.99999e-01
1.031838492e+00,8.86392e-01,9.76185e-01,9.99606e-01,9.08366e-01,9.99999e-01
1.036997685e+00,2.96511e-01,3.25868e-01,9.99766e-01,9.10092e-01,9.99999e-01
1.042182673e+00,3.63427e-01,3.98692e-01,9.99721e-01,9.11787e-01,9.99999e-01
1.047393587e+00,3.28675e-01,3.59938e-01,9.99630e-01,9.13452e-01,9.99999e-01
1.052630555e+00,6.40803e-02,7.00551e-02,9.99493e-01,9.15086e-01,9.99999e-01
1.057893707e+00,1.14281e-01,1.24752e-01,9.99154e-01,9.16692e-01,9.99999e-01
1.063183176e+00,2.04080e-01,2.22502e-01,9.98608e-01,9.18268e-01,9.99999e-01
1.068499092e+00,3.39059e-01,3.69408e-01,9.97669e-01,9.19816e-01,9.99999e-01
1.073841587e+00,4.90552e-01,5.33777e-01,9.97272e-01,9.21336e-01,9.99999e-01
1.079210795e+00,6.19318e-01,6.73368e-01,9.96506e-01,9.22828e-01,9.99999e-01
1.084606849e+00,7.41221e-01,8.06108e-01,9.94713e-01,9.24293e-01,9.99999e-01
1.090029883e+00,8.21831e-01,8.94475e-01,9.92409e-01,9.25731e-01,9.99999e-01
1.095480033e+00,8.59669e-01,9.46595e-01,9.79442e-01,9.27144e-01,9.99999e-01
1.100957433e+00,8.57815e-01,9.73948e-01,9.48444e-01,9.28530e-01,9.99998e-01
1.106462220e+00,8.03243e-01,9.89149e-01,8.73132e-01,9.29891e-01,9.99997e-01
1.111994531e+00,6.95881e-01,9.95966e-01,7.50205e-01,9.31227e-01,9.99995e-01
1.117554504e+00,5.83333e-01,9.99013e-01,6.26099e-01,9.32539e-01,9.99993e-01
1.123142276e+00,6.56757e-01,9.99934e-01,7.03334e-01,9.33826e-01,9.99992e-01
1.128757988e+00,7.49250e-01,9.99999e-01,8.01265e-01,9.35090e-01,9.99992e-01
1.134401778e+00,5.45403e-01,9.99999e-01,5.82494e-01,9.36330e-01,9.99991e-01
1.140073787e+00,8.23175e-01,9.99999e-01,8.78013e-01,9.37548e-01,9.99993e-01
1.145774156e+00,7.13017e-01,9.99999e-01,7.59549e-01,9.38743e-01,9.99994e-01
1.151503026e+00,6.90188e-01,9.99999e-01,7.34311e-01,9.39915e-01,9.99994e-01
1.157260541e+00,7.31360e-01,9.99999e-01,7.77163e-01,9.41067e-01,9.99995e-01
1.163046844e+00,7.82524e-01,9.99999e-01,8.30533e-01,9.42196e-01,9.99997e-01
1.168862078e+00,8.29913e-01,9.99999e-01,8.79793e-01,9.43305e-01,9.99998e-01
1.174706389e+00,8.72659e-01,9.99999e-01,9.24042e-01,9.44393e-01,9.99998e-01
1.180579921e+00,9.01112e-01,9.99999e-01,9.53093e-01,9.45461e-01,9.99999e-01
1.186482820e+00,9.21202e-01,9.99996e-01,9.73265e-01,9.46509e-01,9.99999e-01
1.192415234e+00,9.27517e-01,9.94432e-01,9.84325e-01,9.47537e-01,9.99999e-01
1.198377311e+00,5.57406e-01,5.94282e-01,9.86772e-01,9.48546e-01,9.99999e-01
1.204369197e+00,6.13554e-06,6.50877e-06,9.87469e-01,9.49537e-01,9.99999e-01
1.210391043e+00,4.16529e-18,4.41155e-18,9.88019e-01,9.50508e-01,9.99999e-01
1.216442998e+00,6.41613e-16,6.78639e-16,9.89799e-01,9.51462e-01,9.99999e-01
1.222525213e+00,1.12386e-15,1.18505e-15,9.92054e-01,9.52397e-01,9.99999e-01
1.228637839e+00,5.02913e-12,5.29642e-12,9.94477e-01,9.53315e-01,9.99999e-01
1.234781029e+00,1.63516e-08,1.71685e-08,9.95896e-01,9.54216e-01,9.99999e-01
1.240954934e+00,8.67311e-06,9.09684e-06,9.97404e-01,9.55100e-01,9.99999e-01
1.247159708e+00,1.43171e-03,1.49990e-03,9.97978e-01,9.55967e-01,9.99999e-01
1.253395507e+00,2.74767e-02,2.87597e-02,9.98205e-01,9.56817e-01,9.99999e-01
1.259662485e+00,1.28389e-01,1.34270e-01,9.98295e-01,9.57652e-01,9.99999e-01
1.265960797e+00,2.98757e-01,3.12473e-01,9.97275e-01,9.58471e-01,9.99999e-01
1.272290601e+00,5.94292e-01,6.22079e-01,9.95723e-01,9.59274e-01,9.99999e-01
1.278652054e+00,5.30254e-01,5.56491e-01,9.91505e-01,9.60062e-01,9.99999e-01
1.285045314e+00,4.09808e-02,4.30198e-02,9.84625e-01,9.60835e-01,9.99999e-01
1.291470541e+00,8.30980e-03,8.82209e-03,9.73349e-01,9.61594e-01,9.99998e-01
1.297927893e+00,6.27098e-02,6.66947e-02,9.65338e-01,9.62338e-01,9.99998e-01
1.304417533e+00,3.90555e-01,4.23459e-01,9.55575e-01,9.63068e-01,9.99997e-01
1.310939621e+00,1.17124e-01,1.25636e-01,9.49261e-01,9.63784e-01,9.99996e-01
1.317494319e+00,1.19171e-06,1.28216e-06,9.45090e-01,9.64487e-01,9.99994e-01
1.324081790e+00,5.10325e-05,5.53421e-05,9.18640e-01,9.65176e-01,9.99991e-01
1.330702199e+00,4.61041e-03,5.98528e-03,6.88350e-01,9.65852e-01,9.99986e-01
1.337355710e+00,2.13945e-03,4.04704e-03,4.02397e-01,9.66515e-01,9.99973e-01
1.344042489e+00,4.00526e-04,1.55415e-03,8.02609e-02,9.67165e-01,9.99944e-01
1.350762701e+00,6.24592e-05,4.80926e-03,7.25543e-03,9.67803e-01,9.99912e-01
1.357516515e+00,7.87294e-05,2.92762e-02,1.57185e-03,9.68429e-01,9.99891e-01
1.364304097e+00,1.69723e-03,1.13154e-01,1.18596e-02,9.69043e-01,9.99883e-01
1.371125618e+00,1.91742e-02,3.14885e-01,5.27017e-02,9.69645e-01,9.99882e-01
1.377981246e+00,3.34419e-02,3.99474e-01,8.02204e-02,9.70235e-01,9.99873e-01
1.384871152e+00,6.03739e-03,5.86062e-01,9.82056e-03,9.70815e-01,9.99877e-01
1.391795508e+00,1.01283e-02,6.10656e-01,1.60093e-02,9.71383e-01,9.99895e-01
1.398754485e+00,1.95610e-02,7.38680e-01,2.66388e-02,9.71940e-01,9.99910e-01
1.405748258e+00,2.04865e-02,7.99524e-01,2.54857e-02,9.72487e-01,9.99919e-01
1.412776999e+00,2.51574e-02,8.68514e-01,2.92330e-02,9.73023e-01,9.99935e-01
1.419840884e+00,3.10800e-02,8.11246e-01,3.55762e-02,9.73548e-01,9.99951e-01
1.426940089e+00,1.97913e-02,1.15252e-01,7.57506e-02,9.74064e-01,9.99969e-01
1.434074789e+00,8.10801e-251,2.56071e-250,1.37278e-01,9.74570e-01,9.99981e-01
1.441245163e+00,0.00000e+00,0.00000e+00,2.34487e-01,9.75066e-01,9.99985e-01
1.448451389e+00,1.12059e-303,1.93006e-303,3.51645e-01,9.75552e-01,9.99987e-01
1.455693646e+00,3.39127e-136,4.84505e-136,5.13515e-01,9.76029e-01,9.99989e-01
1.462972114e+00,9.51847e-67,1.35928e-66,5.67226e-01,9.76497e-01,9.99991e-01
1.470286975e+00,7.00534e-29,1.02747e-28,5.14349e-01,9.76956e-01,9.99991e-01
