#,Wave/freq,Total,CO2,H2O,Rayleigh,CIA
4.000000000e-01,7.84158e-18,9.99999e-01,9.99922e-01,7.84219e-18,9.99999e-01
4.020000000e-01,1.70863e-17,9.99999e-01,9.99951e-01,1.70871e-17,9.99999e-01
4.040100000e-01,3.66317e-17,9.99999e-01,9.99979e-01,3.66324e-17,9.99999e-01
4.060300500e-01,7.73603e-17,9.99999e-01,9.99994e-01,7.73606e-17,9.99999e-01
4.080602003e-01,1.60976e-16,9.99999e-01,9.99998e-01,1.60976e-16,9.99999e-01
4.101005013e-01,3.30155e-16,9.99999e-01,9.99999e-01,3.30155e-16,9.99999e-01
4.121510038e-01,6.67590e-16,9.99999e-01,9.99996e-01,6.67592e-16,9.99999e-01
4.142117588e-01,1.33124e-15,9.99999e-01,9.99978e-01,1.33126e-15,9.99999e-01
4.162828176e-01,2.61852e-15,9.99999e-01,9.99903e-01,2.61877e-15,9.99999e-01
4.183642317e-01,5.08278e-15,9.99999e-01,9.99942e-01,5.08307e-15,9.99999e-01
4.204560528e-01,9.73756e-15,9.99999e-01,9.99964e-01,9.73790e-15,9.99999e-01
4.225583331e-01,1.84171e-14,9.99999e-01,9.99986e-01,1.84174e-14,9.99999e-01
4.246711247e-01,3.43969e-14,9.99999e-01,9.99989e-01,3.43972e-14,9.99999e-01
4.267944804e-01,6.34533e-14,9.99999e-01,9.99984e-01,6.34542e-14,9.99999e-01
4.289284528e-01,1.15648e-13,9.99999e-01,9.99987e-01,1.15650e-13,9.99999e-01
4.310730950e-01,2.08294e-13,9.99999e-01,9.99994e-01,2.08295e-13,9.99999e-01
4.332284605e-01,3.70823e-13,9.99999e-01,9.99998e-01,3.70823e-13,9.99999e-01
4.353946028e-01,6.52690e-13,9.99999e-01,9.99998e-01,6.52690e-13,9.99999e-01
4.375715758e-01,1.13604e-12,9.99999e-01,9.99990e-01,1.13605e-12,9.99999e-01
4.397594337e-01,1.95567e-12,9.99999e-01,9.99916e-01,1.95583e-12,9.99999e-01
4.419582309e-01,3.32985e-12,9.99999e-01,9.99579e-01,3.33125e-12,9.99999e-01
4.441680220e-01,5.61266e-12,9.99999e-01,9.99665e-01,5.61454e-12,9.99999e-01
4.463888621e-01,9.36252e-12,9.99999e-01,9.99653e-01,9.36576e-12,9.99999e-01
4.486208064e-01,1.54628e-11,9.99999e-01,9.99783e-01,1.54662e-11,9.99999e-01
4.508639105e-01,2.52857e-11,9.99999e-01,9.99898e-01,2.52883e-11,9.99999e-01
4.531182300e-01,4.09468e-11,9.99999e-01,9.99959e-01,4.09485e-11,9.99999e-01
4.553838212e-01,6.56765e-11,9.99999e-01,9.99972e-01,6.56783e-11,9.99999e-01
4.576607403e-01,1.04363e-10,9.99999e-01,9.99987e-01,1.04364e-10,9.99999e-01
4.599490440e-01,1.64326e-10,9.99999e-01,9.99990e-01,1.64328e-10,9.99999e-01
4.622487892e-01,2.56433e-10,9.99999e-01,9.99997e-01,2.56434e-10,9.99999e-01
4.645600332e-01,3.96661e-10,9.99999e-01,9.99993e-01,3.96663e-10,9.99999e-01
4.668828333e-01,6.08250e-10,9.99999e-01,9.99898e-01,6.08311e-10,9.99999e-01
4.692172475e-01,9.24843e-10,9.99999e-01,9.99782e-01,9.25044e-10,9.99999e-01
4.715633337e-01,1.39490e-09,9.99999e-01,9.99857e-01,1.39509e-09,9.99999e-01
4.739211504e-01,2.08670e-09,9.99999e-01,9.99863e-01,2.08698e-09,9.99999e-01
4.762907561e-01,3.09706e-09,9.99999e-01,9.99928e-01,3.09728e-09,9.99999e-01
4.786722099e-01,4.56081e-09,9.99999e-01,9.99970e-01,4.56094e-09,9.99999e-01
4.810655710e-01,6.66507e-09,9.99999e-01,9.99990e-01,6.66513e-09,9.99999e-01
4.834708988e-01,9.66659e-09,9.99999e-01,9.99918e-01,9.66738e-09,9.99999e-01
4.858882533e-01,1.39172e-08,9.99999e-01,9.99845e-01,1.39193e-08,9.99999e-01
4.883176946e-01,1.98951e-08,9.99999e-01,9.99871e-01,1.98976e-08,9.99999e-01
4.907592831e-01,2.82403e-08,9.99999e-01,9.99883e-01,2.82436e-08,9.99999e-01
4.932130795e-01,3.98104e-08,9.99999e-01,9.99916e-01,3.98137e-08,9.99999e-01
4.956791449e-01,5.57418e-08,9.99999e-01,9.99955e-01,5.57443e-08,9.99999e-01
4.981575406e-01,7.75151e-08,9.99999e-01,9.99782e-01,7.75319e-08,9.99999e-01
5.006483283e-01,1.07075e-07,9.99999e-01,9.99440e-01,1.07135e-07,9.99999e-01
5.031515699e-01,1.46678e-07,9.99999e-01,9.97143e-01,1.47098e-07,9.99999e-01
5.056673278e-01,2.00404e-07,9.99999e-01,9.98486e-01,2.00708e-07,9.99999e-01
5.081956644e-01,2.71659e-07,9.99999e-01,9.98089e-01,2.72179e-07,9.99999e-01
5.107366428e-01,3.66414e-07,9.99999e-01,9.98708e-01,3.66887e-07,9.99999e-01
5.132903260e-01,4.91279e-07,9.99999e-01,9.99260e-01,4.91642e-07,9.99999e-01
5.158567776e-01,6.54815e-07,9.99999e-01,9.99687e-01,6.55020e-07,9.99999e-01
5.184360615e-01,8.67650e-07,9.99999e-01,9.99874e-01,8.67759e-07,9.99999e-01
5.210282418e-01,1.14317e-06,9.99999e-01,9.99953e-01,1.14322e-06,9.99999e-01
5.236333830e-01,1.49767e-06,9.99999e-01,9.99813e-01,1.49795e-06,9.99999e-01
5.262515499e-01,1.95207e-06,9.99999e-01,9.99882e-01,1.95230e-06,9.99999e-01
5.288828077e-01,2.53090e-06,9.99999e-01,9.99892e-01,2.53117e-06,9.99999e-01
5.315272217e-01,3.26459e-06,9.99999e-01,9.99904e-01,3.26490e-06,9.99999e-01
5.341848578e-01,4.18994e-06,9.99999e-01,9.99938e-01,4.19020e-06,9.99999e-01
5.368557821e-01,5.35013e-06,9.99999e-01,9.99783e-01,5.35129e-06,9.99999e-01
5.395400610e-01,6.79591e-06,9.99999e-01,9.99223e-01,6.80118e-06,9.99999e-01
5.422377613e-01,8.59433e-06,9.99999e-01,9.98982e-01,8.60308e-06,9.99999e-01
5.449489501e-01,1.08218e-05,9.99999e-01,9.99060e-01,1.08320e-05,9.99999e-01
5.476736949e-01,1.35650e-05,9.99999e-01,9.99161e-01,1.35764e-05,9.99999e-01
5.504120634e-01,1.69301e-05,9.99999e-01,9.99391e-01,1.69404e-05,9.99999e-01
5.531641237e-01,2.10393e-05,9.99999e-01,9.99693e-01,2.10457e-05,9.99999e-01
5.559299443e-01,2.60303e-05,9.99999e-01,9.99851e-01,2.60341e-05,9.99999e-01
5.587095940e-01,3.20669e-05,9.99999e-01,9.99907e-01,3.20699e-05,9.99999e-01
5.615031420e-01,3.93386e-05,9.99999e-01,9.99896e-01,3.93426e-05,9.99999e-01
5.643106577e-01,4.80646e-05,9.99999e-01,9.99884e-01,4.80701e-05,9.99999e-01
5.671322110e-01,5.84205e-05,9.99999e-01,9.98609e-01,5.85018e-05,9.99999e-01
5.699678720e-01,7.08138e-05,9.99999e-01,9.98481e-01,7.09215e-05,9.99999e-01
5.728177114e-01,8.55175e-05,9.99999e-01,9.98434e-01,8.56516e-05,9.99999e-01
5.756818000e-01,1.02908e-04,9.99999e-01,9.98560e-01,1.03056e-04,9.99999e-01
5.785602090e-01,1.23390e-04,9.99999e-01,9.98742e-01,1.23545e-04,9.99999e-01
5.814530100e-01,1.47392e-04,9.99999e-01,9.98739e-01,1.47578e-04,9.99999e-01
5.843602750e-01,1.75406e-04,9.99999e-01,9.98510e-01,1.75668e-04,9.99999e-01
5.872820764e-01,2.05724e-04,9.99999e-01,9.87221e-01,2.08387e-04,9.99999e-01
5.902184868e-01,2.42518e-04,9.99999e-01,9.84380e-01,2.46366e-04,9.99999e-01
5.931695792e-01,2.87108e-04,9.99999e-01,9.88984e-01,2.90306e-04,9.99999e-01
5.961354271e-01,3.36849e-04,9.99999e-01,9.87897e-01,3.40976e-04,9.99999e-01
5.991161043e-01,3.95685e-04,9.99999e-01,9.91147e-01,3.99219e-04,9.99999e-01
6.021116848e-01,4.63609e-04,9.99999e-01,9.94961e-01,4.65957e-04,9.99999e-01
6.051222432e-01,5.40809e-04,9.99999e-01,9.97446e-01,5.42193e-04,9.99999e-01
6.081478544e-01,6.28325e-04,9.99999e-01,9.98898e-01,6.29017e-04,9.99999e-01
6.111885937e-01,7.27267e-04,9.99999e-01,9.99532e-01,7.27607e-04,9.99999e-01
6.142445367e-01,8.39057e-04,9.99999e-01,9.99791e-01,8.39232e-04,9.99999e-01
6.173157594e-01,9.65146e-04,9.99999e-01,9.99884e-01,9.65257e-04,9.99999e-01
6.204023382e-01,1.10704e-03,9.99999e-01,9.99903e-01,1.10714e-03,9.99999e-01
6.235043498e-01,1.26592e-03,9.99999e-01,9.99580e-01,1.26645e-03,9.99999e-01
6.266218716e-01,1.44158e-03,9.99999e-01,9.97745e-01,1.44484e-03,9.99999e-01
6.297549810e-01,1.64271e-03,9.99999e-01,9.99172e-01,1.64407e-03,9.99999e-01
6.329037559e-01,1.86294e-03,9.99999e-01,9.98360e-01,1.86600e-03,9.99999e-01
6.360682746e-01,2.10967e-03,9.99999e-01,9.98609e-01,2.11261e-03,9.99999e-01
6.392486160e-01,2.38164e-03,9.99999e-01,9.98194e-01,2.38594e-03,9.99999e-01
6.424448591e-01,2.68173e-03,9.99999e-01,9.97603e-01,2.68818e-03,9.99999e-01
6.456570834e-01,2.98808e-03,9.99999e-01,9.88917e-01,3.02157e-03,9.99999e-01
6.488853688e-01,3.35588e-03,9.99999e-01,9.90382e-01,3.38847e-03,9.99999e-01
6.521297956e-01,3.75966e-03,9.99999e-01,9.91644e-01,3.79134e-03,9.99999e-01
6.553904446e-01,4.19774e-03,9.99999e-01,9.91740e-01,4.23270e-03,9.99999e-01
6.586673968e-01,4.68151e-03,9.99999e-01,9.92860e-01,4.71517e-03,9.99999e-01
6.619607338e-01,5.21979e-03,9.99999e-01,9.95867e-01,5.24145e-03,9.99999e-01
6.652705375e-01,5.80035e-03,9.99999e-01,9.97599e-01,5.81431e-03,9.99999e-01
6.685968902e-01,6.42940e-03,9.99999e-01,9.98884e-01,6.43657e-03,9.99999e-01
6.719398746e-01,7.10746e-03,9.99999e-01,9.99482e-01,7.11114e-03,9.99999e-01
6.752995740e-01,7.83876e-03,9.99999e-01,9.99720e-01,7.84095e-03,9.99999e-01
6.786760719e-01,8.62554e-03,9.99999e-01,9.99599e-01,8.62899e-03,9.99999e-01
6.820694522e-01,9.47178e-03,9.99999e-01,9.99312e-01,9.47829e-03,9.99999e-01
6.854797995e-01,1.03827e-02,9.99999e-01,9.99113e-01,1.03919e-02,9.99999e-01
6.889071985e-01,1.13488e-02,9.99999e-01,9.97887e-01,1.13729e-02,9.99999e-01
6.923517345e-01,1.19984e-02,9.99999e-01,9.65721e-01,1.24243e-02,9.99999e-01
6.958134932e-01,1.33014e-02,9.99999e-01,9.81706e-01,1.35492e-02,9.99999e-01
6.992925606e-01,1.44984e-02,9.99999e-01,9.82895e-01,1.47507e-02,9.99999e-01
7.027890234e-01,1.56914e-02,9.99999e-01,9.78764e-01,1.60319e-02,9.99999e-01
7.063029686e-01,1.70846e-02,9.99999e-01,9.82121e-01,1.73956e-02,9.99999e-01
7.098344834e-01,1.85215e-02,9.99999e-01,9.82834e-01,1.88450e-02,9.99999e-01
7.133836558e-01,1.99243e-02,9.99999e-01,9.77503e-01,2.03828e-02,9.99998e-01
7.169505741e-01,1.83572e-02,9.99999e-01,8.33963e-01,2.20121e-02,9.99997e-01
7.205353270e-01,2.16752e-02,9.99999e-01,9.13202e-01,2.37354e-02,9.99997e-01
7.241380036e-01,2.28026e-02,9.99999e-01,8.92274e-01,2.55557e-02,9.99996e-01
7.277586936e-01,2.47884e-02,9.99999e-01,9.02205e-01,2.74754e-02,9.99997e-01
7.313974871e-01,2.64107e-02,9.99999e-01,8.95370e-01,2.94970e-02,9.99997e-01
7.350544745e-01,2.97699e-02,9.99999e-01,9.41398e-01,3.16231e-02,9.99998e-01
7.387297469e-01,3.23805e-02,9.99999e-01,9.56425e-01,3.38558e-02,9.99999e-01
7.424233956e-01,3.54145e-02,9.99999e-01,9.78373e-01,3.61973e-02,9.99999e-01
7.461355126e-01,3.81417e-02,9.99999e-01,9.86857e-01,3.86496e-02,9.99999e-01
7.498661902e-01,4.09611e-02,9.99999e-01,9.93844e-01,4.12148e-02,9.99999e-01
7.536155211e-01,4.37621e-02,9.99999e-01,9.96984e-01,4.38944e-02,9.99999e-01
7.573835987e-01,4.66176e-02,9.99999e-01,9.98445e-01,4.66901e-02,9.99999e-01
7.611705167e-01,4.95555e-02,9.99999e-01,9.99034e-01,4.96033e-02,9.99999e-01
7.649763693e-01,5.26036e-02,9.99999e-01,9.99395e-01,5.26354e-02,9.99999e-01
7.688012511e-01,5.57639e-02,9.99999e-01,9.99579e-01,5.57874e-02,9.99999e-01
7.726452574e-01,5.90398e-02,9.99999e-01,9.99654e-01,5.90602e-02,9.99999e-01
7.765084837e-01,6.24242e-02,9.99999e-01,9.99512e-01,6.24546e-02,9.99999e-01
7.803910261e-01,5.94732e-02,9.03230e-01,9.97896e-01,6.59713e-02,9.99999e-01
7.842929812e-01,4.04240e-02,5.84395e-01,9.92677e-01,6.96107e-02,9.99999e-01
7.882144461e-01,4.12846e-02,5.70317e-01,9.84846e-01,7.33729e-02,9.99999e-01
7.921555184e-01,5.40164e-02,7.04616e-01,9.91626e-01,7.72582e-02,9.99999e-01
7.961162960e-01,6.30648e-02,7.87130e-01,9.85400e-01,8.12663e-02,9.99999e-01
8.000968774e-01,7.37378e-02,8.78201e-01,9.83049e-01,8.53969e-02,9.99999e-01
8.040973618e-01,8.23722e-02,9.34528e-01,9.83071e-01,8.96497e-02,9.99999e-01
8.081178486e-01,8.77581e-02,9.69474e-01,9.62555e-01,9.40240e-02,9.99998e-01
8.121584379e-01,8.33188e-02,9.90397e-01,8.53613e-01,9.85189e-02,9.99997e-01
8.162192301e-01,8.51838e-02,9.97870e-01,8.27603e-01,1.03134e-01,9.99997e-01
8.203003262e-01,9.84791e-02,9.99964e-01,9.12993e-01,1.07867e-01,9.99996e-01
8.244018279e-01,9.91056e-02,9.99999e-01,8.79241e-01,1.12717e-01,9.99996e-01
8.285238370e-01,1.05125e-01,9.99999e-01,8.93285e-01,1.17684e-01,9.99997e-01
8.326664562e-01,1.09504e-01,9.99999e-01,8.91984e-01,1.22764e-01,9.99997e-01
8.368297885e-01,1.17855e-01,9.99999e-01,9.21050e-01,1.27957e-01,9.99998e-01
8.410139374e-01,1.26895e-01,9.99999e-01,9.52228e-01,1.33261e-01,9.99999e-01
8.452190071e-01,1.35378e-01,9.99999e-01,9.76237e-01,1.38673e-01,9.99999e-01
8.494451021e-01,1.42200e-01,9.99999e-01,9.86186e-01,1.44192e-01,9.99999e-01
8.536923276e-01,1.48583e-01,9.99999e-01,9.91783e-01,1.49814e-01,9.99999e-01
8.579607893e-01,1.54753e-01,9.99999e-01,9.94947e-01,1.55538e-01,9.99999e-01
8.622505932e-01,1.60842e-01,9.99999e-01,9.96780e-01,1.61362e-01,9.99999e-01
8.665618462e-01,1.43952e-01,8.62129e-01,9.98014e-01,1.67282e-01,9.99999e-01
8.708946554e-01,4.69758e-02,2.71630e-01,9.97731e-01,1.73296e-01,9.99999e-01
8.752491287e-01,5.94736e-02,3.32441e-01,9.96963e-01,1.79400e-01,9.99999e-01
8.796253743e-01,9.90868e-02,5.35928e-01,9.95809e-01,1.85593e-01,9.99999e-01
8.840235012e-01,1.37170e-01,7.18163e-01,9.95210e-01,1.91871e-01,9.99999e-01
8.884436187e-01,1.70834e-01,8.76186e-01,9.82987e-01,1.98231e-01,9.99998e-01
8.928858368e-01,1.62170e-01,9.47815e-01,8.34553e-01,2.04670e-01,9.99997e-01
8.973502660e-01,1.51333e-01,9.86983e-01,7.25360e-01,2.11185e-01,9.99995e-01
9.018370173e-01,1.84417e-01,9.98554e-01,8.47935e-01,2.17772e-01,9.99994e-01
9.063462024e-01,1.88420e-01,9.65488e-01,8.66151e-01,2.24429e-01,9.99994e-01
9.108779334e-01,1.70287e-01,9.19242e-01,7.98570e-01,2.31151e-01,9.99993e-01
9.154323231e-01,1.80636e-01,9.80238e-01,7.73327e-01,2.37937e-01,9.99993e-01
9.200094847e-01,1.62608e-01,7.88452e-01,8.17910e-01,2.44781e-01,9.99991e-01
9.246095321e-01,1.26595e-01,6.64747e-01,7.42444e-01,2.51681e-01,9.99985e-01
9.292325798e-01,3.19269e-02,7.33345e-01,1.56674e-01,2.58634e-01,9.99969e-01
9.338787427e-01,1.82884e-02,7.35843e-01,8.74076e-02,2.65636e-01,9.99960e-01
9.385481364e-01,8.32553e-02,7.96274e-01,3.70360e-01,2.72683e-01,9.99959e-01
9.432408771e-01,6.68410e-02,8.68527e-01,2.69751e-01,2.79773e-01,9.99954e-01
9.479570815e-01,4.32691e-02,9.30330e-01,1.60532e-01,2.86901e-01,9.99960e-01
9.526968669e-01,6.87565e-02,9.65764e-01,2.40365e-01,2.94065e-01,9.99969e-01
9.574603512e-01,7.61587e-02,9.85187e-01,2.55857e-01,3.01261e-01,9.99977e-01
9.622476530e-01,9.88027e-02,9.95350e-01,3.21500e-01,3.08486e-01,9.99984e-01
9.670588912e-01,1.62851e-01,9.98601e-01,5.16388e-01,3.15736e-01,9.99990e-01
9.718941857e-01,2.10988e-01,9.99899e-01,6.53249e-01,3.23008e-01,9.99993e-01
9.767536566e-01,2.31813e-01,9.99999e-01,7.01830e-01,3.30299e-01,9.99995e-01
9.816374249e-01,2.59117e-01,9.99999e-01,7.67515e-01,3.37606e-01,9.99996e-01
9.865456120e-01,2.92168e-01,9.99999e-01,8.47046e-01,3.44926e-01,9.99998e-01
9.914783401e-01,3.17832e-01,9.99999e-01,9.02280e-01,3.52255e-01,9.99999e-01
9.964357318e-01,3.39996e-01,9.99999e-01,9.45510e-01,3.59590e-01,9.99999e-01
1.001417910e+00,3.54801e-01,9.99999e-01,9.66947e-01,3.66928e-01,9.99999e-01
1.006425000e+00,3.67176e-01,9.99999e-01,9.81052e-01,3.74267e-01,9.99999e-01
1.011457125e+00,3.77090e-01,9.99999e-01,9.88170e-01,3.81604e-01,9.99999e-01
1.016514411e+00,3.85810e-01,9.99999e-01,9.91965e-01,3.88935e-01,9.99999e-01
1.021596983e+00,3.93653e-01,9.99825e-01,9.93597e-01,3.96258e-01,9.99999e-01
1.026704968e+00,3.96024e-01,9.86205e-01,9.95005e-01,4.03570e-01,9.99999e-01
1.031838492e+00,3.67243e-01,8.96900e-01,9.96361e-01,4.10868e-01,9.99999e-01
1.036997685e+00,1.73071e-02,4.14568e-02,9.97841e-01,4.18151e-01,9.99999e-01
1.042182673e+00,6.03743e-04,1.42190e-03,9.97435e-01,4.25415e-01,9.99999e-01
1.047393587e+00,1.76384e-03,4.08819e-03,9.96594e-01,4.32658e-01,9.99999e-01
1.052630555e+00,4.50769e-08,1.02775e-07,9.95334e-01,4.39877e-01,9.99999e-01
1.057893707e+00,1.66406e-07,3.73647e-07,9.92234e-01,4.47071e-01,9.99999e-01
1.063183176e+00,8.66195e-06,1.92054e-05,9.87242e-01,4.54237e-01,9.99999e-01
1.068499092e+00,1.16475e-04,2.55836e-04,9.78706e-01,4.61373e-01,9.99999e-01
1.073841587e+00,2.13540e-03,4.63773e-03,9.75197e-01,4.68476e-01,9.99999e-01
1.079210795e+00,1.61243e-02,3.47464e-02,9.68205e-01,4.75546e-01,9.99998e-01
1.084606849e+00,6.74238e-02,1.45687e-01,9.52387e-01,4.82579e-01,9.99998e-01
1.090029883e+00,1.67251e-01,3.63852e-01,9.32811e-01,4.89575e-01,9.99996e-01
1.095480033e+00,2.50618e-01,6.05653e-01,8.27254e-01,4.96530e-01,9.99994e-01
1.100957433e+00,2.47559e-01,7.84013e-01,6.21550e-01,5.03445e-01,9.99991e-01
1.106462220e+00,1.46800e-01,9.03968e-01,3.14719e-01,5.10316e-01,9.99981e-01
1.111994531e+00,4.67605e-02,9.63207e-01,9.31800e-02,5.17142e-01,9.99963e-01
1.117554504e+00,1.29468e-02,9.90851e-01,2.48379e-02,5.23922e-01,9.99948e-01
1.123142276e+00,4.24015e-02,9.99393e-01,7.99141e-02,5.30655e-01,9.99938e-01
1.128757988e+00,9.14402e-02,9.99999e-01,1.70184e-01,5.37338e-01,9.99933e-01
1.134401778e+00,4.02515e-02,9.99999e-01,7.40010e-02,5.43971e-01,9.99925e-01
1.140073787e+00,1.81554e-01,9.99999e-01,3.29787e-01,5.50553e-01,9.99939e-01
1.145774156e+00,6.50509e-02,9.99999e-01,1.16777e-01,5.57081e-01,9.99948e-01
1.151503026e+00,5.25340e-02,9.99999e-01,9.32227e-02,5.63556e-01,9.99955e-01
1.157260541e+00,6.69015e-02,9.99999e-01,1.17380e-01,5.69977e-01,9.99966e-01
1.163046844e+00,1.15974e-01,9.99999e-01,2.01229e-01,5.76341e-01,9.99978e-01
1.168862078e+00,1.84039e-01,9.99999e-01,3.15870e-01,5.82648e-01,9.99988e-01
1.174706389e+00,2.88443e-01,9.99999e-01,4.89804e-01,5.88898e-01,9.99994e-01
1.180579921e+00,3.84024e-01,9.99999e-01,6.45322e-01,5.95090e-01,9.99995e-01
1.186482820e+00,4.68506e-01,9.99980e-01,7.79269e-01,6.01222e-01,9.99996e-01
1.192415234e+00,5.01606e-01,9.53879e-01,8.64227e-01,6.07295e-01,9.99997e-01
1.198377311e+00,2.80624e-01,5.06742e-01,8.84525e-01,6.13307e-01,9.99997e-01
1.204369197e+00,2.05025e-36,3.54111e-36,8.90675e-01,6.19259e-01,9.99997e-01
1.210391043e+00,6.04267e-149,1.02824e-148,8.94939e-01,6.25148e-01,9.99998e-01
1.216442998e+00,8.05838e-129,1.35418e-128,9.09730e-01,6.30976e-01,9.99998e-01
1.222525213e+00,7.17083e-127,1.16974e-126,9.28907e-01,6.36741e-01,9.99998e-01
1.228637839e+00,9.11027e-98,1.46767e-97,9.50091e-01,6.42444e-01,9.99999e-01
1.234781029e+00,1.29123e-60,2.02535e-60,9.62663e-01,6.48084e-01,9.99999e-01
1.240954934e+00,4.38007e-40,6.79898e-40,9.76245e-01,6.53660e-01,9.99999e-01
1.247159708e+00,5.07065e-19,7.77774e-19,9.81434e-01,6.59172e-01,9.99999e-01
1.253395507e+00,5.65915e-13,8.61297e-13,9.83522e-01,6.64621e-01,9.99999e-01
1.259662485e+00,4.65514e-08,7.02587e-08,9.84495e-01,6.70006e-01,9.99999e-01
1.265960797e+00,1.39364e-04,2.09339e-04,9.75199e-01,6.75327e-01,9.99998e-01
1.272290601e+00,8.78833e-03,1.32694e-02,9.63717e-01,6.80584e-01,9.99998e-01
1.278652054e+00,1.11841e-02,1.71136e-02,9.25016e-01,6.85777e-01,9.99998e-01
1.285045314e+00,5.22450e-06,8.01245e-06,8.85043e-01,6.90905e-01,9.99996e-01
1.291470541e+00,2.49798e-17,4.08703e-17,7.82352e-01,6.95970e-01,9.99994e-01
1.297927893e+00,2.56670e-07,4.23482e-07,7.27124e-01,7.00970e-01,9.99991e-01
1.304417533e+00,2.95232e-04,5.66562e-04,6.64180e-01,7.05907e-01,9.99983e-01
1.310939621e+00,8.79431e-05,1.61187e-04,6.27621e-01,7.10780e-01,9.99972e-01
1.317494319e+00,1.97142e-50,3.63746e-50,6.02075e-01,7.15589e-01,9.99954e-01
1.324081790e+00,5.51369e-33,1.08066e-32,4.75827e-01,7.20335e-01,9.99925e-01
1.330702199e+00,6.27894e-20,2.10974e-19,1.20606e-01,7.25017e-01,9.99876e-01
1.337355710e+00,7.62369e-20,1.25671e-17,1.50828e-03,7.29637e-01,9.99763e-01
1.344042489e+00,4.00525e-21,7.43936e-18,2.20377e-05,7.34194e-01,9.99493e-01
1.350762701e+00,5.52430e-33,9.63985e-20,6.07974e-15,7.38689e-01,9.99190e-01
1.357516515e+00,7.39622e-32,8.31922e-12,4.44807e-22,7.43121e-01,9.98998e-01
1.364304097e+00,7.61821e-21,1.00592e-08,1.08976e-13,7.47492e-01,9.98926e-01
1.371125618e+00,3.04449e-12,8.60219e-05,1.26400e-08,7.51801e-01,9.98917e-01
1.377981246e+00,3.37028e-11,2.90419e-04,4.11418e-08,7.56050e-01,9.98837e-01
1.384871152e+00,2.09860e-13,8.53571e-03,1.47769e-11,7.60237e-01,9.98848e-01
1.391795508e+00,2.33395e-15,1.25013e-02,7.97279e-14,7.64365e-01,9.99014e-01
1.398754485e+00,5.24649e-12,6.17124e-02,7.40348e-11,7.68433e-01,9.99176e-01
1.405748258e+00,1.29857e-11,1.32274e-01,8.80290e-11,7.72441e-01,9.99261e-01
1.412776999e+00,3.95500e-11,2.74532e-01,1.23909e-10,7.76391e-01,9.99406e-01
1.419840884e+00,7.00756e-11,2.70049e-01,2.19165e-10,7.80282e-01,9.99556e-01
1.426940089e+00,4.53111e-08,8.42945e-03,2.39525e-07,7.84115e-01,9.99725e-01
1.434074789e+00,0.00000e+00,0.00000e+00,2.53165e-06,7.87891e-01,9.99828e-01
1.441245163e+00,0.00000e+00,0.00000e+00,2.59861e-05,7.91610e-01,9.99866e-01
1.448451389e+00,0.00000e+00,0.00000e+00,7.51235e-04,7.95272e-01,9.99889e-01
1.455693646e+00,0.00000e+00,0.00000e+00,7.31819e-03,7.98879e-01,9.99908e-01
1.462972114e+00,0.00000e+00,0.00000e+00,1.10909e-02,8.02430e-01,9.99921e-01
1.470286975e+00,1.26963e-248,4.35446e-247,5.60134e-03,8.05926e-01,9.99929e-01
