#,Wave/freq,Total,CO2,H2O,Rayleigh,CIA
4.000000000e-01,9.48619e-03,9.99999e-01,9.99990e-01,9.48628e-03,9.99999e-01
4.020000000e-01,1.04014e-02,9.99999e-01,9.99993e-01,1.04014e-02,9.99999e-01
4.040100000e-01,1.13831e-02,9.99999e-01,9.99997e-01,1.13831e-02,9.99999e-01
4.060300500e-01,1.24352e-02,9.99999e-01,9.99998e-01,1.24352e-02,9.99999e-01
4.080602003e-01,1.35609e-02,9.99999e-01,9.99999e-01,1.35609e-02,9.99999e-01
4.101005013e-01,1.47632e-02,9.99999e-01,9.99999e-01,1.47632e-02,9.99999e-01
4.121510038e-01,1.60452e-02,9.99999e-01,9.99999e-01,1.60452e-02,9.99999e-01
4.142117588e-01,1.74097e-02,9.99999e-01,9.99996e-01,1.74098e-02,9.99999e-01
4.162828176e-01,1.88598e-02,9.99999e-01,9.99988e-01,1.88600e-02,9.99999e-01
4.183642317e-01,2.03986e-02,9.99999e-01,9.99992e-01,2.03988e-02,9.99999e-01
4.204560528e-01,2.20289e-02,9.99999e-01,9.99995e-01,2.20290e-02,9.99999e-01
4.225583331e-01,2.37533e-02,9.99999e-01,9.99997e-01,2.37533e-02,9.99999e-01
4.246711247e-01,2.55745e-02,9.99999e-01,9.99998e-01,2.55745e-02,9.99999e-01
4.267944804e-01,2.74952e-02,9.99999e-01,9.99997e-01,2.74952e-02,9.99999e-01
4.289284528e-01,2.95179e-02,9.99999e-01,9.99998e-01,2.95179e-02,9.99999e-01
4.310730950e-01,3.16450e-02,9.99999e-01,9.99998e-01,3.16450e-02,9.99999e-01
4.332284605e-01,3.38788e-02,9.99999e-01,9.99999e-01,3.38788e-02,9.99999e-01
4.353946028e-01,3.62214e-02,9.99999e-01,9.99999e-01,3.62214e-02,9.99999e-01
4.375715758e-01,3.86749e-02,9.99999e-01,9.99998e-01,3.86749e-02,9.99999e-01
4.397594337e-01,4.12408e-02,9.99999e-01,9.99989e-01,4.12412e-02,9.99999e-01
4.419582309e-01,4.39197e-02,9.99999e-01,9.99948e-01,4.39220e-02,9.99999e-01
4.441680220e-01,4.67170e-02,9.99999e-01,9.99960e-01,4.67188e-02,9.99999e-01
4.463888621e-01,4.96312e-02,9.99999e-01,9.99958e-01,4.96333e-02,9.99999e-01
4.486208064e-01,5.26652e-02,9.99999e-01,9.99974e-01,5.26665e-02,9.99999e-01
4.508639105e-01,5.58190e-02,9.99999e-01,9.99987e-01,5.58197e-02,9.99999e-01
4.531182300e-01,5.90935e-02,9.99999e-01,9.99994e-01,5.90938e-02,9.99999e-01
4.553838212e-01,6.24892e-02,9.99999e-01,9.99996e-01,6.24894e-02,9.99999e-01
4.576607403e-01,6.60073e-02,9.99999e-01,9.99998e-01,6.60074e-02,9.99999e-01
4.599490440e-01,6.96479e-02,9.99999e-01,9.99998e-01,6.96480e-02,9.99999e-01
4.622487892e-01,7.34114e-02,9.99999e-01,9.99999e-01,7.34115e-02,9.99999e-01
4.645600332e-01,7.72979e-02,9.99999e-01,9.99998e-01,7.72979e-02,9.99999e-01
4.668828333e-01,8.13063e-02,9.99999e-01,9.99987e-01,8.13072e-02,9.99999e-01
4.692172475e-01,8.54370e-02,9.99999e-01,9.99973e-01,8.54391e-02,9.99999e-01
4.715633337e-01,8.96916e-02,9.99999e-01,9.99982e-01,8.96932e-02,9.99999e-01
4.739211504e-01,9.40671e-02,9.99999e-01,9.99983e-01,9.40686e-02,9.99999e-01
4.762907561e-01,9.85640e-02,9.99999e-01,9.99991e-01,9.85648e-02,9.99999e-01
4.786722099e-01,1.03180e-01,9.99999e-01,9.99996e-01,1.03181e-01,9.99999e-01
4.810655710e-01,1.07915e-01,9.99999e-01,9.99998e-01,1.07915e-01,9.99999e-01
4.834708988e-01,1.12766e-01,9.99999e-01,9.99989e-01,1.12767e-01,9.99999e-01
4.858882533e-01,1.17732e-01,9.99999e-01,9.99981e-01,1.17734e-01,9.99999e-01
4.883176946e-01,1.22814e-01,9.99999e-01,9.99984e-01,1.22816e-01,9.99999e-01
4.907592831e-01,1.28008e-01,9.99999e-01,9.99985e-01,1.28010e-01,9.99999e-01
4.932130795e-01,1.33314e-01,9.99999e-01,9.99989e-01,1.33315e-01,9.99999e-01
4.956791449e-01,1.38727e-01,9.99999e-01,9.99994e-01,1.38728e-01,9.99999e-01
4.981575406e-01,1.44244e-01,9.99999e-01,9.99973e-01,1.44248e-01,9.99999e-01
5.006483283e-01,1.49861e-01,9.99999e-01,9.99931e-01,1.49871e-01,9.99999e-01
5.031515699e-01,1.55544e-01,9.99999e-01,9.99659e-01,1.55597e-01,9.99999e-01
5.056673278e-01,1.61392e-01,9.99999e-01,9.99820e-01,1.61421e-01,9.99999e-01
5.081956644e-01,1.67304e-01,9.99999e-01,9.99774e-01,1.67342e-01,9.99999e-01
5.107366428e-01,1.73330e-01,9.99999e-01,9.99847e-01,1.73357e-01,9.99999e-01
5.132903260e-01,1.79447e-01,9.99999e-01,9.99912e-01,1.79462e-01,9.99999e-01
5.158567776e-01,1.85649e-01,9.99999e-01,9.99963e-01,1.85656e-01,9.99999e-01
5.184360615e-01,1.91932e-01,9.99999e-01,9.99984e-01,1.91935e-01,9.99999e-01
5.210282418e-01,1.98295e-01,9.99999e-01,9.99993e-01,1.98296e-01,9.99999e-01
5.236333830e-01,2.04731e-01,9.99999e-01,9.99977e-01,2.04736e-01,9.99999e-01
5.262515499e-01,2.11248e-01,9.99999e-01,9.99985e-01,2.11251e-01,9.99999e-01
5.288828077e-01,2.17836e-01,9.99999e-01,9.99986e-01,2.17839e-01,9.99999e-01
5.315272217e-01,2.24494e-01,9.99999e-01,9.99988e-01,2.24496e-01,9.99999e-01
5.341848578e-01,2.31218e-01,9.99999e-01,9.99992e-01,2.31219e-01,9.99999e-01
5.368557821e-01,2.37999e-01,9.99999e-01,9.99973e-01,2.38005e-01,9.99999e-01
5.395400610e-01,2.44827e-01,9.99999e-01,9.99905e-01,2.44850e-01,9.99999e-01
5.422377613e-01,2.51721e-01,9.99999e-01,9.99880e-01,2.51751e-01,9.99999e-01
5.449489501e-01,2.58675e-01,9.99999e-01,9.99887e-01,2.58704e-01,9.99999e-01
5.476736949e-01,2.65680e-01,9.99999e-01,9.99901e-01,2.65706e-01,9.99999e-01
5.504120634e-01,2.72735e-01,9.99999e-01,9.99928e-01,2.72754e-01,9.99999e-01
5.531641237e-01,2.79834e-01,9.99999e-01,9.99963e-01,2.79844e-01,9.99999e-01
5.559299443e-01,2.86968e-01,9.99999e-01,9.99982e-01,2.86973e-01,9.99999e-01
5.587095940e-01,2.94134e-01,9.99999e-01,9.99988e-01,2.94137e-01,9.99999e-01
5.615031420e-01,3.01330e-01,9.99999e-01,9.99987e-01,3.01334e-01,9.99999e-01
5.643106577e-01,3.08554e-01,9.99999e-01,9.99985e-01,3.08559e-01,9.99999e-01
5.671322110e-01,3.15755e-01,9.99999e-01,9.99827e-01,3.15809e-01,9.99999e-01
5.699678720e-01,3.23025e-01,9.99999e-01,9.99823e-01,3.23082e-01,9.99999e-01
5.728177114e-01,3.30311e-01,9.99999e-01,9.99813e-01,3.30373e-01,9.99999e-01
5.756818000e-01,3.37622e-01,9.99999e-01,9.99829e-01,3.37680e-01,9.99999e-01
5.785602090e-01,3.44948e-01,9.99999e-01,9.99851e-01,3.44999e-01,9.99999e-01
5.814530100e-01,3.52276e-01,9.99999e-01,9.99850e-01,3.52328e-01,9.99999e-01
5.843602750e-01,3.59599e-01,9.99999e-01,9.99819e-01,3.59664e-01,9.99999e-01
5.872820764e-01,3.66434e-01,9.99999e-01,9.98450e-01,3.67002e-01,9.99999e-01
5.902184868e-01,3.73647e-01,9.99999e-01,9.98146e-01,3.74341e-01,9.99999e-01
5.931695792e-01,3.81176e-01,9.99999e-01,9.98684e-01,3.81678e-01,9.99999e-01
5.961354271e-01,3.88450e-01,9.99999e-01,9.98562e-01,3.89009e-01,9.99999e-01
5.991161043e-01,3.95917e-01,9.99999e-01,9.98953e-01,3.96331e-01,9.99999e-01
6.021116848e-01,4.03404e-01,9.99999e-01,9.99406e-01,4.03643e-01,9.99999e-01
6.051222432e-01,4.10819e-01,9.99999e-01,9.99699e-01,4.10942e-01,9.99999e-01
6.081478544e-01,4.18170e-01,9.99999e-01,9.99870e-01,4.18224e-01,9.99999e-01
6.111885937e-01,4.25465e-01,9.99999e-01,9.99945e-01,4.25488e-01,9.99999e-01
6.142445367e-01,4.32720e-01,9.99999e-01,9.99975e-01,4.32731e-01,9.99999e-01
6.173157594e-01,4.39944e-01,9.99999e-01,9.99986e-01,4.39950e-01,9.99999e-01
6.204023382e-01,4.47138e-01,9.99999e-01,9.99988e-01,4.47143e-01,9.99999e-01
6.235043498e-01,4.54286e-01,9.99999e-01,9.99947e-01,4.54309e-01,9.99999e-01
6.266218716e-01,4.61321e-01,9.99999e-01,9.99732e-01,4.61445e-01,9.99999e-01
6.297549810e-01,4.68502e-01,9.99999e-01,9.99901e-01,4.68548e-01,9.99999e-01
6.329037559e-01,4.75525e-01,9.99999e-01,9.99806e-01,4.75617e-01,9.99999e-01
6.360682746e-01,4.82570e-01,9.99999e-01,9.99834e-01,4.82650e-01,9.99999e-01
6.392486160e-01,4.89540e-01,9.99999e-01,9.99785e-01,4.89645e-01,9.99999e-01
6.424448591e-01,4.96457e-01,9.99999e-01,9.99710e-01,4.96600e-01,9.99999e-01
6.456570834e-01,5.02838e-01,9.99999e-01,9.98656e-01,5.03514e-01,9.99999e-01
6.488853688e-01,5.09890e-01,9.99999e-01,9.99030e-01,5.10385e-01,9.99999e-01
6.521297956e-01,5.16700e-01,9.99999e-01,9.99011e-01,5.17210e-01,9.99999e-01
6.553904446e-01,5.23472e-01,9.99999e-01,9.99010e-01,5.23990e-01,9.99999e-01
6.586673968e-01,5.30275e-01,9.99999e-01,9.99157e-01,5.30722e-01,9.99999e-01
6.619607338e-01,5.37153e-01,9.99999e-01,9.99530e-01,5.37405e-01,9.99999e-01
6.652705375e-01,5.43884e-01,9.99999e-01,9.99718e-01,5.44038e-01,9.99999e-01
6.685968902e-01,5.50553e-01,9.99999e-01,9.99880e-01,5.50619e-01,9.99999e-01
6.719398746e-01,5.57113e-01,9.99999e-01,9.99939e-01,5.57147e-01,9.99999e-01
6.752995740e-01,5.63603e-01,9.99999e-01,9.99967e-01,5.63621e-01,9.99999e-01
6.786760719e-01,5.70014e-01,9.99999e-01,9.99951e-01,5.70041e-01,9.99999e-01
6.820694522e-01,5.76357e-01,9.99999e-01,9.99917e-01,5.76405e-01,9.99999e-01
6.854797995e-01,5.82650e-01,9.99999e-01,9.99894e-01,5.82712e-01,9.99999e-01
6.889071985e-01,5.88760e-01,9.99999e-01,9.99657e-01,5.88961e-01,9.99999e-01
6.923517345e-01,5.92645e-01,9.99999e-01,9.95787e-01,5.95152e-01,9.99999e-01
6.958134932e-01,6.00007e-01,9.99999e-01,9.97875e-01,6.01284e-01,9.99999e-01
6.992925606e-01,6.06098e-01,9.99999e-01,9.97927e-01,6.07356e-01,9.99999e-01
7.027890234e-01,6.11815e-01,9.99999e-01,9.97468e-01,6.13368e-01,9.99999e-01
7.063029686e-01,6.17999e-01,9.99999e-01,9.97869e-01,6.19318e-01,9.99999e-01
7.098344834e-01,6.23930e-01,9.99999e-01,9.97956e-01,6.25207e-01,9.99999e-01
7.133836558e-01,6.29286e-01,9.99999e-01,9.97229e-01,6.31034e-01,9.99999e-01
7.169505741e-01,6.22787e-01,9.99999e-01,9.77995e-01,6.36799e-01,9.99999e-01
7.205353270e-01,6.35724e-01,9.99999e-01,9.89451e-01,6.42501e-01,9.99999e-01
7.241380036e-01,6.39286e-01,9.99999e-01,9.86339e-01,6.48140e-01,9.99999e-01
7.277586936e-01,6.45663e-01,9.99999e-01,9.87680e-01,6.53716e-01,9.99999e-01
7.313974871e-01,6.50679e-01,9.99999e-01,9.87031e-01,6.59228e-01,9.99999e-01
7.350544745e-01,6.59948e-01,9.99999e-01,9.92886e-01,6.64676e-01,9.99999e-01
7.387297469e-01,6.66556e-01,9.99999e-01,9.94770e-01,6.70060e-01,9.99999e-01
7.424233956e-01,6.73656e-01,9.99999e-01,9.97446e-01,6.75380e-01,9.99999e-01
7.461355126e-01,6.79581e-01,9.99999e-01,9.98449e-01,6.80637e-01,9.99999e-01
7.498661902e-01,6.85336e-01,9.99999e-01,9.99280e-01,6.85829e-01,9.99999e-01
7.536155211e-01,6.90712e-01,9.99999e-01,9.99645e-01,6.90957e-01,9.99999e-01
7.573835987e-01,6.95894e-01,9.99999e-01,9.99817e-01,6.96020e-01,9.99999e-01
7.611705167e-01,7.00941e-01,9.99999e-01,9.99886e-01,7.01020e-01,9.99999e-01
7.649763693e-01,7.05906e-01,9.99999e-01,9.99928e-01,7.05956e-01,9.99999e-01
7.688012511e-01,7.10793e-01,9.99999e-01,9.99949e-01,7.10828e-01,9.99999e-01
7.726452574e-01,7.15608e-01,9.99999e-01,9.99958e-01,7.15637e-01,9.99999e-01
7.765084837e-01,7.20340e-01,9.99999e-01,9.99940e-01,7.20382e-01,9.99999e-01
7.803910261e-01,7.12543e-01,9.82975e-01,9.99745e-01,7.25064e-01,9.99999e-01
7.842929812e-01,6.80684e-01,9.33657e-01,9.99112e-01,7.29683e-01,9.99999e-01
7.882144461e-01,6.80328e-01,9.28219e-01,9.98193e-01,7.34240e-01,9.99999e-01
7.921555184e-01,7.07131e-01,9.58152e-01,9.99015e-01,7.38733e-01,9.99999e-01
7.961162960e-01,7.21216e-01,9.72173e-01,9.98234e-01,7.43165e-01,9.99999e-01
8.000968774e-01,7.34674e-01,9.84783e-01,9.97977e-01,7.47536e-01,9.99999e-01
8.040973618e-01,7.44420e-01,9.92134e-01,9.97972e-01,7.51844e-01,9.99999e-01
8.081178486e-01,7.49875e-01,9.96364e-01,9.95392e-01,7.56092e-01,9.99999e-01
8.121584379e-01,7.44953e-01,9.98891e-01,9.80922e-01,7.60279e-01,9.99999e-01
8.162192301e-01,7.47152e-01,9.99754e-01,9.77665e-01,7.64406e-01,9.99999e-01
8.203003262e-01,7.59614e-01,9.99996e-01,9.88474e-01,7.68473e-01,9.99999e-01
8.244018279e-01,7.60449e-01,9.99999e-01,9.84423e-01,7.72481e-01,9.99999e-01
8.285238370e-01,7.65969e-01,9.99999e-01,9.86526e-01,7.76430e-01,9.99999e-01
8.326664562e-01,7.69744e-01,9.99999e-01,9.86445e-01,7.80321e-01,9.99999e-01
8.368297885e-01,7.76581e-01,9.99999e-01,9.90342e-01,7.84153e-01,9.99999e-01
8.410139374e-01,7.83405e-01,9.99999e-01,9.94258e-01,7.87929e-01,9.99999e-01
8.452190071e-01,7.89421e-01,9.99999e-01,9.97187e-01,7.91647e-01,9.99999e-01
8.494451021e-01,7.94005e-01,9.99999e-01,9.98359e-01,7.95309e-01,9.99999e-01
8.536923276e-01,7.98143e-01,9.99999e-01,9.99034e-01,7.98915e-01,9.99999e-01
8.579607893e-01,8.01986e-01,9.99999e-01,9.99402e-01,8.02465e-01,9.99999e-01
8.622505932e-01,8.05656e-01,9.99999e-01,9.99621e-01,8.05961e-01,9.99999e-01
8.665618462e-01,7.72531e-01,9.54664e-01,9.99764e-01,8.09403e-01,9.99999e-01
8.708946554e-01,6.79768e-01,8.36559e-01,9.99729e-01,8.12790e-01,9.99999e-01
8.752491287e-01,7.08508e-01,8.68444e-01,9.99639e-01,8.16125e-01,9.99999e-01
8.796253743e-01,7.58688e-01,9.26356e-01,9.99498e-01,8.19407e-01,9.99999e-01
8.840235012e-01,7.90368e-01,9.61319e-01,9.99427e-01,8.22637e-01,9.99999e-01
8.884436187e-01,8.11429e-01,9.84678e-01,9.97857e-01,8.25816e-01,9.99999e-01
8.928858368e-01,8.05632e-01,9.93760e-01,9.77956e-01,8.28943e-01,9.99999e-01
8.973502660e-01,7.98984e-01,9.98491e-01,9.61730e-01,8.32021e-01,9.99999e-01
9.018370173e-01,8.18615e-01,9.99834e-01,9.80480e-01,8.35049e-01,9.99998e-01
9.063462024e-01,8.19697e-01,9.95532e-01,9.82454e-01,8.38027e-01,9.99998e-01
9.108779334e-01,8.10174e-01,9.90130e-01,9.72944e-01,8.40957e-01,9.99998e-01
9.154323231e-01,8.16190e-01,9.97710e-01,9.69432e-01,8.43839e-01,9.99998e-01
9.200094847e-01,7.97688e-01,9.64689e-01,9.76036e-01,8.46674e-01,9.99998e-01
9.246095321e-01,7.78052e-01,9.52458e-01,9.61229e-01,8.49462e-01,9.99997e-01
9.292325798e-01,6.31772e-01,9.61810e-01,7.69099e-01,8.52204e-01,9.99995e-01
9.338787427e-01,5.89902e-01,9.63695e-01,7.14559e-01,8.54901e-01,9.99994e-01
9.385481364e-01,7.30038e-01,9.73234e-01,8.74051e-01,8.57552e-01,9.99994e-01
9.432408771e-01,6.98270e-01,9.83606e-01,8.24944e-01,8.60159e-01,9.99994e-01
9.479570815e-01,6.53352e-01,9.91538e-01,7.63587e-01,8.62722e-01,9.99994e-01
9.526968669e-01,7.08159e-01,9.95922e-01,8.21650e-01,8.65242e-01,9.99995e-01
9.574603512e-01,7.25368e-01,9.98257e-01,8.37362e-01,8.67719e-01,9.99996e-01
9.622476530e-01,7.53688e-01,9.99457e-01,8.66612e-01,8.70155e-01,9.99997e-01
9.670588912e-01,8.03332e-01,9.99837e-01,9.20819e-01,8.72549e-01,9.99998e-01
9.718941857e-01,8.31093e-01,9.99988e-01,9.49937e-01,8.74901e-01,9.99998e-01
9.767536566e-01,8.40604e-01,9.99999e-01,9.58265e-01,8.77214e-01,9.99999e-01
9.816374249e-01,8.52264e-01,9.99999e-01,9.69047e-01,8.79487e-01,9.99999e-01
9.865456120e-01,8.64590e-01,9.99999e-01,9.80571e-01,8.81721e-01,9.99999e-01
9.914783401e-01,8.73262e-01,9.99999e-01,9.87947e-01,8.83916e-01,9.99999e-01
9.964357318e-01,8.80244e-01,9.99999e-01,9.93421e-01,8.86073e-01,9.99999e-01
1.001417910e+00,8.84690e-01,9.99999e-01,9.96056e-01,8.88192e-01,9.99999e-01
1.006425000e+00,8.88267e-01,9.99999e-01,9.97743e-01,8.90275e-01,9.99999e-01
1.011457125e+00,8.91076e-01,9.99999e-01,9.98603e-01,8.92321e-01,9.99999e-01
1.016514411e+00,8.93482e-01,9.99999e-01,9.99050e-01,8.94331e-01,9.99999e-01
1.021596983e+00,8.95603e-01,9.99972e-01,9.99242e-01,8.96306e-01,9.99999e-01
1.026704968e+00,8.96148e-01,9.98252e-01,9.99408e-01,8.98246e-01,9.99999e-01
1.031838492e+00,8.74194e-01,9.71568e-01,9.99571e-01,9.00152e-01,9.99999e-01
1.036997685e+00,2.72474e-01,3.02134e-01,9.99744e-01,9.02025e-01,9.99999e-01
1.042182673e+00,3.33100e-01,3.68635e-01,9.99693e-01,9.03864e-01,9.99999e-01
1.047393587e+00,3.00709e-01,3.32151e-01,9.99595e-01,9.05670e-01,9.99999e-01
1.052630555e+00,5.15184e-02,5.67982e-02,9.99443e-01,9.07444e-01,9.99999e-01
1.057893707e+00,9.57329e-02,1.05373e-01,9.99069e-01,9.09187e-01,9.99999e-01
1.063183176e+00,1.78226e-01,1.95905e-01,9.98471e-01,9.10898e-01,9.99999e-01
1.068499092e+00,3.06471e-01,3.36615e-01,9.97446e-01,9.12579e-01,9.99999e-01
1.073841587e+00,4.60578e-01,5.05178e-01,9.97002e-01,9.14229e-01,9.99999e-01
1.079210795e+00,5.93051e-01,6.49920e-01,9.96177e-01,9.15850e-01,9.99999e-01
1.084606849e+00,7.21562e-01,7.90980e-01,9.94203e-01,9.17442e-01,9.99999e-01
1.090029883e+00,8.07065e-01,8.85534e-01,9.91605e-01,9.19004e-01,9.99999e-01
1.095480033e+00,8.47645e-01,9.42045e-01,9.77353e-01,9.20539e-01,9.99998e-01
1.100957433e+00,8.45269e-01,9.71666e-01,9.43336e-01,9.22046e-01,9.99998e-01
1.106462220e+00,7.85717e-01,9.88216e-01,8.60748e-01,9.23525e-01,9.99997e-01
1.111994531e+00,6.72130e-01,9.95617e-01,7.29733e-01,9.24977e-01,9.99995e-01
1.117554504e+00,5.54605e-01,9.98935e-01,5.99245e-01,9.26403e-01,9.99993e-01
1.123142276e+00,6.33244e-01,9.99930e-01,6.82557e-01,9.27803e-01,9.99992e-01
1.128757988e+00,7.29044e-01,9.99999e-01,7.84618e-01,9.29177e-01,9.99991e-01
1.134401778e+00,5.21856e-01,9.99999e-01,5.60823e-01,9.30527e-01,9.99990e-01
1.140073787e+00,8.07806e-01,9.99999e-01,8.66889e-01,9.31851e-01,9.99992e-01
1.145774156e+00,6.91291e-01,9.99999e-01,7.40817e-01,9.33151e-01,9.99993e-01
1.151503026e+00,6.67056e-01,9.99999e-01,7.13869e-01,9.34427e-01,9.99994e-01
1.157260541e+00,7.10363e-01,9.99999e-01,7.59197e-01,9.35680e-01,9.99995e-01
1.163046844e+00,7.65248e-01,9.99999e-01,8.16781e-01,9.36909e-01,9.99997e-01
1.168862078e+00,8.15847e-01,9.99999e-01,8.69665e-01,9.38116e-01,9.99998e-01
1.174706389e+00,8.61746e-01,9.99999e-01,9.17433e-01,9.39301e-01,9.99998e-01
1.180579921e+00,8.92466e-01,9.99999e-01,9.48963e-01,9.40463e-01,9.99999e-01
1.186482820e+00,9.14155e-01,9.99995e-01,9.70852e-01,9.41604e-01,9.99999e-01
1.192415234e+00,9.20754e-01,9.93676e-01,9.82878e-01,9.42724e-01,9.99999e-01
1.198377311e+00,5.47248e-01,5.86977e-01,9.85515e-01,9.43823e-01,9.99999e-01
1.204369197e+00,2.72575e-06,2.90775e-06,9.86295e-01,9.44901e-01,9.99999e-01
1.210391043e+00,1.30805e-19,1.39293e-19,9.86900e-01,9.45960e-01,9.99999e-01
1.216442998e+00,3.20440e-17,3.40731e-17,9.88877e-01,9.46998e-01,9.99999e-01
1.222525213e+00,5.74781e-17,6.09088e-17,9.91324e-01,9.48017e-01,9.99999e-01
1.228637839e+00,4.88287e-13,5.16750e-13,9.93964e-01,9.49017e-01,9.99999e-01
1.234781029e+00,3.99418e-09,4.21293e-09,9.95522e-01,9.49999e-01,9.99999e-01
1.240954934e+00,3.56482e-06,3.75585e-06,9.97163e-01,9.50962e-01,9.99999e-01
1.247159708e+00,8.44844e-04,8.88956e-04,9.97793e-01,9.51907e-01,9.99999e-01
1.253395507e+00,2.02973e-02,2.13365e-02,9.98036e-01,9.52834e-01,9.99999e-01
1.259662485e+00,1.07582e-01,1.12986e-01,9.98129e-01,9.53744e-01,9.99999e-01
1.265960797e+00,2.70000e-01,2.83589e-01,9.97020e-01,9.54636e-01,9.99999e-01
1.272290601e+00,5.67559e-01,5.96671e-01,9.95301e-01,9.55512e-01,9.99999e-01
1.278652054e+00,4.98187e-01,5.25193e-01,9.90677e-01,9.56371e-01,9.99999e-01
1.285045314e+00,3.28921e-02,3.46745e-02,9.83113e-01,9.57214e-01,9.99999e-01
1.291470541e+00,5.46124e-03,5.82943e-03,9.70748e-01,9.58042e-01,9.99998e-01
1.297927893e+00,7.61783e-02,8.17802e-02,9.58616e-01,9.58853e-01,9.99998e-01
1.304417533e+00,3.58382e-01,3.91506e-01,9.51458e-01,9.59649e-01,9.99997e-01
1.310939621e+00,6.93188e-02,7.47940e-02,9.38993e-01,9.60430e-01,9.99996e-01
1.317494319e+00,3.36179e-07,3.64093e-07,9.40145e-01,9.61196e-01,9.99994e-01
1.324081790e+00,1.25129e-04,1.36204e-04,9.12663e-01,9.61948e-01,9.99990e-01
1.330702199e+00,2.84361e-03,3.77851e-03,6.61500e-01,9.62685e-01,9.99983e-01
1.337355710e+00,1.78702e-03,3.93400e-03,3.39037e-01,9.63409e-01,9.99971e-01
1.344042489e+00,9.72437e-05,6.86263e-04,5.87386e-02,9.64118e-01,9.99939e-01
1.350762701e+00,2.77720e-05,3.01429e-03,4.84317e-03,9.64815e-01,9.99903e-01
1.357516515e+00,3.58224e-05,2.19634e-02,8.95497e-04,9.65497e-01,9.99880e-01
1.364304097e+00,1.03343e-03,9.31519e-02,8.57305e-03,9.66167e-01,9.99872e-01
1.371125618e+00,1.41217e-02,2.85787e-01,4.21729e-02,9.66824e-01,9.99871e-01
1.377981246e+00,2.50180e-02,3.67127e-01,6.46975e-02,9.67469e-01,9.99861e-01
1.384871152e+00,4.13902e-03,5.58494e-01,7.02840e-03,9.68101e-01,9.99865e-01
1.391795508e+00,6.97830e-03,5.84064e-01,1.14460e-02,9.68721e-01,9.99886e-01
1.398754485e+00,1.47428e-02,7.18566e-01,2.06539e-02,9.69329e-01,9.99902e-01
1.405748258e+00,1.49190e-02,7.83772e-01,1.89192e-02,9.69926e-01,9.99912e-01
1.412776999e+00,1.88767e-02,8.57757e-01,2.22105e-02,9.70511e-01,9.99929e-01
1.419840884e+00,2.36471e-02,7.93166e-01,2.73848e-02,9.71085e-01,9.99947e-01
1.426940089e+00,1.62980e-02,1.08273e-01,6.21575e-02,9.71648e-01,9.99967e-01
1.434074789e+00,2.23289e-274,7.86409e-274,1.18223e-01,9.72200e-01,9.99979e-01
1.441245163e+00,0.00000e+00,0.00000e+00,2.06636e-01,9.72742e-01,9.99983e-01
1.448451389e+00,0.00000e+00,0.00000e+00,3.21998e-01,9.73273e-01,9.99986e-01
1.455693646e+00,6.83236e-149,1.00969e-148,4.86026e-01,9.73794e-01,9.99988e-01
1.462972114e+00,7.33010e-73,1.08270e-72,5.38411e-01,9.74305e-01,9.99990e-01
1.470286975e+00,2.10009e-31,3.19485e-31,4.84416e-01,9.74806e-01,9.99991e-01
