#,Wave/freq,Total,CO2,H2O,Rayleigh,CIA
4.000000000e-01,4.13823e-05,9.99999e-01,9.99979e-01,4.13831e-05,9.99999e-01
4.020000000e-01,5.05223e-05,9.99999e-01,9.99987e-01,5.05229e-05,9.99999e-01
4.040100000e-01,6.14260e-05,9.99999e-01,9.99994e-01,6.14264e-05,9.99999e-01
4.060300500e-01,7.43952e-05,9.99999e-01,9.99998e-01,7.43952e-05,9.99999e-01
4.080602003e-01,8.97619e-05,9.99999e-01,9.99999e-01,8.97620e-05,9.99999e-01
4.101005013e-01,1.07902e-04,9.99999e-01,9.99999e-01,1.07902e-04,9.99999e-01
4.121510038e-01,1.29237e-04,9.99999e-01,9.99998e-01,1.29237e-04,9.99999e-01
4.142117588e-01,1.54239e-04,9.99999e-01,9.99993e-01,1.54240e-04,9.99999e-01
4.162828176e-01,1.83433e-04,9.99999e-01,9.99975e-01,1.83438e-04,9.99999e-01
4.183642317e-01,2.17414e-04,9.99999e-01,9.99984e-01,2.17417e-04,9.99999e-01
4.204560528e-01,2.56825e-04,9.99999e-01,9.99990e-01,2.56828e-04,9.99999e-01
4.225583331e-01,3.02384e-04,9.99999e-01,9.99996e-01,3.02385e-04,9.99999e-01
4.246711247e-01,3.54876e-04,9.99999e-01,9.99996e-01,3.54877e-04,9.99999e-01
4.267944804e-01,4.15165e-04,9.99999e-01,9.99995e-01,4.15166e-04,9.99999e-01
4.289284528e-01,4.84194e-04,9.99999e-01,9.99996e-01,4.84195e-04,9.99999e-01
4.310730950e-01,5.62988e-04,9.99999e-01,9.99998e-01,5.62989e-04,9.99999e-01
4.332284605e-01,6.52657e-04,9.99999e-01,9.99999e-01,6.52658e-04,9.99999e-01
4.353946028e-01,7.54403e-04,9.99999e-01,9.99999e-01,7.54403e-04,9.99999e-01
4.375715758e-01,8.69515e-04,9.99999e-01,9.99997e-01,8.69517e-04,9.99999e-01
4.397594337e-01,9.99368e-04,9.99999e-01,9.99977e-01,9.99390e-04,9.99999e-01
4.419582309e-01,1.14538e-03,9.99999e-01,9.99888e-01,1.14551e-03,9.99999e-01
4.441680220e-01,1.30934e-03,9.99999e-01,9.99915e-01,1.30945e-03,9.99999e-01
4.463888621e-01,1.49278e-03,9.99999e-01,9.99910e-01,1.49291e-03,9.99999e-01
4.486208064e-01,1.69758e-03,9.99999e-01,9.99944e-01,1.69767e-03,9.99999e-01
4.508639105e-01,1.92557e-03,9.99999e-01,9.99973e-01,1.92562e-03,9.99999e-01
4.531182300e-01,2.17873e-03,9.99999e-01,9.99989e-01,2.17875e-03,9.99999e-01
4.553838212e-01,2.45913e-03,9.99999e-01,9.99992e-01,2.45915e-03,9.99999e-01
4.576607403e-01,2.76899e-03,9.99999e-01,9.99996e-01,2.76900e-03,9.99999e-01
4.599490440e-01,3.11059e-03,9.99999e-01,9.99997e-01,3.11060e-03,9.99999e-01
4.622487892e-01,3.48631e-03,9.99999e-01,9.99999e-01,3.48631e-03,9.99999e-01
4.645600332e-01,3.89861e-03,9.99999e-01,9.99997e-01,3.89862e-03,9.99999e-01
4.668828333e-01,4.34996e-03,9.99999e-01,9.99973e-01,4.35007e-03,9.99999e-01
4.692172475e-01,4.84304e-03,9.99999e-01,9.99944e-01,4.84330e-03,9.99999e-01
4.715633337e-01,5.38084e-03,9.99999e-01,9.99963e-01,5.38104e-03,9.99999e-01
4.739211504e-01,5.96584e-03,9.99999e-01,9.99964e-01,5.96605e-03,9.99999e-01
4.762907561e-01,6.60108e-03,9.99999e-01,9.99981e-01,6.60120e-03,9.99999e-01
4.786722099e-01,7.28932e-03,9.99999e-01,9.99992e-01,7.28938e-03,9.99999e-01
4.810655710e-01,8.03353e-03,9.99999e-01,9.99997e-01,8.03355e-03,9.99999e-01
4.834708988e-01,8.83652e-03,9.99999e-01,9.99977e-01,8.83672e-03,9.99999e-01
4.858882533e-01,9.70152e-03,9.99999e-01,9.99960e-01,9.70190e-03,9.99999e-01
4.883176946e-01,1.06318e-02,9.99999e-01,9.99966e-01,1.06322e-02,9.99999e-01
4.907592831e-01,1.16302e-02,9.99999e-01,9.99969e-01,1.16306e-02,9.99999e-01
4.932130795e-01,1.26999e-02,9.99999e-01,9.99978e-01,1.27002e-02,9.99999e-01
4.956791449e-01,1.38439e-02,9.99999e-01,9.99988e-01,1.38441e-02,9.99999e-01
4.981575406e-01,1.50645e-02,9.99999e-01,9.99943e-01,1.50653e-02,9.99999e-01
5.006483283e-01,1.63646e-02,9.99999e-01,9.99852e-01,1.63670e-02,9.99999e-01
5.031515699e-01,1.77389e-02,9.99999e-01,9.99262e-01,1.77520e-02,9.99999e-01
5.056673278e-01,1.92159e-02,9.99999e-01,9.99612e-01,1.92233e-02,9.99999e-01
5.081956644e-01,2.07738e-02,9.99999e-01,9.99511e-01,2.07839e-02,9.99999e-01
5.107366428e-01,2.24292e-02,9.99999e-01,9.99670e-01,2.24365e-02,9.99999e-01
5.132903260e-01,2.41795e-02,9.99999e-01,9.99811e-01,2.41840e-02,9.99999e-01
5.158567776e-01,2.60270e-02,9.99999e-01,9.99920e-01,2.60290e-02,9.99999e-01
5.184360615e-01,2.79732e-02,9.99999e-01,9.99967e-01,2.79741e-02,9.99999e-01
5.210282418e-01,3.00215e-02,9.99999e-01,9.99987e-01,3.00218e-02,9.99999e-01
5.236333830e-01,3.21729e-02,9.99999e-01,9.99951e-01,3.21745e-02,9.99999e-01
5.262515499e-01,3.44333e-02,9.99999e-01,9.99969e-01,3.44343e-02,9.99999e-01
5.288828077e-01,3.68025e-02,9.99999e-01,9.99971e-01,3.68036e-02,9.99999e-01
5.315272217e-01,3.92832e-02,9.99999e-01,9.99975e-01,3.92841e-02,9.99999e-01
5.341848578e-01,4.18772e-02,9.99999e-01,9.99983e-01,4.18779e-02,9.99999e-01
5.368557821e-01,4.45841e-02,9.99999e-01,9.99943e-01,4.45866e-02,9.99999e-01
5.395400610e-01,4.74020e-02,9.99999e-01,9.99795e-01,4.74117e-02,9.99999e-01
5.422377613e-01,5.03417e-02,9.99999e-01,9.99740e-01,5.03547e-02,9.99999e-01
5.449489501e-01,5.34038e-02,9.99999e-01,9.99756e-01,5.34168e-02,9.99999e-01
5.476736949e-01,5.65870e-02,9.99999e-01,9.99786e-01,5.65991e-02,9.99999e-01
5.504120634e-01,5.98932e-02,9.99999e-01,9.99844e-01,5.99024e-02,9.99999e-01
5.531641237e-01,6.33227e-02,9.99999e-01,9.99921e-01,6.33276e-02,9.99999e-01
5.559299443e-01,6.68726e-02,9.99999e-01,9.99961e-01,6.68751e-02,9.99999e-01
5.587095940e-01,7.05437e-02,9.99999e-01,9.99975e-01,7.05454e-02,9.99999e-01
5.615031420e-01,7.43366e-02,9.99999e-01,9.99973e-01,7.43385e-02,9.99999e-01
5.643106577e-01,7.82523e-02,9.99999e-01,9.99969e-01,7.82547e-02,9.99999e-01
5.671322110e-01,8.22631e-02,9.99999e-01,9.99628e-01,8.22936e-02,9.99999e-01
5.699678720e-01,8.64220e-02,9.99999e-01,9.99617e-01,8.64551e-02,9.99999e-01
5.728177114e-01,9.07019e-02,9.99999e-01,9.99596e-01,9.07385e-02,9.99999e-01
5.756818000e-01,9.51081e-02,9.99999e-01,9.99630e-01,9.51432e-02,9.99999e-01
5.785602090e-01,9.96363e-02,9.99999e-01,9.99678e-01,9.96683e-02,9.99999e-01
5.814530100e-01,1.04279e-01,9.99999e-01,9.99676e-01,1.04313e-01,9.99999e-01
5.843602750e-01,1.09033e-01,9.99999e-01,9.99610e-01,1.09076e-01,9.99999e-01
5.872820764e-01,1.13574e-01,9.99999e-01,9.96651e-01,1.13956e-01,9.99999e-01
5.902184868e-01,1.18474e-01,9.99999e-01,9.95988e-01,1.18951e-01,9.99999e-01
5.931695792e-01,1.23707e-01,9.99999e-01,9.97154e-01,1.24060e-01,9.99999e-01
5.961354271e-01,1.28879e-01,9.99999e-01,9.96889e-01,1.29281e-01,9.99999e-01
5.991161043e-01,1.34307e-01,9.99999e-01,9.97733e-01,1.34612e-01,9.99999e-01
6.021116848e-01,1.39871e-01,9.99999e-01,9.98715e-01,1.40051e-01,9.99999e-01
6.051222432e-01,1.45501e-01,9.99999e-01,9.99350e-01,1.45596e-01,9.99999e-01
6.081478544e-01,1.51202e-01,9.99999e-01,9.99719e-01,1.51244e-01,9.99999e-01
6.111885937e-01,1.56975e-01,9.99999e-01,9.99881e-01,1.56994e-01,9.99999e-01
6.142445367e-01,1.62833e-01,9.99999e-01,9.99946e-01,1.62842e-01,9.99999e-01
6.173157594e-01,1.68781e-01,9.99999e-01,9.99970e-01,1.68786e-01,9.99999e-01
6.204023382e-01,1.74818e-01,9.99999e-01,9.99974e-01,1.74823e-01,9.99999e-01
6.235043498e-01,1.80930e-01,9.99999e-01,9.99887e-01,1.80950e-01,9.99999e-01
6.266218716e-01,1.87056e-01,9.99999e-01,9.99420e-01,1.87164e-01,9.99999e-01
6.297549810e-01,1.93422e-01,9.99999e-01,9.99787e-01,1.93463e-01,9.99999e-01
6.329037559e-01,1.99760e-01,9.99999e-01,9.99581e-01,1.99843e-01,9.99999e-01
6.360682746e-01,2.06228e-01,9.99999e-01,9.99641e-01,2.06302e-01,9.99999e-01
6.392486160e-01,2.12737e-01,9.99999e-01,9.99536e-01,2.12835e-01,9.99999e-01
6.424448591e-01,2.19303e-01,9.99999e-01,9.99373e-01,2.19440e-01,9.99999e-01
6.456570834e-01,2.25457e-01,9.99999e-01,9.97095e-01,2.26114e-01,9.99999e-01
6.488853688e-01,2.32363e-01,9.99999e-01,9.97900e-01,2.32852e-01,9.99999e-01
6.521297956e-01,2.39140e-01,9.99999e-01,9.97860e-01,2.39653e-01,9.99999e-01
6.553904446e-01,2.45984e-01,9.99999e-01,9.97858e-01,2.46511e-01,9.99999e-01
6.586673968e-01,2.52963e-01,9.99999e-01,9.98175e-01,2.53425e-01,9.99999e-01
6.619607338e-01,2.60126e-01,9.99999e-01,9.98983e-01,2.60390e-01,9.99999e-01
6.652705375e-01,2.67241e-01,9.99999e-01,9.99389e-01,2.67404e-01,9.99999e-01
6.685968902e-01,2.74391e-01,9.99999e-01,9.99740e-01,2.74462e-01,9.99999e-01
6.719398746e-01,2.81525e-01,9.99999e-01,9.99868e-01,2.81562e-01,9.99999e-01
6.752995740e-01,2.88680e-01,9.99999e-01,9.99930e-01,2.88700e-01,9.99999e-01
6.786760719e-01,2.95841e-01,9.99999e-01,9.99895e-01,2.95872e-01,9.99999e-01
6.820694522e-01,3.03021e-01,9.99999e-01,9.99820e-01,3.03076e-01,9.99999e-01
6.854797995e-01,3.10236e-01,9.99999e-01,9.99771e-01,3.10307e-01,9.99999e-01
6.889071985e-01,3.17384e-01,9.99999e-01,9.99437e-01,3.17563e-01,9.99999e-01
6.923517345e-01,3.21899e-01,9.99999e-01,9.90944e-01,3.24840e-01,9.99999e-01
6.958134932e-01,3.30607e-01,9.99999e-01,9.95398e-01,3.32136e-01,9.99999e-01
6.992925606e-01,3.37926e-01,9.99999e-01,9.95520e-01,3.39446e-01,9.99999e-01
7.027890234e-01,3.44870e-01,9.99999e-01,9.94524e-01,3.46768e-01,9.99999e-01
7.063029686e-01,3.52467e-01,9.99999e-01,9.95390e-01,3.54099e-01,9.99999e-01
7.098344834e-01,3.59837e-01,9.99999e-01,9.95577e-01,3.61435e-01,9.99999e-01
7.133836558e-01,3.66569e-01,9.99999e-01,9.94019e-01,3.68774e-01,9.99999e-01
7.169505741e-01,3.58483e-01,9.99999e-01,9.53126e-01,3.76113e-01,9.99998e-01
7.205353270e-01,3.74744e-01,9.99999e-01,9.77301e-01,3.83448e-01,9.99998e-01
7.241380036e-01,3.79332e-01,9.99999e-01,9.70711e-01,3.90777e-01,9.99998e-01
7.277586936e-01,3.87574e-01,9.99999e-01,9.73564e-01,3.98098e-01,9.99998e-01
7.313974871e-01,3.94110e-01,9.99999e-01,9.72135e-01,4.05407e-01,9.99999e-01
7.350544745e-01,4.06371e-01,9.99999e-01,9.84659e-01,4.12702e-01,9.99999e-01
7.387297469e-01,4.15235e-01,9.99999e-01,9.88703e-01,4.19980e-01,9.99999e-01
7.424233956e-01,4.24878e-01,9.99999e-01,9.94473e-01,4.27239e-01,9.99999e-01
7.461355126e-01,4.33017e-01,9.99999e-01,9.96642e-01,4.34476e-01,9.99999e-01
7.498661902e-01,4.41001e-01,9.99999e-01,9.98440e-01,4.41689e-01,9.99999e-01
7.536155211e-01,4.48532e-01,9.99999e-01,9.99232e-01,4.48876e-01,9.99999e-01
7.573835987e-01,4.55855e-01,9.99999e-01,9.99604e-01,4.56035e-01,9.99999e-01
7.611705167e-01,4.63049e-01,9.99999e-01,9.99754e-01,4.63163e-01,9.99999e-01
7.649763693e-01,4.70185e-01,9.99999e-01,9.99845e-01,4.70258e-01,9.99999e-01
7.688012511e-01,4.77267e-01,9.99999e-01,9.99892e-01,4.77318e-01,9.99999e-01
7.726452574e-01,4.84300e-01,9.99999e-01,9.99911e-01,4.84342e-01,9.99999e-01
7.765084837e-01,4.91266e-01,9.99999e-01,9.99872e-01,4.91328e-01,9.99999e-01
7.803910261e-01,4.80797e-01,9.65438e-01,9.99450e-01,4.98273e-01,9.99999e-01
7.842929812e-01,4.35596e-01,8.63844e-01,9.98081e-01,5.05177e-01,9.99999e-01
7.882144461e-01,4.35528e-01,8.53787e-01,9.96091e-01,5.12037e-01,9.99999e-01
7.921555184e-01,4.72183e-01,9.11953e-01,9.97868e-01,5.18852e-01,9.99999e-01
7.961162960e-01,4.92591e-01,9.40721e-01,9.96182e-01,5.25620e-01,9.99999e-01
8.000968774e-01,5.12708e-01,9.67342e-01,9.95623e-01,5.32340e-01,9.99999e-01
8.040973618e-01,5.27545e-01,9.83029e-01,9.95614e-01,5.39011e-01,9.99999e-01
8.081178486e-01,5.35969e-01,9.92138e-01,9.90060e-01,5.45631e-01,9.99999e-01
8.121584379e-01,5.28435e-01,9.97596e-01,9.59248e-01,5.52200e-01,9.99999e-01
8.162192301e-01,5.31814e-01,9.99468e-01,9.52348e-01,5.58715e-01,9.99998e-01
8.203003262e-01,5.51289e-01,9.99992e-01,9.75434e-01,5.65176e-01,9.99998e-01
8.244018279e-01,5.52614e-01,9.99999e-01,9.66814e-01,5.71583e-01,9.99998e-01
8.285238370e-01,5.61226e-01,9.99999e-01,9.71092e-01,5.77933e-01,9.99998e-01
8.326664562e-01,5.67236e-01,9.99999e-01,9.70918e-01,5.84226e-01,9.99999e-01
8.368297885e-01,5.78180e-01,9.99999e-01,9.79201e-01,5.90461e-01,9.99999e-01
8.410139374e-01,5.89241e-01,9.99999e-01,9.87602e-01,5.96638e-01,9.99999e-01
8.452190071e-01,5.99087e-01,9.99999e-01,9.93913e-01,6.02755e-01,9.99999e-01
8.494451021e-01,6.06652e-01,9.99999e-01,9.96450e-01,6.08813e-01,9.99999e-01
8.536923276e-01,6.13524e-01,9.99999e-01,9.97907e-01,6.14810e-01,9.99999e-01
8.579607893e-01,6.19943e-01,9.99999e-01,9.98706e-01,6.20746e-01,9.99999e-01
8.622505932e-01,6.26107e-01,9.99999e-01,9.99180e-01,6.26620e-01,9.99999e-01
8.665618462e-01,5.83770e-01,9.23506e-01,9.99490e-01,6.32432e-01,9.99999e-01
8.708946554e-01,4.38558e-01,6.87586e-01,9.99415e-01,6.38182e-01,9.99999e-01
8.752491287e-01,4.76592e-01,7.40762e-01,9.99218e-01,6.43868e-01,9.99999e-01
8.796253743e-01,5.50391e-01,8.48311e-01,9.98914e-01,6.49492e-01,9.99999e-01
8.840235012e-01,6.00770e-01,9.18253e-01,9.98761e-01,6.55052e-01,9.99999e-01
8.884436187e-01,6.35901e-01,9.67107e-01,9.95384e-01,6.60549e-01,9.99999e-01
8.928858368e-01,6.26239e-01,9.86521e-01,9.53061e-01,6.65982e-01,9.99998e-01
8.973502660e-01,6.15188e-01,9.96731e-01,9.19289e-01,6.71351e-01,9.99998e-01
9.018370173e-01,6.48243e-01,9.99640e-01,9.58344e-01,6.76655e-01,9.99998e-01
9.063462024e-01,6.50260e-01,9.90416e-01,9.62553e-01,6.81896e-01,9.99998e-01
9.108779334e-01,6.33999e-01,9.78746e-01,9.42551e-01,6.87073e-01,9.99997e-01
9.154323231e-01,6.44157e-01,9.95037e-01,9.35159e-01,6.92185e-01,9.99997e-01
9.200094847e-01,6.15499e-01,9.27737e-01,9.48992e-01,6.97233e-01,9.99997e-01
9.246095321e-01,5.82139e-01,9.00044e-01,9.19322e-01,7.02218e-01,9.99995e-01
9.292325798e-01,3.77439e-01,9.19787e-01,5.75207e-01,7.07138e-01,9.99991e-01
9.338787427e-01,3.27388e-01,9.23283e-01,4.93957e-01,7.11995e-01,9.99989e-01
9.385481364e-01,5.10528e-01,9.43005e-01,7.52815e-01,7.16788e-01,9.99989e-01
9.432408771e-01,4.67886e-01,9.64820e-01,6.70820e-01,7.21518e-01,9.99987e-01
9.479570815e-01,4.11839e-01,9.81754e-01,5.77086e-01,7.26185e-01,9.99989e-01
9.526968669e-01,4.81435e-01,9.91184e-01,6.64147e-01,7.30789e-01,9.99991e-01
9.574603512e-01,5.02176e-01,9.96225e-01,6.85348e-01,7.35330e-01,9.99993e-01
9.622476530e-01,5.43884e-01,9.98823e-01,7.35986e-01,7.39809e-01,9.99995e-01
9.670588912e-01,6.23247e-01,9.99647e-01,8.37725e-01,7.44226e-01,9.99997e-01
9.718941857e-01,6.69977e-01,9.99975e-01,8.95016e-01,7.48581e-01,9.99998e-01
9.767536566e-01,6.86632e-01,9.99999e-01,9.12013e-01,7.52875e-01,9.99998e-01
9.816374249e-01,7.07311e-01,9.99999e-01,9.34227e-01,7.57109e-01,9.99998e-01
9.865456120e-01,7.29615e-01,9.99999e-01,9.58404e-01,7.61281e-01,9.99999e-01
9.914783401e-01,7.45548e-01,9.99999e-01,9.74070e-01,7.65394e-01,9.99999e-01
9.964357318e-01,7.58521e-01,9.99999e-01,9.85800e-01,7.69446e-01,9.99999e-01
1.001417910e+00,7.66845e-01,9.99999e-01,9.91473e-01,7.73440e-01,9.99999e-01
1.006425000e+00,7.73580e-01,9.99999e-01,9.95118e-01,7.77375e-01,9.99999e-01
1.011457125e+00,7.78890e-01,9.99999e-01,9.96976e-01,7.81251e-01,9.99999e-01
1.016514411e+00,7.83456e-01,9.99999e-01,9.97943e-01,7.85070e-01,9.99999e-01
1.021596983e+00,7.87492e-01,9.99940e-01,9.98359e-01,7.88832e-01,9.99999e-01
1.026704968e+00,7.88544e-01,9.96236e-01,9.98719e-01,7.92536e-01,9.99999e-01
1.031838492e+00,7.57783e-01,9.52622e-01,9.99071e-01,7.96184e-01,9.99999e-01
1.036997685e+00,1.23065e-01,1.53942e-01,9.99446e-01,7.99777e-01,9.99999e-01
1.042182673e+00,1.01997e-01,1.27045e-01,9.99337e-01,8.03314e-01,9.99999e-01
1.047393587e+00,1.16976e-01,1.45100e-01,9.99123e-01,8.06797e-01,9.99999e-01
1.052630555e+00,3.55419e-03,4.39055e-03,9.98796e-01,8.10225e-01,9.99999e-01
1.057893707e+00,9.14403e-03,1.12544e-02,9.97987e-01,8.13600e-01,9.99999e-01
1.063183176e+00,2.97445e-02,3.64973e-02,9.96693e-01,8.16922e-01,9.99999e-01
1.068499092e+00,8.13998e-02,9.97090e-02,9.94477e-01,8.20192e-01,9.99999e-01
1.073841587e+00,1.91721e-01,2.34138e-01,9.93523e-01,8.23409e-01,9.99999e-01
1.079210795e+00,3.27060e-01,3.98690e-01,9.91740e-01,8.26575e-01,9.99999e-01
1.084606849e+00,4.94711e-01,6.03475e-01,9.87494e-01,8.29691e-01,9.99999e-01
1.090029883e+00,6.29211e-01,7.69095e-01,9.81941e-01,8.32756e-01,9.99998e-01
1.095480033e+00,6.99409e-01,8.78877e-01,9.51678e-01,8.35772e-01,9.99998e-01
1.100957433e+00,6.95390e-01,9.39660e-01,8.81770e-01,8.38739e-01,9.99997e-01
1.106462220e+00,5.96140e-01,9.74643e-01,7.26057e-01,8.41658e-01,9.99994e-01
1.111994531e+00,4.29455e-01,9.90525e-01,5.13038e-01,8.44528e-01,9.99990e-01
1.117554504e+00,2.88463e-01,9.97693e-01,3.41076e-01,8.47352e-01,9.99986e-01
1.123142276e+00,3.89007e-01,9.99849e-01,4.57626e-01,8.50129e-01,9.99983e-01
1.128757988e+00,5.13865e-01,9.99999e-01,6.02530e-01,8.52859e-01,9.99982e-01
1.134401778e+00,2.96301e-01,9.99999e-01,3.46336e-01,8.55545e-01,9.99980e-01
1.140073787e+00,6.33224e-01,9.99999e-01,7.37875e-01,8.58186e-01,9.99984e-01
1.145774156e+00,4.59169e-01,9.99999e-01,5.33439e-01,8.60782e-01,9.99986e-01
1.151503026e+00,4.28793e-01,9.99999e-01,4.96676e-01,8.63335e-01,9.99988e-01
1.157260541e+00,4.81463e-01,9.99999e-01,5.56066e-01,8.65844e-01,9.99991e-01
1.163046844e+00,5.63129e-01,9.99999e-01,6.48536e-01,8.68311e-01,9.99994e-01
1.168862078e+00,6.44239e-01,9.99999e-01,7.39879e-01,8.70736e-01,9.99996e-01
1.174706389e+00,7.24928e-01,9.99999e-01,8.30272e-01,8.73120e-01,9.99998e-01
1.180579921e+00,7.81744e-01,9.99999e-01,8.92949e-01,8.75464e-01,9.99998e-01
1.186482820e+00,8.23310e-01,9.99990e-01,9.37968e-01,8.77766e-01,9.99998e-01
1.192415234e+00,8.36433e-01,9.86542e-01,9.63283e-01,8.80030e-01,9.99998e-01
1.198377311e+00,4.81971e-01,5.60898e-01,9.68901e-01,8.82254e-01,9.99998e-01
1.204369197e+00,5.19706e-11,5.97830e-11,9.70578e-01,8.84440e-01,9.99999e-01
1.210391043e+00,7.28901e-40,8.35277e-40,9.71854e-01,8.86588e-01,9.99999e-01
1.216442998e+00,1.05264e-34,1.20240e-34,9.76067e-01,8.88698e-01,9.99999e-01
1.222525213e+00,3.33299e-34,3.77828e-34,9.81301e-01,8.90772e-01,9.99999e-01
1.228637839e+00,1.71099e-26,1.93391e-26,9.86970e-01,8.92810e-01,9.99999e-01
1.234781029e+00,3.24449e-17,3.64118e-17,9.90323e-01,8.94811e-01,9.99999e-01
1.240954934e+00,1.30413e-11,1.46006e-11,9.93864e-01,8.96778e-01,9.99999e-01
1.247159708e+00,1.65619e-06,1.84821e-06,9.95224e-01,8.98710e-01,9.99999e-01
1.253395507e+00,3.47343e-04,3.86914e-04,9.95752e-01,9.00608e-01,9.99999e-01
1.259662485e+00,9.94042e-03,1.10507e-02,9.95953e-01,9.02472e-01,9.99999e-01
1.265960797e+00,6.69577e-02,7.44280e-02,9.93557e-01,9.04303e-01,9.99999e-01
1.272290601e+00,2.98576e-01,3.32612e-01,9.89855e-01,9.06101e-01,9.99999e-01
1.278652054e+00,2.50022e-01,2.79865e-01,9.79935e-01,9.07868e-01,9.99999e-01
1.285045314e+00,5.12755e-03,5.72737e-03,9.63845e-01,9.09603e-01,9.99998e-01
1.291470541e+00,2.22538e-05,2.54613e-05,9.37843e-01,9.11307e-01,9.99998e-01
1.297927893e+00,9.21746e-03,1.05920e-02,9.12764e-01,9.12980e-01,9.99997e-01
1.304417533e+00,1.11434e-01,1.34172e-01,8.98218e-01,9.14623e-01,9.99995e-01
1.310939621e+00,1.85571e-02,2.17706e-02,8.73063e-01,9.16237e-01,9.99992e-01
1.317494319e+00,2.78722e-14,3.28615e-14,8.75398e-01,9.17822e-01,9.99987e-01
1.324081790e+00,1.17648e-07,1.39807e-07,8.21603e-01,9.19377e-01,9.99980e-01
1.330702199e+00,5.39549e-06,8.78890e-06,4.52596e-01,9.20905e-01,9.99967e-01
1.337355710e+00,3.65654e-06,1.69735e-05,1.12773e-01,9.22405e-01,9.99938e-01
1.344042489e+00,2.23896e-08,7.80192e-07,4.64332e-03,9.23878e-01,9.99869e-01
1.350762701e+00,8.56855e-10,5.62834e-06,4.23056e-05,9.25324e-01,9.99792e-01
1.357516515e+00,1.28195e-09,4.40496e-04,7.22279e-07,9.26744e-01,9.99742e-01
1.364304097e+00,1.39096e-06,6.46609e-03,1.14565e-04,9.28137e-01,9.99724e-01
1.371125618e+00,2.44483e-04,7.25554e-02,2.25619e-03,9.29505e-01,9.99721e-01
1.377981246e+00,7.35379e-04,1.15589e-01,5.29621e-03,9.30849e-01,9.99701e-01
1.384871152e+00,5.12322e-05,2.85176e-01,1.53994e-04,9.32167e-01,9.99709e-01
1.391795508e+00,5.56621e-05,3.13977e-01,1.51816e-04,9.33461e-01,9.99753e-01
1.398754485e+00,3.39631e-04,4.88945e-01,6.95024e-04,9.34732e-01,9.99788e-01
1.405748258e+00,3.60996e-04,5.91028e-01,5.95687e-04,9.35979e-01,9.99810e-01
1.412776999e+00,4.56447e-04,7.17471e-01,6.33238e-04,9.37203e-01,9.99847e-01
1.419840884e+00,7.81182e-04,6.39636e-01,1.05551e-03,9.38404e-01,9.99885e-01
1.426940089e+00,1.40092e-03,5.90179e-02,4.70922e-03,9.39583e-01,9.99929e-01
1.434074789e+00,0.00000e+00,0.00000e+00,1.66774e-02,9.40740e-01,9.99955e-01
1.441245163e+00,0.00000e+00,0.00000e+00,4.11732e-02,9.41876e-01,9.99965e-01
1.448451389e+00,0.00000e+00,0.00000e+00,1.04802e-01,9.42991e-01,9.99971e-01
1.455693646e+00,5.67583e-320,1.32286e-319,2.23729e-01,9.44085e-01,9.99976e-01
1.462972114e+00,3.06008e-155,7.12428e-155,2.72501e-01,9.45159e-01,9.99979e-01
1.470286975e+00,1.97614e-65,4.89203e-65,2.20192e-01,9.46212e-01,9.99981e-01
