#,Wave/freq,Total,CO2,H2O,Rayleigh,CIA
4.000000000e-01,1.94756e-03,9.99999e-01,9.99987e-01,1.94759e-03,9.99999e-01
4.020000000e-01,2.20338e-03,9.99999e-01,9.99991e-01,2.20339e-03,9.99999e-01
4.040100000e-01,2.48640e-03,9.99999e-01,9.99996e-01,2.48641e-03,9.99999e-01
4.060300500e-01,2.79908e-03,9.99999e-01,9.99998e-01,2.79909e-03,9.99999e-01
4.080602003e-01,3.14372e-03,9.99999e-01,9.99999e-01,3.14372e-03,9.99999e-01
4.101005013e-01,3.52270e-03,9.99999e-01,9.99999e-01,3.52270e-03,9.99999e-01
4.121510038e-01,3.93850e-03,9.99999e-01,9.99999e-01,3.93850e-03,9.99999e-01
4.142117588e-01,4.39367e-03,9.99999e-01,9.99996e-01,4.39369e-03,9.99999e-01
4.162828176e-01,4.89083e-03,9.99999e-01,9.99984e-01,4.89090e-03,9.99999e-01
4.183642317e-01,5.43282e-03,9.99999e-01,9.99990e-01,5.43287e-03,9.99999e-01
4.204560528e-01,6.02235e-03,9.99999e-01,9.99993e-01,6.02238e-03,9.99999e-01
4.225583331e-01,6.66227e-03,9.99999e-01,9.99997e-01,6.66229e-03,9.99999e-01
4.246711247e-01,7.35549e-03,9.99999e-01,9.99997e-01,7.35550e-03,9.99999e-01
4.267944804e-01,8.10496e-03,9.99999e-01,9.99997e-01,8.10498e-03,9.99999e-01
4.289284528e-01,8.91371e-03,9.99999e-01,9.99997e-01,8.91372e-03,9.99999e-01
4.310730950e-01,9.78476e-03,9.99999e-01,9.99998e-01,9.78477e-03,9.99999e-01
4.332284605e-01,1.07212e-02,9.99999e-01,9.99999e-01,1.07212e-02,9.99999e-01
4.353946028e-01,1.17260e-02,9.99999e-01,9.99999e-01,1.17260e-02,9.99999e-01
4.375715758e-01,1.28023e-02,9.99999e-01,9.99998e-01,1.28023e-02,9.99999e-01
4.397594337e-01,1.39530e-02,9.99999e-01,9.99986e-01,1.39532e-02,9.99999e-01
4.419582309e-01,1.51807e-02,9.99999e-01,9.99933e-01,1.51817e-02,9.99999e-01
4.441680220e-01,1.64901e-02,9.99999e-01,9.99946e-01,1.64909e-02,9.99999e-01
4.463888621e-01,1.78828e-02,9.99999e-01,9.99944e-01,1.78838e-02,9.99999e-01
4.486208064e-01,1.93625e-02,9.99999e-01,9.99965e-01,1.93632e-02,9.99999e-01
4.508639105e-01,2.09318e-02,9.99999e-01,9.99983e-01,2.09321e-02,9.99999e-01
4.531182300e-01,2.25933e-02,9.99999e-01,9.99993e-01,2.25934e-02,9.99999e-01
4.553838212e-01,2.43497e-02,9.99999e-01,9.99995e-01,2.43498e-02,9.99999e-01
4.576607403e-01,2.62038e-02,9.99999e-01,9.99997e-01,2.62039e-02,9.99999e-01
4.599490440e-01,2.81583e-02,9.99999e-01,9.99998e-01,2.81583e-02,9.99999e-01
4.622487892e-01,3.02156e-02,9.99999e-01,9.99999e-01,3.02156e-02,9.99999e-01
4.645600332e-01,3.23780e-02,9.99999e-01,9.99998e-01,3.23780e-02,9.99999e-01
4.668828333e-01,3.46473e-02,9.99999e-01,9.99983e-01,3.46478e-02,9.99999e-01
4.692172475e-01,3.70260e-02,9.99999e-01,9.99965e-01,3.70272e-02,9.99999e-01
4.715633337e-01,3.95172e-02,9.99999e-01,9.99977e-01,3.95181e-02,9.99999e-01
4.739211504e-01,4.21215e-02,9.99999e-01,9.99977e-01,4.21224e-02,9.99999e-01
4.762907561e-01,4.48412e-02,9.99999e-01,9.99988e-01,4.48417e-02,9.99999e-01
4.786722099e-01,4.76775e-02,9.99999e-01,9.99994e-01,4.76777e-02,9.99999e-01
4.810655710e-01,5.06315e-02,9.99999e-01,9.99998e-01,5.06316e-02,9.99999e-01
4.834708988e-01,5.37040e-02,9.99999e-01,9.99986e-01,5.37047e-02,9.99999e-01
4.858882533e-01,5.68967e-02,9.99999e-01,9.99975e-01,5.68981e-02,9.99999e-01
4.883176946e-01,6.02114e-02,9.99999e-01,9.99979e-01,6.02127e-02,9.99999e-01
4.907592831e-01,6.36479e-02,9.99999e-01,9.99981e-01,6.36491e-02,9.99999e-01
4.932130795e-01,6.72070e-02,9.99999e-01,9.99986e-01,6.72078e-02,9.99999e-01
4.956791449e-01,7.08889e-02,9.99999e-01,9.99992e-01,7.08894e-02,9.99999e-01
4.981575406e-01,7.46913e-02,9.99999e-01,9.99965e-01,7.46939e-02,9.99999e-01
5.006483283e-01,7.86144e-02,9.99999e-01,9.99910e-01,7.86214e-02,9.99999e-01
5.031515699e-01,8.26341e-02,9.99999e-01,9.99546e-01,8.26716e-02,9.99999e-01
5.056673278e-01,8.68235e-02,9.99999e-01,9.99759e-01,8.68443e-02,9.99999e-01
5.081956644e-01,9.11113e-02,9.99999e-01,9.99696e-01,9.11389e-02,9.99999e-01
5.107366428e-01,9.55352e-02,9.99999e-01,9.99794e-01,9.55547e-02,9.99999e-01
5.132903260e-01,1.00079e-01,9.99999e-01,9.99882e-01,1.00091e-01,9.99999e-01
5.158567776e-01,1.04741e-01,9.99999e-01,9.99949e-01,1.04746e-01,9.99999e-01
5.184360615e-01,1.09518e-01,9.99999e-01,9.99979e-01,1.09520e-01,9.99999e-01
5.210282418e-01,1.14410e-01,9.99999e-01,9.99992e-01,1.14411e-01,9.99999e-01
5.236333830e-01,1.19413e-01,9.99999e-01,9.99969e-01,1.19416e-01,9.99999e-01
5.262515499e-01,1.24534e-01,9.99999e-01,9.99980e-01,1.24536e-01,9.99999e-01
5.288828077e-01,1.29765e-01,9.99999e-01,9.99982e-01,1.29767e-01,9.99999e-01
5.315272217e-01,1.35106e-01,9.99999e-01,9.99984e-01,1.35108e-01,9.99999e-01
5.341848578e-01,1.40556e-01,9.99999e-01,9.99989e-01,1.40557e-01,9.99999e-01
5.368557821e-01,1.46107e-01,9.99999e-01,9.99965e-01,1.46112e-01,9.99999e-01
5.395400610e-01,1.51751e-01,9.99999e-01,9.99876e-01,1.51769e-01,9.99999e-01
5.422377613e-01,1.57503e-01,9.99999e-01,9.99838e-01,1.57528e-01,9.99999e-01
5.449489501e-01,1.63361e-01,9.99999e-01,9.99850e-01,1.63385e-01,9.99999e-01
5.476736949e-01,1.69315e-01,9.99999e-01,9.99866e-01,1.69338e-01,9.99999e-01
5.504120634e-01,1.75366e-01,9.99999e-01,9.99903e-01,1.75383e-01,9.99999e-01
5.531641237e-01,1.81509e-01,9.99999e-01,9.99950e-01,1.81518e-01,9.99999e-01
5.559299443e-01,1.87736e-01,9.99999e-01,9.99976e-01,1.87741e-01,9.99999e-01
5.587095940e-01,1.94044e-01,9.99999e-01,9.99984e-01,1.94047e-01,9.99999e-01
5.615031420e-01,2.00432e-01,9.99999e-01,9.99983e-01,2.00435e-01,9.99999e-01
5.643106577e-01,2.06896e-01,9.99999e-01,9.99981e-01,2.06900e-01,9.99999e-01
5.671322110e-01,2.13393e-01,9.99999e-01,9.99778e-01,2.13440e-01,9.99999e-01
5.699678720e-01,2.19999e-01,9.99999e-01,9.99758e-01,2.20052e-01,9.99999e-01
5.728177114e-01,2.26675e-01,9.99999e-01,9.99751e-01,2.26731e-01,9.99999e-01
5.756818000e-01,2.33422e-01,9.99999e-01,9.99771e-01,2.33476e-01,9.99999e-01
5.785602090e-01,2.40234e-01,9.99999e-01,9.99800e-01,2.40282e-01,9.99999e-01
5.814530100e-01,2.47096e-01,9.99999e-01,9.99799e-01,2.47146e-01,9.99999e-01
5.843602750e-01,2.54004e-01,9.99999e-01,9.99763e-01,2.54064e-01,9.99999e-01
5.872820764e-01,2.60501e-01,9.99999e-01,9.97958e-01,2.61034e-01,9.99999e-01
5.902184868e-01,2.67384e-01,9.99999e-01,9.97506e-01,2.68052e-01,9.99999e-01
5.931695792e-01,2.74631e-01,9.99999e-01,9.98242e-01,2.75114e-01,9.99999e-01
5.961354271e-01,2.81673e-01,9.99999e-01,9.98069e-01,2.82218e-01,9.99999e-01
5.991161043e-01,2.88951e-01,9.99999e-01,9.98590e-01,2.89359e-01,9.99999e-01
6.021116848e-01,2.96297e-01,9.99999e-01,9.99199e-01,2.96534e-01,9.99999e-01
6.051222432e-01,3.03617e-01,9.99999e-01,9.99594e-01,3.03740e-01,9.99999e-01
6.081478544e-01,3.10920e-01,9.99999e-01,9.99824e-01,3.10974e-01,9.99999e-01
6.111885937e-01,3.18209e-01,9.99999e-01,9.99925e-01,3.18232e-01,9.99999e-01
6.142445367e-01,3.25500e-01,9.99999e-01,9.99966e-01,3.25511e-01,9.99999e-01
6.173157594e-01,3.32802e-01,9.99999e-01,9.99981e-01,3.32808e-01,9.99999e-01
6.204023382e-01,3.40115e-01,9.99999e-01,9.99984e-01,3.40120e-01,9.99999e-01
6.235043498e-01,3.47420e-01,9.99999e-01,9.99933e-01,3.47443e-01,9.99999e-01
6.266218716e-01,3.54647e-01,9.99999e-01,9.99641e-01,3.54774e-01,9.99999e-01
6.297549810e-01,3.62063e-01,9.99999e-01,9.99868e-01,3.62111e-01,9.99999e-01
6.329037559e-01,3.69354e-01,9.99999e-01,9.99739e-01,3.69450e-01,9.99999e-01
6.360682746e-01,3.76705e-01,9.99999e-01,9.99779e-01,3.76788e-01,9.99999e-01
6.392486160e-01,3.84013e-01,9.99999e-01,9.99713e-01,3.84123e-01,9.99999e-01
6.424448591e-01,3.91303e-01,9.99999e-01,9.99619e-01,3.91452e-01,9.99999e-01
6.456570834e-01,3.98067e-01,9.99999e-01,9.98233e-01,3.98771e-01,9.99999e-01
6.488853688e-01,4.05457e-01,9.99999e-01,9.98467e-01,4.06079e-01,9.99999e-01
6.521297956e-01,4.12822e-01,9.99999e-01,9.98668e-01,4.13372e-01,9.99999e-01
6.553904446e-01,4.20096e-01,9.99999e-01,9.98685e-01,4.20649e-01,9.99999e-01
6.586673968e-01,4.27420e-01,9.99999e-01,9.98863e-01,4.27906e-01,9.99999e-01
6.619607338e-01,4.34855e-01,9.99999e-01,9.99343e-01,4.35141e-01,9.99999e-01
6.652705375e-01,4.42183e-01,9.99999e-01,9.99618e-01,4.42352e-01,9.99999e-01
6.685968902e-01,4.49457e-01,9.99999e-01,9.99822e-01,4.49536e-01,9.99999e-01
6.719398746e-01,4.56655e-01,9.99999e-01,9.99917e-01,4.56692e-01,9.99999e-01
6.752995740e-01,4.63797e-01,9.99999e-01,9.99955e-01,4.63817e-01,9.99999e-01
6.786760719e-01,4.70879e-01,9.99999e-01,9.99936e-01,4.70909e-01,9.99999e-01
6.820694522e-01,4.77915e-01,9.99999e-01,9.99890e-01,4.77967e-01,9.99999e-01
6.854797995e-01,4.84919e-01,9.99999e-01,9.99859e-01,4.84987e-01,9.99999e-01
6.889071985e-01,4.91804e-01,9.99999e-01,9.99664e-01,4.91969e-01,9.99999e-01
6.923517345e-01,4.96151e-01,9.99999e-01,9.94467e-01,4.98911e-01,9.99999e-01
6.958134932e-01,5.04326e-01,9.99999e-01,9.97065e-01,5.05810e-01,9.99999e-01
6.992925606e-01,5.11264e-01,9.99999e-01,9.97264e-01,5.12666e-01,9.99999e-01
7.027890234e-01,5.17710e-01,9.99999e-01,9.96597e-01,5.19477e-01,9.99999e-01
7.063029686e-01,5.24737e-01,9.99999e-01,9.97142e-01,5.26241e-01,9.99999e-01
7.098344834e-01,5.31495e-01,9.99999e-01,9.97258e-01,5.32956e-01,9.99999e-01
7.133836558e-01,5.37674e-01,9.99999e-01,9.96388e-01,5.39623e-01,9.99999e-01
7.169505741e-01,5.30405e-01,9.99999e-01,9.71013e-01,5.46238e-01,9.99999e-01
7.205353270e-01,5.44779e-01,9.99999e-01,9.85487e-01,5.52802e-01,9.99999e-01
7.241380036e-01,5.49172e-01,9.99999e-01,9.81869e-01,5.59312e-01,9.99999e-01
7.277586936e-01,5.56496e-01,9.99999e-01,9.83610e-01,5.65768e-01,9.99999e-01
7.313974871e-01,5.62153e-01,9.99999e-01,9.82493e-01,5.72169e-01,9.99999e-01
7.350544745e-01,5.72975e-01,9.99999e-01,9.90424e-01,5.78514e-01,9.99999e-01
7.387297469e-01,5.80677e-01,9.99999e-01,9.92945e-01,5.84802e-01,9.99999e-01
7.424233956e-01,5.88985e-01,9.99999e-01,9.96536e-01,5.91032e-01,9.99999e-01
7.461355126e-01,5.95952e-01,9.99999e-01,9.97903e-01,5.97204e-01,9.99999e-01
7.498661902e-01,6.02725e-01,9.99999e-01,9.99021e-01,6.03316e-01,9.99999e-01
7.536155211e-01,6.09076e-01,9.99999e-01,9.99520e-01,6.09368e-01,9.99999e-01
7.573835987e-01,6.15207e-01,9.99999e-01,9.99753e-01,6.15359e-01,9.99999e-01
7.611705167e-01,6.21194e-01,9.99999e-01,9.99846e-01,6.21289e-01,9.99999e-01
7.649763693e-01,6.27097e-01,9.99999e-01,9.99903e-01,6.27158e-01,9.99999e-01
7.688012511e-01,6.32922e-01,9.99999e-01,9.99932e-01,6.32964e-01,9.99999e-01
7.726452574e-01,6.38673e-01,9.99999e-01,9.99944e-01,6.38708e-01,9.99999e-01
7.765084837e-01,6.44339e-01,9.99999e-01,9.99922e-01,6.44389e-01,9.99999e-01
7.803910261e-01,6.36537e-01,9.79597e-01,9.99665e-01,6.50007e-01,9.99999e-01
7.842929812e-01,5.96869e-01,9.11500e-01,9.98834e-01,6.55561e-01,9.99999e-01
7.882144461e-01,5.97393e-01,9.05836e-01,9.97580e-01,6.61052e-01,9.99999e-01
7.921555184e-01,6.28757e-01,9.44641e-01,9.98666e-01,6.66479e-01,9.99999e-01
7.961162960e-01,6.45096e-01,9.62421e-01,9.97668e-01,6.71842e-01,9.99999e-01
8.000968774e-01,6.61464e-01,9.79494e-01,9.97293e-01,6.77140e-01,9.99999e-01
8.040973618e-01,6.73244e-01,9.89289e-01,9.97295e-01,6.82375e-01,9.99999e-01
8.081178486e-01,6.80031e-01,9.95090e-01,9.93943e-01,6.87546e-01,9.99999e-01
8.121584379e-01,6.74227e-01,9.98469e-01,9.74881e-01,6.92652e-01,9.99999e-01
8.162192301e-01,6.76507e-01,9.99661e-01,9.69956e-01,6.97695e-01,9.99999e-01
8.203003262e-01,6.92199e-01,9.99993e-01,9.85097e-01,7.02673e-01,9.99999e-01
8.244018279e-01,6.92514e-01,9.99999e-01,9.78696e-01,7.07588e-01,9.99999e-01
8.285238370e-01,6.99684e-01,9.99999e-01,9.82096e-01,7.12439e-01,9.99999e-01
8.326664562e-01,7.04192e-01,9.99999e-01,9.81825e-01,7.17227e-01,9.99999e-01
8.368297885e-01,7.12555e-01,9.99999e-01,9.86985e-01,7.21951e-01,9.99999e-01
8.410139374e-01,7.20980e-01,9.99999e-01,9.92249e-01,7.26612e-01,9.99999e-01
8.452190071e-01,7.28424e-01,9.99999e-01,9.96190e-01,7.31210e-01,9.99999e-01
8.494451021e-01,7.34124e-01,9.99999e-01,9.97796e-01,7.35745e-01,9.99999e-01
8.536923276e-01,7.39251e-01,9.99999e-01,9.98692e-01,7.40218e-01,9.99999e-01
8.579607893e-01,7.44032e-01,9.99999e-01,9.99196e-01,7.44630e-01,9.99999e-01
8.622505932e-01,7.48597e-01,9.99999e-01,9.99488e-01,7.48979e-01,9.99999e-01
8.665618462e-01,7.13946e-01,9.48088e-01,9.99684e-01,7.53268e-01,9.99999e-01
8.708946554e-01,5.97450e-01,7.88995e-01,9.99639e-01,7.57495e-01,9.99999e-01
8.752491287e-01,6.29732e-01,8.27177e-01,9.99517e-01,7.61662e-01,9.99999e-01
8.796253743e-01,6.90034e-01,9.01688e-01,9.99334e-01,7.65769e-01,9.99999e-01
8.840235012e-01,7.29224e-01,9.47984e-01,9.99238e-01,7.69817e-01,9.99999e-01
8.884436187e-01,7.55589e-01,9.79120e-01,9.97266e-01,7.73805e-01,9.99999e-01
8.928858368e-01,7.48916e-01,9.91517e-01,9.71141e-01,7.77734e-01,9.99999e-01
8.973502660e-01,7.40227e-01,9.97921e-01,9.49008e-01,7.81605e-01,9.99998e-01
9.018370173e-01,7.64401e-01,9.99770e-01,9.73460e-01,7.85419e-01,9.99998e-01
9.063462024e-01,7.66668e-01,9.94277e-01,9.76966e-01,7.89175e-01,9.99998e-01
9.108779334e-01,7.54312e-01,9.86663e-01,9.64126e-01,7.92874e-01,9.99998e-01
9.154323231e-01,7.61710e-01,9.96827e-01,9.59304e-01,7.96517e-01,9.99998e-01
9.200094847e-01,7.40118e-01,9.54693e-01,9.67888e-01,8.00105e-01,9.99998e-01
9.246095321e-01,7.15971e-01,9.36371e-01,9.50749e-01,8.03637e-01,9.99997e-01
9.292325798e-01,5.45374e-01,9.50069e-01,7.08703e-01,8.07115e-01,9.99994e-01
9.338787427e-01,4.93836e-01,9.51372e-01,6.38114e-01,8.10538e-01,9.99993e-01
9.385481364e-01,6.55731e-01,9.64109e-01,8.34512e-01,8.13908e-01,9.99993e-01
9.432408771e-01,6.21694e-01,9.77830e-01,7.77365e-01,8.17225e-01,9.99992e-01
9.479570815e-01,5.72010e-01,9.88599e-01,7.04910e-01,8.20490e-01,9.99993e-01
9.526968669e-01,6.30611e-01,9.94477e-01,7.69578e-01,8.23703e-01,9.99994e-01
9.574603512e-01,6.50848e-01,9.97634e-01,7.88919e-01,8.26864e-01,9.99995e-01
9.622476530e-01,6.83959e-01,9.99260e-01,8.24659e-01,8.29975e-01,9.99997e-01
9.670588912e-01,7.45533e-01,9.99777e-01,8.95152e-01,8.33036e-01,9.99998e-01
9.718941857e-01,7.80403e-01,9.99983e-01,9.33458e-01,8.36047e-01,9.99998e-01
9.767536566e-01,7.92431e-01,9.99999e-01,9.44483e-01,8.39010e-01,9.99998e-01
9.816374249e-01,8.06987e-01,9.99999e-01,9.58503e-01,8.41924e-01,9.99999e-01
9.865456120e-01,8.22724e-01,9.99999e-01,9.73879e-01,8.44790e-01,9.99999e-01
9.914783401e-01,8.33872e-01,9.99999e-01,9.83792e-01,8.47609e-01,9.99999e-01
9.964357318e-01,8.42848e-01,9.99999e-01,9.91140e-01,8.50382e-01,9.99999e-01
1.001417910e+00,8.48571e-01,9.99999e-01,9.94681e-01,8.53109e-01,9.99999e-01
1.006425000e+00,8.53198e-01,9.99999e-01,9.96971e-01,8.55790e-01,9.99999e-01
1.011457125e+00,8.56808e-01,9.99999e-01,9.98114e-01,8.58426e-01,9.99999e-01
1.016514411e+00,8.59918e-01,9.99999e-01,9.98721e-01,8.61019e-01,9.99999e-01
1.021596983e+00,8.62665e-01,9.99971e-01,9.98981e-01,8.63567e-01,9.99999e-01
1.026704968e+00,8.63465e-01,9.97778e-01,9.99206e-01,8.66073e-01,9.99999e-01
1.031838492e+00,8.42985e-01,9.71130e-01,9.99421e-01,8.68536e-01,9.99999e-01
1.036997685e+00,2.09988e-01,2.41168e-01,9.99657e-01,8.70958e-01,9.99999e-01
1.042182673e+00,2.31376e-01,2.65033e-01,9.99592e-01,8.73338e-01,9.99999e-01
1.047393587e+00,2.29593e-01,2.62317e-01,9.99458e-01,8.75677e-01,9.99999e-01
1.052630555e+00,2.26962e-02,2.58655e-02,9.99258e-01,8.77976e-01,9.99999e-01
1.057893707e+00,4.58702e-02,5.21597e-02,9.98764e-01,8.80236e-01,9.99999e-01
1.063183176e+00,1.02775e-01,1.16651e-01,9.97964e-01,8.82457e-01,9.99999e-01
1.068499092e+00,2.07566e-01,2.35349e-01,9.96589e-01,8.84639e-01,9.99999e-01
1.073841587e+00,3.53815e-01,4.00413e-01,9.96014e-01,8.86784e-01,9.99999e-01
1.079210795e+00,4.96417e-01,5.61179e-01,9.94880e-01,8.88891e-01,9.99999e-01
1.084606849e+00,6.44435e-01,7.28773e-01,9.92269e-01,8.90961e-01,9.99999e-01
1.090029883e+00,7.49905e-01,8.48978e-01,9.88963e-01,8.92995e-01,9.99999e-01
1.095480033e+00,8.01110e-01,9.22458e-01,9.70149e-01,8.94994e-01,9.99998e-01
1.100957433e+00,7.98939e-01,9.61912e-01,9.25766e-01,8.96957e-01,9.99998e-01
1.106462220e+00,7.26914e-01,9.84059e-01,8.21494e-01,8.98886e-01,9.99996e-01
1.111994531e+00,5.90233e-01,9.94064e-01,6.58985e-01,9.00781e-01,9.99993e-01
1.117554504e+00,4.57630e-01,9.98541e-01,5.07642e-01,9.02642e-01,9.99991e-01
1.123142276e+00,5.45268e-01,9.99903e-01,6.02901e-01,9.04470e-01,9.99989e-01
1.128757988e+00,6.58290e-01,9.99999e-01,7.26383e-01,9.06265e-01,9.99989e-01
1.134401778e+00,4.30784e-01,9.99999e-01,4.74421e-01,9.08029e-01,9.99987e-01
1.140073787e+00,7.53100e-01,9.99999e-01,8.27806e-01,9.09761e-01,9.99990e-01
1.145774156e+00,6.12004e-01,9.99999e-01,6.71458e-01,9.11462e-01,9.99991e-01
1.151503026e+00,5.85112e-01,9.99999e-01,6.40778e-01,9.13133e-01,9.99992e-01
1.157260541e+00,6.33530e-01,9.99999e-01,6.92557e-01,9.14773e-01,9.99994e-01
1.163046844e+00,6.98456e-01,9.99999e-01,7.62189e-01,9.16384e-01,9.99996e-01
1.168862078e+00,7.60708e-01,9.99999e-01,8.28689e-01,9.17966e-01,9.99997e-01
1.174706389e+00,8.18891e-01,9.99999e-01,8.90564e-01,9.19519e-01,9.99998e-01
1.180579921e+00,8.58298e-01,9.99999e-01,9.31874e-01,9.21044e-01,9.99998e-01
1.186482820e+00,8.86554e-01,9.99996e-01,9.60993e-01,9.22542e-01,9.99999e-01
1.192415234e+00,8.95738e-01,9.92084e-01,9.77081e-01,9.24012e-01,9.99999e-01
1.198377311e+00,5.25986e-01,5.77737e-01,9.80680e-01,9.25456e-01,9.99999e-01
1.204369197e+00,1.15241e-07,1.25665e-07,9.81684e-01,9.26873e-01,9.99999e-01
1.210391043e+00,1.68089e-25,1.82862e-25,9.82480e-01,9.28264e-01,9.99999e-01
1.216442998e+00,2.60625e-22,2.82969e-22,9.85048e-01,9.29630e-01,9.99999e-01
1.222525213e+00,5.39936e-22,5.83491e-22,9.88354e-01,9.30971e-01,9.99999e-01
1.228637839e+00,5.67335e-17,6.12045e-17,9.91906e-01,9.32287e-01,9.99999e-01
1.234781029e+00,1.70593e-11,1.83210e-11,9.93977e-01,9.33579e-01,9.99999e-01
1.240954934e+00,7.95074e-08,8.52630e-08,9.96192e-01,9.34847e-01,9.99999e-01
1.247159708e+00,1.12199e-04,1.20098e-04,9.97031e-01,9.36092e-01,9.99999e-01
1.253395507e+00,5.82891e-03,6.23175e-03,9.97368e-01,9.37314e-01,9.99999e-01
1.259662485e+00,4.10494e-02,4.38310e-02,9.97524e-01,9.38514e-01,9.99999e-01
1.265960797e+00,1.73987e-01,1.85792e-01,9.96022e-01,9.39691e-01,9.99999e-01
1.272290601e+00,4.42095e-01,4.72480e-01,9.94147e-01,9.40846e-01,9.99999e-01
1.278652054e+00,4.10680e-01,4.40597e-01,9.87652e-01,9.41980e-01,9.99999e-01
1.285045314e+00,2.50321e-02,2.68316e-02,9.80648e-01,9.43093e-01,9.99999e-01
1.291470541e+00,1.05173e-03,1.14529e-03,9.61386e-01,9.44185e-01,9.99998e-01
1.297927893e+00,2.30447e-02,2.51091e-02,9.49808e-01,9.45256e-01,9.99998e-01
1.304417533e+00,2.52472e-01,2.83792e-01,9.35659e-01,9.46308e-01,9.99997e-01
1.310939621e+00,7.09047e-02,7.84787e-02,9.26990e-01,9.47340e-01,9.99995e-01
1.317494319e+00,3.01216e-09,3.34348e-09,9.20540e-01,9.48353e-01,9.99992e-01
1.324081790e+00,1.02393e-06,1.14778e-06,8.83495e-01,9.49347e-01,9.99987e-01
1.330702199e+00,4.50238e-04,6.29782e-04,5.98574e-01,9.50322e-01,9.99979e-01
1.337355710e+00,2.05312e-04,4.96986e-04,2.74093e-01,9.51279e-01,9.99962e-01
1.344042489e+00,3.47179e-05,1.59804e-04,3.36757e-02,9.52218e-01,9.99919e-01
1.350762701e+00,1.27503e-06,4.48546e-04,1.15834e-03,9.53139e-01,9.99871e-01
1.357516515e+00,1.63597e-06,6.38199e-03,1.09041e-04,9.54043e-01,9.99840e-01
1.364304097e+00,1.36377e-04,4.17485e-02,2.22731e-03,9.54930e-01,9.99829e-01
1.371125618e+00,3.90946e-03,1.86941e-01,1.63504e-02,9.55800e-01,9.99827e-01
1.377981246e+00,8.80915e-03,2.60750e-01,3.11274e-02,9.56654e-01,9.99815e-01
1.384871152e+00,1.00014e-03,4.56962e-01,2.00537e-03,9.57492e-01,9.99817e-01
1.391795508e+00,1.62119e-03,4.85085e-01,3.11194e-03,9.58314e-01,9.99843e-01
1.398754485e+00,4.51337e-03,6.40873e-01,7.06604e-03,9.59120e-01,9.99869e-01
1.405748258e+00,4.91628e-03,7.19957e-01,6.74090e-03,9.59911e-01,9.99882e-01
1.412776999e+00,5.89418e-03,8.12765e-01,7.30184e-03,9.60687e-01,9.99905e-01
1.419840884e+00,8.32880e-03,7.49239e-01,1.00728e-02,9.61449e-01,9.99929e-01
1.426940089e+00,7.45799e-03,9.25577e-02,2.70365e-02,9.62196e-01,9.99956e-01
1.434074789e+00,0.00000e+00,0.00000e+00,6.32070e-02,9.62928e-01,9.99972e-01
1.441245163e+00,0.00000e+00,0.00000e+00,1.26966e-01,9.63647e-01,9.99978e-01
1.448451389e+00,0.00000e+00,0.00000e+00,2.27751e-01,9.64352e-01,9.99982e-01
1.455693646e+00,1.18447e-198,1.99850e-198,3.81063e-01,9.65044e-01,9.99985e-01
1.462972114e+00,8.01063e-97,1.35065e-96,4.39752e-01,9.65722e-01,9.99987e-01
1.470286975e+00,2.63620e-41,4.61696e-41,3.82298e-01,9.66388e-01,9.99988e-01
