#,Wave/freq,Total,CO2,H2O,Rayleigh,CIA
4.000000000e-01,1.97609e-13,9.99999e-01,9.99942e-01,1.97621e-13,9.99999e-01
4.020000000e-01,3.52379e-13,9.99999e-01,9.99964e-01,3.52391e-13,9.99999e-01
4.040100000e-01,6.20863e-13,9.99999e-01,9.99984e-01,6.20872e-13,9.99999e-01
4.060300500e-01,1.08173e-12,9.99999e-01,9.99996e-01,1.08173e-12,9.99999e-01
4.080602003e-01,1.86413e-12,9.99999e-01,9.99998e-01,1.86413e-12,9.99999e-01
4.101005013e-01,3.17807e-12,9.99999e-01,9.99999e-01,3.17807e-12,9.99999e-01
4.121510038e-01,5.36134e-12,9.99999e-01,9.99997e-01,5.36135e-12,9.99999e-01
4.142117588e-01,8.95142e-12,9.99999e-01,9.99983e-01,8.95156e-12,9.99999e-01
4.162828176e-01,1.47943e-11,9.99999e-01,9.99928e-01,1.47954e-11,9.99999e-01
4.183642317e-01,2.42117e-11,9.99999e-01,9.99957e-01,2.42127e-11,9.99999e-01
4.204560528e-01,3.92395e-11,9.99999e-01,9.99973e-01,3.92405e-11,9.99999e-01
4.225583331e-01,6.29912e-11,9.99999e-01,9.99989e-01,6.29918e-11,9.99999e-01
4.246711247e-01,1.00177e-10,9.99999e-01,9.99991e-01,1.00178e-10,9.99999e-01
4.267944804e-01,1.57862e-10,9.99999e-01,9.99988e-01,1.57864e-10,9.99999e-01
4.289284528e-01,2.46540e-10,9.99999e-01,9.99990e-01,2.46542e-10,9.99999e-01
4.310730950e-01,3.81657e-10,9.99999e-01,9.99995e-01,3.81659e-10,9.99999e-01
4.332284605e-01,5.85747e-10,9.99999e-01,9.99998e-01,5.85747e-10,9.99999e-01
4.353946028e-01,8.91396e-10,9.99999e-01,9.99999e-01,8.91397e-10,9.99999e-01
4.375715758e-01,1.34532e-09,9.99999e-01,9.99992e-01,1.34533e-09,9.99999e-01
4.397594337e-01,2.01386e-09,9.99999e-01,9.99936e-01,2.01399e-09,9.99999e-01
4.419582309e-01,2.99009e-09,9.99999e-01,9.99679e-01,2.99105e-09,9.99999e-01
4.441680220e-01,4.40647e-09,9.99999e-01,9.99754e-01,4.40755e-09,9.99999e-01
4.463888621e-01,6.44367e-09,9.99999e-01,9.99742e-01,6.44533e-09,9.99999e-01
4.486208064e-01,9.35327e-09,9.99999e-01,9.99840e-01,9.35476e-09,9.99999e-01
4.508639105e-01,1.34770e-08,9.99999e-01,9.99925e-01,1.34780e-08,9.99999e-01
4.531182300e-01,1.92784e-08,9.99999e-01,9.99970e-01,1.92790e-08,9.99999e-01
4.553838212e-01,2.73819e-08,9.99999e-01,9.99979e-01,2.73825e-08,9.99999e-01
4.576607403e-01,3.86231e-08,9.99999e-01,9.99990e-01,3.86235e-08,9.99999e-01
4.599490440e-01,5.41099e-08,9.99999e-01,9.99993e-01,5.41102e-08,9.99999e-01
4.622487892e-01,7.53034e-08,9.99999e-01,9.99998e-01,7.53035e-08,9.99999e-01
4.645600332e-01,1.04115e-07,9.99999e-01,9.99994e-01,1.04116e-07,9.99999e-01
4.668828333e-01,1.43022e-07,9.99999e-01,9.99923e-01,1.43033e-07,9.99999e-01
4.692172475e-01,1.95238e-07,9.99999e-01,9.99838e-01,1.95269e-07,9.99999e-01
4.715633337e-01,2.64920e-07,9.99999e-01,9.99894e-01,2.64948e-07,9.99999e-01
4.739211504e-01,3.57294e-07,9.99999e-01,9.99899e-01,3.57330e-07,9.99999e-01
4.762907561e-01,4.79060e-07,9.99999e-01,9.99947e-01,4.79085e-07,9.99999e-01
4.786722099e-01,6.38603e-07,9.99999e-01,9.99978e-01,6.38616e-07,9.99999e-01
4.810655710e-01,8.46446e-07,9.99999e-01,9.99993e-01,8.46451e-07,9.99999e-01
4.834708988e-01,1.11563e-06,9.99999e-01,9.99936e-01,1.11570e-06,9.99999e-01
4.858882533e-01,1.46242e-06,9.99999e-01,9.99885e-01,1.46259e-06,9.99999e-01
4.883176946e-01,1.90693e-06,9.99999e-01,9.99903e-01,1.90711e-06,9.99999e-01
4.907592831e-01,2.47352e-06,9.99999e-01,9.99913e-01,2.47373e-06,9.99999e-01
4.932130795e-01,3.19206e-06,9.99999e-01,9.99938e-01,3.19226e-06,9.99999e-01
4.956791449e-01,4.09865e-06,9.99999e-01,9.99967e-01,4.09879e-06,9.99999e-01
4.981575406e-01,5.23598e-06,9.99999e-01,9.99836e-01,5.23683e-06,9.99999e-01
5.006483283e-01,6.65574e-06,9.99999e-01,9.99576e-01,6.65856e-06,9.99999e-01
5.031515699e-01,8.40824e-06,9.99999e-01,9.97868e-01,8.42619e-06,9.99999e-01
5.056673278e-01,1.06017e-05,9.99999e-01,9.98877e-01,1.06136e-05,9.99999e-01
5.081956644e-01,1.32892e-05,9.99999e-01,9.98585e-01,1.33080e-05,9.99999e-01
5.107366428e-01,1.65963e-05,9.99999e-01,9.99044e-01,1.66121e-05,9.99999e-01
5.132903260e-01,2.06346e-05,9.99999e-01,9.99454e-01,2.06459e-05,9.99999e-01
5.158567776e-01,2.55433e-05,9.99999e-01,9.99769e-01,2.55492e-05,9.99999e-01
5.184360615e-01,3.14813e-05,9.99999e-01,9.99907e-01,3.14842e-05,9.99999e-01
5.210282418e-01,3.86368e-05,9.99999e-01,9.99964e-01,3.86382e-05,9.99999e-01
5.236333830e-01,4.72197e-05,9.99999e-01,9.99860e-01,4.72263e-05,9.99999e-01
5.262515499e-01,5.74899e-05,9.99999e-01,9.99912e-01,5.74949e-05,9.99999e-01
5.288828077e-01,6.97192e-05,9.99999e-01,9.99919e-01,6.97248e-05,9.99999e-01
5.315272217e-01,8.42288e-05,9.99999e-01,9.99929e-01,8.42346e-05,9.99999e-01
5.341848578e-01,1.01380e-04,9.99999e-01,9.99953e-01,1.01385e-04,9.99999e-01
5.368557821e-01,1.21561e-04,9.99999e-01,9.99837e-01,1.21581e-04,9.99999e-01
5.395400610e-01,1.45192e-04,9.99999e-01,9.99411e-01,1.45277e-04,9.99999e-01
5.422377613e-01,1.72853e-04,9.99999e-01,9.99248e-01,1.72983e-04,9.99999e-01
5.449489501e-01,2.05120e-04,9.99999e-01,9.99296e-01,2.05264e-04,9.99999e-01
5.476736949e-01,2.42597e-04,9.99999e-01,9.99381e-01,2.42747e-04,9.99999e-01
5.504120634e-01,2.85997e-04,9.99999e-01,9.99550e-01,2.86125e-04,9.99999e-01
5.531641237e-01,3.36085e-04,9.99999e-01,9.99773e-01,3.36161e-04,9.99999e-01
5.559299443e-01,3.93649e-04,9.99999e-01,9.99890e-01,3.93692e-04,9.99999e-01
5.587095940e-01,4.59601e-04,9.99999e-01,9.99930e-01,4.59633e-04,9.99999e-01
5.615031420e-01,5.34938e-04,9.99999e-01,9.99923e-01,5.34979e-04,9.99999e-01
5.643106577e-01,6.20758e-04,9.99999e-01,9.99912e-01,6.20812e-04,9.99999e-01
5.671322110e-01,7.17535e-04,9.99999e-01,9.98931e-01,7.18302e-04,9.99999e-01
5.699678720e-01,8.27790e-04,9.99999e-01,9.98888e-01,8.28710e-04,9.99999e-01
5.728177114e-01,9.52280e-04,9.99999e-01,9.98832e-01,9.53393e-04,9.99999e-01
5.756818000e-01,1.09263e-03,9.99999e-01,9.98930e-01,1.09380e-03,9.99999e-01
5.785602090e-01,1.25032e-03,9.99999e-01,9.99068e-01,1.25149e-03,9.99999e-01
5.814530100e-01,1.42677e-03,9.99999e-01,9.99062e-01,1.42810e-03,9.99999e-01
5.843602750e-01,1.62358e-03,9.99999e-01,9.98876e-01,1.62540e-03,9.99999e-01
5.872820764e-01,1.82746e-03,9.99999e-01,9.90367e-01,1.84523e-03,9.99999e-01
5.902184868e-01,2.06534e-03,9.99999e-01,9.88413e-01,2.08955e-03,9.99999e-01
5.931695792e-01,2.34103e-03,9.99999e-01,9.91787e-01,2.36042e-03,9.99999e-01
5.961354271e-01,2.63608e-03,9.99999e-01,9.91012e-01,2.65998e-03,9.99999e-01
5.991161043e-01,2.97089e-03,9.99999e-01,9.93442e-01,2.99050e-03,9.99999e-01
6.021116848e-01,3.34183e-03,9.99999e-01,9.96278e-01,3.35432e-03,9.99999e-01
6.051222432e-01,3.74680e-03,9.99999e-01,9.98115e-01,3.75387e-03,9.99999e-01
6.081478544e-01,4.18829e-03,9.99999e-01,9.99186e-01,4.19169e-03,9.99999e-01
6.111885937e-01,4.66879e-03,9.99999e-01,9.99656e-01,4.67039e-03,9.99999e-01
6.142445367e-01,5.19186e-03,9.99999e-01,9.99845e-01,5.19265e-03,9.99999e-01
6.173157594e-01,5.76075e-03,9.99999e-01,9.99914e-01,5.76124e-03,9.99999e-01
6.204023382e-01,6.37852e-03,9.99999e-01,9.99927e-01,6.37898e-03,9.99999e-01
6.235043498e-01,7.04650e-03,9.99999e-01,9.99678e-01,7.04876e-03,9.99999e-01
6.266218716e-01,7.76049e-03,9.99999e-01,9.98322e-01,7.77353e-03,9.99999e-01
6.297549810e-01,8.55099e-03,9.99999e-01,9.99384e-01,8.55625e-03,9.99999e-01
6.329037559e-01,9.38856e-03,9.99999e-01,9.98786e-01,9.39996e-03,9.99999e-01
6.360682746e-01,1.02970e-02,9.99999e-01,9.98962e-01,1.03077e-02,9.99999e-01
6.392486160e-01,1.12674e-02,9.99999e-01,9.98658e-01,1.12825e-02,9.99999e-01
6.424448591e-01,1.23053e-02,9.99999e-01,9.98192e-01,1.23275e-02,9.99999e-01
6.456570834e-01,1.33334e-02,9.99999e-01,9.91637e-01,1.34458e-02,9.99999e-01
6.488853688e-01,1.45514e-02,9.99999e-01,9.93926e-01,1.46404e-02,9.99999e-01
6.521297956e-01,1.58158e-02,9.99999e-01,9.93811e-01,1.59143e-02,9.99999e-01
6.553904446e-01,1.71637e-02,9.99999e-01,9.93812e-01,1.72705e-02,9.99999e-01
6.586673968e-01,1.86133e-02,9.99999e-01,9.94718e-01,1.87121e-02,9.99999e-01
6.619607338e-01,2.01824e-02,9.99999e-01,9.97053e-01,2.02420e-02,9.99999e-01
6.652705375e-01,2.18243e-02,9.99999e-01,9.98230e-01,2.18630e-02,9.99999e-01
6.685968902e-01,2.35601e-02,9.99999e-01,9.99248e-01,2.35778e-02,9.99999e-01
6.719398746e-01,2.53796e-02,9.99999e-01,9.99619e-01,2.53893e-02,9.99999e-01
6.752995740e-01,2.72945e-02,9.99999e-01,9.99798e-01,2.73000e-02,9.99999e-01
6.786760719e-01,2.93037e-02,9.99999e-01,9.99698e-01,2.93125e-02,9.99999e-01
6.820694522e-01,3.14130e-02,9.99999e-01,9.99487e-01,3.14291e-02,9.99999e-01
6.854797995e-01,3.36300e-02,9.99999e-01,9.99338e-01,3.36522e-02,9.99999e-01
6.889071985e-01,3.59257e-02,9.99999e-01,9.98381e-01,3.59839e-02,9.99999e-01
6.923517345e-01,3.74312e-02,9.99999e-01,9.74102e-01,3.84263e-02,9.99999e-01
6.958134932e-01,4.04356e-02,9.99999e-01,9.86683e-01,4.09813e-02,9.99999e-01
6.992925606e-01,4.30885e-02,9.99999e-01,9.87121e-01,4.36507e-02,9.99999e-01
7.027890234e-01,4.57032e-02,9.99999e-01,9.84220e-01,4.64360e-02,9.99999e-01
7.063029686e-01,4.86826e-02,9.99999e-01,9.86702e-01,4.93387e-02,9.99999e-01
7.098344834e-01,5.16918e-02,9.99999e-01,9.87236e-01,5.23601e-02,9.99999e-01
7.133836558e-01,5.45511e-02,9.99999e-01,9.82879e-01,5.55013e-02,9.99998e-01
7.169505741e-01,5.12334e-02,9.99999e-01,8.71861e-01,5.87633e-02,9.99997e-01
7.205353270e-01,5.81595e-02,9.99999e-01,9.35841e-01,6.21469e-02,9.99997e-01
7.241380036e-01,6.02778e-02,9.99999e-01,9.18132e-01,6.56527e-02,9.99997e-01
7.277586936e-01,6.41470e-02,9.99999e-01,9.25896e-01,6.92811e-02,9.99997e-01
7.313974871e-01,6.73061e-02,9.99999e-01,9.21593e-01,7.30323e-02,9.99998e-01
7.350544745e-01,7.35433e-02,9.99999e-01,9.56268e-01,7.69066e-02,9.99998e-01
7.387297469e-01,7.82837e-02,9.99999e-01,9.67614e-01,8.09037e-02,9.99999e-01
7.424233956e-01,8.36669e-02,9.99999e-01,9.84044e-01,8.50235e-02,9.99999e-01
7.461355126e-01,8.83985e-02,9.99999e-01,9.90288e-01,8.92654e-02,9.99999e-01
7.498661902e-01,9.32055e-02,9.99999e-01,9.95477e-01,9.36289e-02,9.99999e-01
7.536155211e-01,9.78947e-02,9.99999e-01,9.97774e-01,9.81131e-02,9.99999e-01
7.573835987e-01,1.02599e-01,9.99999e-01,9.98853e-01,1.02717e-01,9.99999e-01
7.611705167e-01,1.07363e-01,9.99999e-01,9.99287e-01,1.07440e-01,9.99999e-01
7.649763693e-01,1.12230e-01,9.99999e-01,9.99552e-01,1.12280e-01,9.99999e-01
7.688012511e-01,1.17200e-01,9.99999e-01,9.99688e-01,1.17236e-01,9.99999e-01
7.726452574e-01,1.22275e-01,9.99999e-01,9.99743e-01,1.22306e-01,9.99999e-01
7.765084837e-01,1.27443e-01,9.99999e-01,9.99633e-01,1.27490e-01,9.99999e-01
7.803910261e-01,1.21625e-01,9.17309e-01,9.98413e-01,1.32783e-01,9.99999e-01
7.842929812e-01,9.17675e-02,6.67364e-01,9.94473e-01,1.38186e-01,9.99999e-01
7.882144461e-01,9.25203e-02,6.50520e-01,9.88720e-01,1.43695e-01,9.99999e-01
7.921555184e-01,1.14138e-01,7.68905e-01,9.93827e-01,1.49308e-01,9.99999e-01
7.961162960e-01,1.28530e-01,8.38086e-01,9.89014e-01,1.55024e-01,9.99999e-01
8.000968774e-01,1.44283e-01,9.08450e-01,9.87372e-01,1.60838e-01,9.99999e-01
8.040973618e-01,1.56678e-01,9.51562e-01,9.87356e-01,1.66750e-01,9.99999e-01
8.081178486e-01,1.64073e-01,9.77373e-01,9.71621e-01,1.72755e-01,9.99998e-01
8.121584379e-01,1.57655e-01,9.93014e-01,8.87515e-01,1.78852e-01,9.99998e-01
8.162192301e-01,1.60578e-01,9.98452e-01,8.69092e-01,1.85037e-01,9.99997e-01
8.203003262e-01,1.78390e-01,9.99978e-01,9.32493e-01,1.91308e-01,9.99997e-01
8.244018279e-01,1.79708e-01,9.99999e-01,9.09176e-01,1.97661e-01,9.99997e-01
8.285238370e-01,1.87567e-01,9.99999e-01,9.19031e-01,2.04093e-01,9.99997e-01
8.326664562e-01,1.93445e-01,9.99999e-01,9.18536e-01,2.10601e-01,9.99998e-01
8.368297885e-01,2.04367e-01,9.99999e-01,9.40993e-01,2.17182e-01,9.99998e-01
8.410139374e-01,2.15886e-01,9.99999e-01,9.64497e-01,2.23832e-01,9.99999e-01
8.452190071e-01,2.26501e-01,9.99999e-01,9.82440e-01,2.30549e-01,9.99999e-01
8.494451021e-01,2.34895e-01,9.99999e-01,9.89743e-01,2.37329e-01,9.99999e-01
8.536923276e-01,2.42688e-01,9.99999e-01,9.93939e-01,2.44168e-01,9.99999e-01
8.579607893e-01,2.50123e-01,9.99999e-01,9.96255e-01,2.51064e-01,9.99999e-01
8.622505932e-01,2.57399e-01,9.99999e-01,9.97624e-01,2.58012e-01,9.99999e-01
8.665618462e-01,2.30444e-01,8.70771e-01,9.98525e-01,2.65009e-01,9.99999e-01
8.708946554e-01,9.97289e-02,3.67151e-01,9.98308e-01,2.72053e-01,9.99999e-01
8.752491287e-01,1.21570e-01,4.36442e-01,9.97739e-01,2.79139e-01,9.99999e-01
8.796253743e-01,1.79257e-01,6.28022e-01,9.96863e-01,2.86264e-01,9.99999e-01
8.840235012e-01,2.28848e-01,7.82610e-01,9.96420e-01,2.93425e-01,9.99999e-01
8.884436187e-01,2.69385e-01,9.07723e-01,9.86852e-01,3.00618e-01,9.99998e-01
8.928858368e-01,2.58264e-01,9.61382e-01,8.71821e-01,3.07840e-01,9.99997e-01
8.973502660e-01,2.45636e-01,9.90523e-01,7.86629e-01,3.15088e-01,9.99996e-01
9.018370173e-01,2.85151e-01,9.98953e-01,8.85429e-01,3.22359e-01,9.99996e-01
9.063462024e-01,2.88381e-01,9.73147e-01,8.96900e-01,3.29648e-01,9.99995e-01
9.108779334e-01,2.67978e-01,9.39734e-01,8.44601e-01,3.36954e-01,9.99995e-01
9.154323231e-01,2.80259e-01,9.85630e-01,8.25255e-01,3.44272e-01,9.99994e-01
9.200094847e-01,2.54469e-01,8.25488e-01,8.60921e-01,3.51600e-01,9.99993e-01
9.246095321e-01,2.12968e-01,7.38646e-01,7.93573e-01,3.58935e-01,9.99988e-01
9.292325798e-01,7.06474e-02,7.90105e-01,2.32526e-01,3.66274e-01,9.99976e-01
9.338787427e-01,4.80844e-02,7.95824e-01,1.54697e-01,3.73613e-01,9.99969e-01
9.385481364e-01,1.53764e-01,8.44458e-01,4.67941e-01,3.80949e-01,9.99969e-01
9.432408771e-01,1.26639e-01,9.01436e-01,3.57405e-01,3.88281e-01,9.99965e-01
9.479570815e-01,9.16356e-02,9.48025e-01,2.42840e-01,3.95605e-01,9.99970e-01
9.526968669e-01,1.32602e-01,9.74658e-01,3.36156e-01,4.02918e-01,9.99977e-01
9.574603512e-01,1.44140e-01,9.89083e-01,3.54640e-01,4.10218e-01,9.99983e-01
9.622476530e-01,1.77171e-01,9.96585e-01,4.25602e-01,4.17502e-01,9.99988e-01
9.670588912e-01,2.58141e-01,9.98977e-01,6.08268e-01,4.24768e-01,9.99992e-01
9.718941857e-01,3.14371e-01,9.99928e-01,7.27735e-01,4.32013e-01,9.99995e-01
9.767536566e-01,3.37236e-01,9.99999e-01,7.67782e-01,4.39234e-01,9.99996e-01
9.816374249e-01,3.66891e-01,9.99999e-01,8.21834e-01,4.46430e-01,9.99997e-01
9.865456120e-01,4.01158e-01,9.99999e-01,8.84388e-01,4.53599e-01,9.99998e-01
9.914783401e-01,4.26973e-01,9.99999e-01,9.26716e-01,4.60738e-01,9.99999e-01
9.964357318e-01,4.48852e-01,9.99999e-01,9.59405e-01,4.67844e-01,9.99999e-01
1.001417910e+00,4.63266e-01,9.99999e-01,9.75467e-01,4.74917e-01,9.99999e-01
1.006425000e+00,4.75166e-01,9.99999e-01,9.85915e-01,4.81953e-01,9.99999e-01
1.011457125e+00,4.84676e-01,9.99999e-01,9.91254e-01,4.88952e-01,9.99999e-01
1.016514411e+00,4.92960e-01,9.99999e-01,9.94047e-01,4.95912e-01,9.99999e-01
1.021596983e+00,5.00362e-01,9.99838e-01,9.95252e-01,5.02830e-01,9.99999e-01
1.026704968e+00,5.02385e-01,9.89291e-01,9.96293e-01,5.09705e-01,9.99999e-01
1.031838492e+00,4.67699e-01,9.07763e-01,9.97309e-01,5.16535e-01,9.99999e-01
1.036997685e+00,2.92921e-02,5.60416e-02,9.98398e-01,5.23319e-01,9.99999e-01
1.042182673e+00,2.88477e-03,5.45051e-03,9.98085e-01,5.30056e-01,9.99999e-01
1.047393587e+00,6.84742e-03,1.27844e-02,9.97465e-01,5.36744e-01,9.99999e-01
1.052630555e+00,1.66974e-06,3.07970e-06,9.96519e-01,5.43381e-01,9.99999e-01
1.057893707e+00,6.35912e-06,1.15986e-05,9.94188e-01,5.49968e-01,9.99999e-01
1.063183176e+00,1.19825e-04,2.16535e-04,9.90462e-01,5.56501e-01,9.99999e-01
1.068499092e+00,1.02116e-03,1.83382e-03,9.84100e-01,5.62981e-01,9.99999e-01
1.073841587e+00,9.84853e-03,1.75363e-02,9.81402e-01,5.69406e-01,9.99999e-01
1.079210795e+00,4.44349e-02,7.86707e-02,9.76279e-01,5.75775e-01,9.99998e-01
1.084606849e+00,1.33994e-01,2.37763e-01,9.64283e-01,5.82088e-01,9.99998e-01
1.090029883e+00,2.64110e-01,4.71268e-01,9.48931e-01,5.88343e-01,9.99997e-01
1.095480033e+00,3.57031e-01,6.89630e-01,8.67169e-01,5.94540e-01,9.99996e-01
1.100957433e+00,3.52201e-01,8.35336e-01,6.98333e-01,6.00678e-01,9.99993e-01
1.106462220e+00,2.33811e-01,9.28280e-01,4.12403e-01,6.06756e-01,9.99986e-01
1.111994531e+00,9.74586e-02,9.72762e-01,1.62763e-01,6.12773e-01,9.99972e-01
1.117554504e+00,3.54861e-02,9.93309e-01,5.75948e-02,6.18730e-01,9.99961e-01
1.123142276e+00,8.73541e-02,9.99561e-01,1.39866e-01,6.24625e-01,9.99954e-01
1.128757988e+00,1.62602e-01,9.99999e-01,2.57923e-01,6.30459e-01,9.99950e-01
1.134401778e+00,7.46728e-02,9.99999e-01,1.17374e-01,6.36230e-01,9.99944e-01
1.140073787e+00,2.76742e-01,9.99999e-01,4.31123e-01,6.41938e-01,9.99955e-01
1.145774156e+00,1.23340e-01,9.99999e-01,1.90469e-01,6.47583e-01,9.99961e-01
1.151503026e+00,1.04568e-01,9.99999e-01,1.60100e-01,6.53165e-01,9.99967e-01
1.157260541e+00,1.30040e-01,9.99999e-01,1.97429e-01,6.58683e-01,9.99975e-01
1.163046844e+00,1.98490e-01,9.99999e-01,2.98873e-01,6.64138e-01,9.99983e-01
1.168862078e+00,2.83433e-01,9.99999e-01,4.23336e-01,6.69528e-01,9.99991e-01
1.174706389e+00,3.96440e-01,9.99999e-01,5.87446e-01,6.74855e-01,9.99995e-01
1.180579921e+00,4.91227e-01,9.99999e-01,7.22270e-01,6.80118e-01,9.99996e-01
1.186482820e+00,5.69540e-01,9.99975e-01,8.31079e-01,6.85316e-01,9.99997e-01
1.192415234e+00,5.97491e-01,9.63234e-01,8.97363e-01,6.90450e-01,9.99997e-01
1.198377311e+00,3.36122e-01,5.21429e-01,9.12689e-01,6.95521e-01,9.99997e-01
1.204369197e+00,1.22680e-27,1.84099e-27,9.17427e-01,7.00527e-01,9.99998e-01
1.210391043e+00,2.98248e-111,4.42638e-111,9.20790e-01,7.05469e-01,9.99998e-01
1.216442998e+00,2.67482e-96,3.93304e-96,9.32318e-01,7.10348e-01,9.99998e-01
1.222525213e+00,7.52458e-95,1.08224e-94,9.46801e-01,7.15162e-01,9.99999e-01
1.228637839e+00,3.31789e-73,4.72827e-73,9.62723e-01,7.19914e-01,9.99999e-01
1.234781029e+00,1.28041e-45,1.78873e-45,9.72214e-01,7.24602e-01,9.99999e-01
1.240954934e+00,2.69733e-30,3.73974e-30,9.82326e-01,7.29227e-01,9.99999e-01
1.247159708e+00,1.03248e-14,1.41863e-14,9.86218e-01,7.33790e-01,9.99999e-01
1.253395507e+00,5.59803e-10,7.64828e-10,9.87741e-01,7.38290e-01,9.99999e-01
1.259662485e+00,5.09207e-06,6.91402e-06,9.88331e-01,7.42728e-01,9.99999e-01
1.265960797e+00,1.04939e-03,1.42168e-03,9.81453e-01,7.47104e-01,9.99999e-01
1.272290601e+00,3.46569e-02,4.72393e-02,9.70950e-01,7.51419e-01,9.99998e-01
1.278652054e+00,3.03860e-02,4.17939e-02,9.43176e-01,7.55673e-01,9.99998e-01
1.285045314e+00,4.62419e-05,6.35064e-05,8.99453e-01,7.59866e-01,9.99997e-01
1.291470541e+00,2.74696e-13,3.98629e-13,8.31546e-01,7.63999e-01,9.99996e-01
1.297927893e+00,5.17401e-05,7.51206e-05,7.69832e-01,7.68072e-01,9.99993e-01
1.304417533e+00,2.19148e-03,3.60559e-03,7.36029e-01,7.72086e-01,9.99987e-01
1.310939621e+00,4.15958e-04,6.52965e-04,6.78994e-01,7.76041e-01,9.99979e-01
1.317494319e+00,1.38248e-38,2.18539e-38,6.84391e-01,7.79937e-01,9.99965e-01
1.324081790e+00,4.55586e-25,7.51969e-25,5.70267e-01,7.83775e-01,9.99944e-01
1.330702199e+00,3.53235e-15,9.61343e-15,1.71360e-01,7.87556e-01,9.99907e-01
1.337355710e+00,3.28525e-15,1.53034e-13,6.28951e-03,7.91280e-01,9.99823e-01
1.344042489e+00,2.83380e-16,7.61125e-14,1.41602e-04,7.94948e-01,9.99623e-01
1.350762701e+00,4.92139e-25,4.91294e-15,1.32014e-11,7.98559e-01,9.99398e-01
1.357516515e+00,3.05135e-24,3.05134e-09,6.14918e-17,8.02115e-01,9.99255e-01
1.364304097e+00,5.42254e-16,9.11434e-07,1.22551e-10,8.05616e-01,9.99202e-01
1.371125618e+00,1.27851e-09,8.39492e-04,6.33379e-07,8.09063e-01,9.99195e-01
1.377981246e+00,9.74129e-09,2.21585e-03,2.05521e-06,8.12456e-01,9.99135e-01
1.384871152e+00,1.54375e-10,2.82343e-02,3.64349e-09,8.15796e-01,9.99159e-01
1.391795508e+00,7.57852e-12,3.75287e-02,1.09558e-10,8.19084e-01,9.99287e-01
1.398754485e+00,2.16742e-09,1.26498e-01,1.59428e-08,8.22319e-01,9.99387e-01
1.405748258e+00,4.00573e-09,2.22041e-01,1.66434e-08,8.25502e-01,9.99451e-01
1.412776999e+00,8.23601e-09,3.83889e-01,1.93644e-08,8.28635e-01,9.99558e-01
1.419840884e+00,1.63818e-08,3.52628e-01,3.83836e-08,8.31718e-01,9.99670e-01
1.426940089e+00,1.42850e-06,1.36875e-02,5.29919e-06,8.34750e-01,9.99795e-01
1.434074789e+00,0.00000e+00,0.00000e+00,4.69418e-05,8.37734e-01,9.99872e-01
1.441245163e+00,0.00000e+00,0.00000e+00,2.87069e-04,8.40669e-01,9.99900e-01
1.448451389e+00,0.00000e+00,0.00000e+00,3.69401e-03,8.43555e-01,9.99917e-01
1.455693646e+00,0.00000e+00,0.00000e+00,2.18412e-02,8.46395e-01,9.99931e-01
1.462972114e+00,0.00000e+00,0.00000e+00,3.14133e-02,8.49188e-01,9.99941e-01
1.470286975e+00,2.47868e-185,3.42775e-184,1.85285e-02,8.51934e-01,9.99947e-01
