#,Wave/freq,Total,CO2,H2O,Rayleigh,CIA
4.000000000e-01,2.60876e-17,9.99999e-01,9.99924e-01,2.60895e-17,9.99999e-01
4.020000000e-01,5.55063e-17,9.99999e-01,9.99953e-01,5.55089e-17,9.99999e-01
4.040100000e-01,1.16263e-16,9.99999e-01,9.99979e-01,1.16266e-16,9.99999e-01
4.060300500e-01,2.39992e-16,9.99999e-01,9.99995e-01,2.39993e-16,9.99999e-01
4.080602003e-01,4.88346e-16,9.99999e-01,9.99998e-01,4.88346e-16,9.99999e-01
4.101005013e-01,9.79859e-16,9.99999e-01,9.99999e-01,9.79859e-16,9.99999e-01
4.121510038e-01,1.93921e-15,9.99999e-01,9.99996e-01,1.93921e-15,9.99999e-01
4.142117588e-01,3.78636e-15,9.99999e-01,9.99978e-01,3.78644e-15,9.99999e-01
4.162828176e-01,7.29553e-15,9.99999e-01,9.99907e-01,7.29620e-15,9.99999e-01
4.183642317e-01,1.38775e-14,9.99999e-01,9.99944e-01,1.38783e-14,9.99999e-01
4.204560528e-01,2.60642e-14,9.99999e-01,9.99965e-01,2.60651e-14,9.99999e-01
4.225583331e-01,4.83470e-14,9.99999e-01,9.99987e-01,4.83476e-14,9.99999e-01
4.246711247e-01,8.85906e-14,9.99999e-01,9.99989e-01,8.85915e-14,9.99999e-01
4.267944804e-01,1.60401e-13,9.99999e-01,9.99984e-01,1.60403e-13,9.99999e-01
4.289284528e-01,2.87036e-13,9.99999e-01,9.99988e-01,2.87040e-13,9.99999e-01
4.310730950e-01,5.07781e-13,9.99999e-01,9.99994e-01,5.07784e-13,9.99999e-01
4.332284605e-01,8.88222e-13,9.99999e-01,9.99998e-01,8.88223e-13,9.99999e-01
4.353946028e-01,1.53663e-12,9.99999e-01,9.99998e-01,1.53663e-12,9.99999e-01
4.375715758e-01,2.62972e-12,9.99999e-01,9.99990e-01,2.62974e-12,9.99999e-01
4.397594337e-01,4.45259e-12,9.99999e-01,9.99917e-01,4.45296e-12,9.99999e-01
4.419582309e-01,7.45906e-12,9.99999e-01,9.99581e-01,7.46218e-12,9.99999e-01
4.441680220e-01,1.23741e-11,9.99999e-01,9.99679e-01,1.23781e-11,9.99999e-01
4.463888621e-01,2.03215e-11,9.99999e-01,9.99664e-01,2.03283e-11,9.99999e-01
4.486208064e-01,3.30524e-11,9.99999e-01,9.99792e-01,3.30592e-11,9.99999e-01
4.508639105e-01,5.32440e-11,9.99999e-01,9.99902e-01,5.32492e-11,9.99999e-01
4.531182300e-01,8.49624e-11,9.99999e-01,9.99961e-01,8.49657e-11,9.99999e-01
4.553838212e-01,1.34324e-10,9.99999e-01,9.99973e-01,1.34328e-10,9.99999e-01
4.576607403e-01,2.10452e-10,9.99999e-01,9.99987e-01,2.10455e-10,9.99999e-01
4.599490440e-01,3.26811e-10,9.99999e-01,9.99991e-01,3.26814e-10,9.99999e-01
4.622487892e-01,5.03114e-10,9.99999e-01,9.99998e-01,5.03114e-10,9.99999e-01
4.645600332e-01,7.67944e-10,9.99999e-01,9.99993e-01,7.67948e-10,9.99999e-01
4.668828333e-01,1.16232e-09,9.99999e-01,9.99900e-01,1.16244e-09,9.99999e-01
4.692172475e-01,1.74485e-09,9.99999e-01,9.99789e-01,1.74522e-09,9.99999e-01
4.715633337e-01,2.59888e-09,9.99999e-01,9.99861e-01,2.59923e-09,9.99999e-01
4.739211504e-01,3.84031e-09,9.99999e-01,9.99868e-01,3.84082e-09,9.99999e-01
4.762907561e-01,5.63148e-09,9.99999e-01,9.99931e-01,5.63186e-09,9.99999e-01
4.786722099e-01,8.19568e-09,9.99999e-01,9.99971e-01,8.19591e-09,9.99999e-01
4.810655710e-01,1.18391e-08,9.99999e-01,9.99991e-01,1.18392e-08,9.99999e-01
4.834708988e-01,1.69769e-08,9.99999e-01,9.99917e-01,1.69783e-08,9.99999e-01
4.858882533e-01,2.41718e-08,9.99999e-01,9.99851e-01,2.41754e-08,9.99999e-01
4.883176946e-01,3.41796e-08,9.99999e-01,9.99874e-01,3.41839e-08,9.99999e-01
4.907592831e-01,4.80007e-08,9.99999e-01,9.99887e-01,4.80061e-08,9.99999e-01
4.932130795e-01,6.69614e-08,9.99999e-01,9.99919e-01,6.69667e-08,9.99999e-01
4.956791449e-01,9.28000e-08,9.99999e-01,9.99957e-01,9.28039e-08,9.99999e-01
4.981575406e-01,1.27756e-07,9.99999e-01,9.99787e-01,1.27783e-07,9.99999e-01
5.006483283e-01,1.74742e-07,9.99999e-01,9.99446e-01,1.74839e-07,9.99999e-01
5.031515699e-01,2.37085e-07,9.99999e-01,9.97219e-01,2.37746e-07,9.99999e-01
5.056673278e-01,3.20860e-07,9.99999e-01,9.98535e-01,3.21330e-07,9.99999e-01
5.081956644e-01,4.30926e-07,9.99999e-01,9.98153e-01,4.31723e-07,9.99999e-01
5.107366428e-01,5.75949e-07,9.99999e-01,9.98753e-01,5.76667e-07,9.99999e-01
5.132903260e-01,7.65339e-07,9.99999e-01,9.99288e-01,7.65883e-07,9.99999e-01
5.158567776e-01,1.01120e-06,9.99999e-01,9.99699e-01,1.01150e-06,9.99999e-01
5.184360615e-01,1.32840e-06,9.99999e-01,9.99879e-01,1.32856e-06,9.99999e-01
5.210282418e-01,1.73556e-06,9.99999e-01,9.99954e-01,1.73564e-06,9.99999e-01
5.236333830e-01,2.25510e-06,9.99999e-01,9.99818e-01,2.25551e-06,9.99999e-01
5.262515499e-01,2.91564e-06,9.99999e-01,9.99886e-01,2.91597e-06,9.99999e-01
5.288828077e-01,3.75035e-06,9.99999e-01,9.99895e-01,3.75074e-06,9.99999e-01
5.315272217e-01,4.80012e-06,9.99999e-01,9.99908e-01,4.80055e-06,9.99999e-01
5.341848578e-01,6.11396e-06,9.99999e-01,9.99939e-01,6.11433e-06,9.99999e-01
5.368557821e-01,7.74889e-06,9.99999e-01,9.99787e-01,7.75053e-06,9.99999e-01
5.395400610e-01,9.77116e-06,9.99999e-01,9.99230e-01,9.77867e-06,9.99999e-01
5.422377613e-01,1.22690e-05,9.99999e-01,9.99019e-01,1.22810e-05,9.99999e-01
5.449489501e-01,1.53403e-05,9.99999e-01,9.99081e-01,1.53544e-05,9.99999e-01
5.476736949e-01,1.90971e-05,9.99999e-01,9.99192e-01,1.91125e-05,9.99999e-01
5.504120634e-01,2.36739e-05,9.99999e-01,9.99413e-01,2.36877e-05,9.99999e-01
5.531641237e-01,2.92254e-05,9.99999e-01,9.99704e-01,2.92340e-05,9.99999e-01
5.559299443e-01,3.59241e-05,9.99999e-01,9.99857e-01,3.59292e-05,9.99999e-01
5.587095940e-01,4.39744e-05,9.99999e-01,9.99910e-01,4.39784e-05,9.99999e-01
5.615031420e-01,5.36108e-05,9.99999e-01,9.99899e-01,5.36162e-05,9.99999e-01
5.643106577e-01,6.51033e-05,9.99999e-01,9.99885e-01,6.51108e-05,9.99999e-01
5.671322110e-01,7.86569e-05,9.99999e-01,9.98604e-01,7.87669e-05,9.99999e-01
5.699678720e-01,9.47919e-05,9.99999e-01,9.98550e-01,9.49294e-05,9.99999e-01
5.728177114e-01,1.13814e-04,9.99999e-01,9.98475e-01,1.13987e-04,9.99999e-01
5.756818000e-01,1.36188e-04,9.99999e-01,9.98603e-01,1.36378e-04,9.99999e-01
5.785602090e-01,1.62392e-04,9.99999e-01,9.98785e-01,1.62589e-04,9.99999e-01
5.814530100e-01,1.92931e-04,9.99999e-01,9.98777e-01,1.93167e-04,9.99999e-01
5.843602750e-01,2.28380e-04,9.99999e-01,9.98533e-01,2.28715e-04,9.99999e-01
5.872820764e-01,2.66515e-04,9.99999e-01,9.87447e-01,2.69903e-04,9.99999e-01
5.902184868e-01,3.12677e-04,9.99999e-01,9.84906e-01,3.17468e-04,9.99999e-01
5.931695792e-01,3.68237e-04,9.99999e-01,9.89297e-01,3.72220e-04,9.99999e-01
5.961354271e-01,4.29951e-04,9.99999e-01,9.88288e-01,4.35046e-04,9.99999e-01
5.991161043e-01,5.02579e-04,9.99999e-01,9.91451e-01,5.06912e-04,9.99999e-01
6.021116848e-01,5.86011e-04,9.99999e-01,9.95146e-01,5.88869e-04,9.99999e-01
6.051222432e-01,6.80378e-04,9.99999e-01,9.97542e-01,6.82054e-04,9.99999e-01
6.081478544e-01,7.86860e-04,9.99999e-01,9.98938e-01,7.87696e-04,9.99999e-01
6.111885937e-01,9.06710e-04,9.99999e-01,9.99551e-01,9.07116e-04,9.99999e-01
6.142445367e-01,1.04153e-03,9.99999e-01,9.99799e-01,1.04173e-03,9.99999e-01
6.173157594e-01,1.19293e-03,9.99999e-01,9.99888e-01,1.19306e-03,9.99999e-01
6.204023382e-01,1.36259e-03,9.99999e-01,9.99905e-01,1.36272e-03,9.99999e-01
6.235043498e-01,1.55177e-03,9.99999e-01,9.99580e-01,1.55242e-03,9.99999e-01
6.266218716e-01,1.76012e-03,9.99999e-01,9.97810e-01,1.76398e-03,9.99999e-01
6.297549810e-01,1.99771e-03,9.99999e-01,9.99196e-01,1.99932e-03,9.99999e-01
6.329037559e-01,2.25688e-03,9.99999e-01,9.98416e-01,2.26046e-03,9.99999e-01
6.360682746e-01,2.54606e-03,9.99999e-01,9.98646e-01,2.54952e-03,9.99999e-01
6.392486160e-01,2.86369e-03,9.99999e-01,9.98249e-01,2.86871e-03,9.99999e-01
6.424448591e-01,3.21276e-03,9.99999e-01,9.97640e-01,3.22035e-03,9.99999e-01
6.456570834e-01,3.56752e-03,9.99999e-01,9.89095e-01,3.60685e-03,9.99999e-01
6.488853688e-01,3.99880e-03,9.99999e-01,9.92084e-01,4.03071e-03,9.99999e-01
6.521297956e-01,4.45825e-03,9.99999e-01,9.91935e-01,4.49450e-03,9.99999e-01
6.553904446e-01,4.96053e-03,9.99999e-01,9.91931e-01,5.00088e-03,9.99999e-01
6.586673968e-01,5.51436e-03,9.99999e-01,9.93114e-01,5.55259e-03,9.99999e-01
6.619607338e-01,6.12880e-03,9.99999e-01,9.96157e-01,6.15244e-03,9.99999e-01
6.652705375e-01,6.78760e-03,9.99999e-01,9.97692e-01,6.80330e-03,9.99999e-01
6.685968902e-01,7.50071e-03,9.99999e-01,9.99019e-01,7.50807e-03,9.99999e-01
6.719398746e-01,8.26564e-03,9.99999e-01,9.99503e-01,8.26975e-03,9.99999e-01
6.752995740e-01,9.08893e-03,9.99999e-01,9.99737e-01,9.09132e-03,9.99999e-01
6.786760719e-01,9.97191e-03,9.99999e-01,9.99606e-01,9.97583e-03,9.99999e-01
6.820694522e-01,1.09190e-02,9.99999e-01,9.99331e-01,1.09263e-02,9.99999e-01
6.854797995e-01,1.19356e-02,9.99999e-01,9.99136e-01,1.19459e-02,9.99999e-01
6.889071985e-01,1.30101e-02,9.99999e-01,9.97886e-01,1.30377e-02,9.99999e-01
6.923517345e-01,1.37266e-02,9.99999e-01,9.66347e-01,1.42046e-02,9.99999e-01
6.958134932e-01,1.51823e-02,9.99999e-01,9.82687e-01,1.54498e-02,9.99999e-01
6.992925606e-01,1.64948e-02,9.99999e-01,9.83223e-01,1.67763e-02,9.99999e-01
7.027890234e-01,1.78136e-02,9.99999e-01,9.79463e-01,1.81871e-02,9.99999e-01
7.063029686e-01,1.93442e-02,9.99999e-01,9.82682e-01,1.96851e-02,9.99999e-01
7.098344834e-01,2.09195e-02,9.99999e-01,9.83375e-01,2.12732e-02,9.99999e-01
7.133836558e-01,2.24426e-02,9.99999e-01,9.77715e-01,2.29542e-02,9.99998e-01
7.169505741e-01,2.06979e-02,9.99999e-01,8.36927e-01,2.47308e-02,9.99997e-01
7.205353270e-01,2.44097e-02,9.99999e-01,9.17462e-01,2.66058e-02,9.99997e-01
7.241380036e-01,2.55752e-02,9.99999e-01,8.94814e-01,2.85816e-02,9.99996e-01
7.277586936e-01,2.77385e-02,9.99999e-01,9.04691e-01,3.06607e-02,9.99997e-01
7.313974871e-01,2.95328e-02,9.99999e-01,8.99144e-01,3.28455e-02,9.99998e-01
7.350544745e-01,3.31490e-02,9.99999e-01,9.43389e-01,3.51382e-02,9.99998e-01
7.387297469e-01,3.59633e-02,9.99999e-01,9.57976e-01,3.75408e-02,9.99999e-01
7.424233956e-01,3.92238e-02,9.99999e-01,9.79238e-01,4.00554e-02,9.99999e-01
7.461355126e-01,4.21437e-02,9.99999e-01,9.87348e-01,4.26837e-02,9.99999e-01
7.498661902e-01,4.51596e-02,9.99999e-01,9.94104e-01,4.54274e-02,9.99999e-01
7.536155211e-01,4.81478e-02,9.99999e-01,9.97096e-01,4.82880e-02,9.99999e-01
7.573835987e-01,5.11902e-02,9.99999e-01,9.98505e-01,5.12668e-02,9.99999e-01
7.611705167e-01,5.43146e-02,9.99999e-01,9.99070e-01,5.43651e-02,9.99999e-01
7.649763693e-01,5.75503e-02,9.99999e-01,9.99416e-01,5.75839e-02,9.99999e-01
7.688012511e-01,6.08992e-02,9.99999e-01,9.99593e-01,6.09239e-02,9.99999e-01
7.726452574e-01,6.43645e-02,9.99999e-01,9.99664e-01,6.43860e-02,9.99999e-01
7.765084837e-01,6.79380e-02,9.99999e-01,9.99521e-01,6.79705e-02,9.99999e-01
7.803910261e-01,6.43166e-02,8.98992e-01,9.97929e-01,7.16779e-02,9.99999e-01
7.842929812e-01,4.47152e-02,5.95906e-01,9.92789e-01,7.55082e-02,9.99999e-01
7.882144461e-01,4.53583e-02,5.78362e-01,9.85304e-01,7.94615e-02,9.99999e-01
7.921555184e-01,5.89746e-02,7.11255e-01,9.91954e-01,8.35375e-02,9.99999e-01
7.961162960e-01,6.87433e-02,7.94555e-01,9.85684e-01,8.77358e-02,9.99999e-01
8.000968774e-01,7.99095e-02,8.82424e-01,9.83549e-01,9.20559e-02,9.99999e-01
8.040973618e-01,8.89704e-02,9.37331e-01,9.83529e-01,9.64971e-02,9.99999e-01
8.081178486e-01,9.44889e-02,9.70589e-01,9.63142e-01,1.01058e-01,9.99998e-01
8.121584379e-01,8.97391e-02,9.90903e-01,8.56204e-01,1.05739e-01,9.99997e-01
8.162192301e-01,9.19470e-02,9.97983e-01,8.33392e-01,1.10537e-01,9.99997e-01
8.203003262e-01,1.05479e-01,9.99971e-01,9.13635e-01,1.15452e-01,9.99996e-01
8.244018279e-01,1.06590e-01,9.99999e-01,8.84702e-01,1.20482e-01,9.99996e-01
8.285238370e-01,1.12546e-01,9.99999e-01,8.95887e-01,1.25625e-01,9.99997e-01
8.326664562e-01,1.17182e-01,9.99999e-01,8.95348e-01,1.30879e-01,9.99997e-01
8.368297885e-01,1.25861e-01,9.99999e-01,9.23797e-01,1.36243e-01,9.99998e-01
8.410139374e-01,1.35190e-01,9.99999e-01,9.53959e-01,1.41715e-01,9.99999e-01
8.452190071e-01,1.43927e-01,9.99999e-01,9.77157e-01,1.47291e-01,9.99999e-01
8.494451021e-01,1.50926e-01,9.99999e-01,9.86637e-01,1.52970e-01,9.99999e-01
8.536923276e-01,1.57496e-01,9.99999e-01,9.92100e-01,1.58750e-01,9.99999e-01
8.579607893e-01,1.63823e-01,9.99999e-01,9.95115e-01,1.64627e-01,9.99999e-01
8.622505932e-01,1.70070e-01,9.99999e-01,9.96900e-01,1.70599e-01,9.99999e-01
8.665618462e-01,1.50859e-01,8.55463e-01,9.98076e-01,1.76664e-01,9.99999e-01
8.708946554e-01,5.12089e-02,2.80670e-01,9.97793e-01,1.82817e-01,9.99999e-01
8.752491287e-01,6.50528e-02,3.45028e-01,9.97050e-01,1.89058e-01,9.99999e-01
8.796253743e-01,1.06812e-01,5.48724e-01,9.95907e-01,1.95382e-01,9.99999e-01
8.840235012e-01,1.46125e-01,7.27379e-01,9.95329e-01,2.01786e-01,9.99999e-01
8.884436187e-01,1.80566e-01,8.81566e-01,9.82881e-01,2.08267e-01,9.99998e-01
8.928858368e-01,1.71055e-01,9.49957e-01,8.36849e-01,2.14822e-01,9.99997e-01
8.973502660e-01,1.60410e-01,9.87664e-01,7.32777e-01,2.21448e-01,9.99995e-01
9.018370173e-01,1.94654e-01,9.98636e-01,8.54261e-01,2.28142e-01,9.99995e-01
9.063462024e-01,1.97639e-01,9.65331e-01,8.68283e-01,2.34900e-01,9.99994e-01
9.108779334e-01,1.79655e-01,9.22209e-01,8.03270e-01,2.41718e-01,9.99993e-01
9.154323231e-01,1.90359e-01,9.81325e-01,7.79257e-01,2.48594e-01,9.99993e-01
9.200094847e-01,1.70640e-01,7.88332e-01,8.23483e-01,2.55523e-01,9.99991e-01
9.246095321e-01,1.34054e-01,6.74487e-01,7.43119e-01,2.62504e-01,9.99985e-01
9.292325798e-01,3.43872e-02,7.37576e-01,1.61070e-01,2.69531e-01,9.99969e-01
9.338787427e-01,2.08654e-02,7.43588e-01,9.51220e-02,2.76602e-01,9.99960e-01
9.385481364e-01,9.01238e-02,8.02573e-01,3.83158e-01,2.83714e-01,9.99960e-01
9.432408771e-01,7.13311e-02,8.73480e-01,2.75498e-01,2.90862e-01,9.99955e-01
9.479570815e-01,4.69572e-02,9.32750e-01,1.67305e-01,2.98044e-01,9.99961e-01
9.526968669e-01,7.43711e-02,9.67088e-01,2.50234e-01,3.05257e-01,9.99970e-01
9.574603512e-01,8.22447e-02,9.85785e-01,2.66253e-01,3.12496e-01,9.99977e-01
9.622476530e-01,1.06550e-01,9.95548e-01,3.34441e-01,3.19759e-01,9.99985e-01
9.670588912e-01,1.72332e-01,9.98666e-01,5.27534e-01,3.27042e-01,9.99990e-01
9.718941857e-01,2.21278e-01,9.99907e-01,6.61883e-01,3.34342e-01,9.99994e-01
9.767536566e-01,2.42378e-01,9.99999e-01,7.09423e-01,3.41656e-01,9.99995e-01
9.816374249e-01,2.70332e-01,9.99999e-01,7.74634e-01,3.48981e-01,9.99996e-01
9.865456120e-01,3.03607e-01,9.99999e-01,8.52077e-01,3.56314e-01,9.99998e-01
9.914783401e-01,3.29291e-01,9.99999e-01,9.05513e-01,3.63651e-01,9.99999e-01
9.964357318e-01,3.51470e-01,9.99999e-01,9.47382e-01,3.70991e-01,9.99999e-01
1.001417910e+00,3.66266e-01,9.99999e-01,9.68116e-01,3.78328e-01,9.99999e-01
1.006425000e+00,3.78589e-01,9.99999e-01,9.81659e-01,3.85662e-01,9.99999e-01
1.011457125e+00,3.88511e-01,9.99999e-01,9.88603e-01,3.92989e-01,9.99999e-01
1.016514411e+00,3.97200e-01,9.99999e-01,9.92239e-01,4.00306e-01,9.99999e-01
1.021596983e+00,4.05002e-01,9.99787e-01,9.93808e-01,4.07611e-01,9.99999e-01
1.026704968e+00,4.07150e-01,9.86062e-01,9.95165e-01,4.14901e-01,9.99999e-01
1.031838492e+00,3.74806e-01,8.90733e-01,9.96490e-01,4.22174e-01,9.99999e-01
1.036997685e+00,1.77688e-02,4.14432e-02,9.97910e-01,4.29427e-01,9.99999e-01
1.042182673e+00,7.27115e-04,1.66829e-03,9.97501e-01,4.36657e-01,9.99999e-01
1.047393587e+00,2.01337e-03,4.54837e-03,9.96692e-01,4.43862e-01,9.99999e-01
1.052630555e+00,6.80887e-08,1.51386e-07,9.95459e-01,4.51041e-01,9.99999e-01
1.057893707e+00,2.60857e-07,5.71489e-07,9.92420e-01,4.58191e-01,9.99999e-01
1.063183176e+00,1.18445e-05,2.56332e-05,9.87570e-01,4.65309e-01,9.99999e-01
1.068499092e+00,1.49786e-04,3.21258e-04,9.79304e-01,4.72394e-01,9.99999e-01
1.073841587e+00,2.58353e-03,5.48115e-03,9.75809e-01,4.79444e-01,9.99999e-01
1.079210795e+00,1.82998e-02,3.85294e-02,9.69169e-01,4.86456e-01,9.99998e-01
1.084606849e+00,7.38133e-02,1.55849e-01,9.53676e-01,4.93430e-01,9.99998e-01
1.090029883e+00,1.77141e-01,3.76691e-01,9.33948e-01,5.00363e-01,9.99997e-01
1.095480033e+00,2.61718e-01,6.16920e-01,8.30544e-01,5.07253e-01,9.99995e-01
1.100957433e+00,2.57429e-01,7.91086e-01,6.27564e-01,5.14100e-01,9.99991e-01
1.106462220e+00,1.53475e-01,9.07559e-01,3.21252e-01,5.20901e-01,9.99982e-01
1.111994531e+00,5.06556e-02,9.64628e-01,9.88205e-02,5.27654e-01,9.99964e-01
1.117554504e+00,1.44750e-02,9.91286e-01,2.72226e-02,5.34360e-01,9.99949e-01
1.123142276e+00,4.67506e-02,9.99429e-01,8.64230e-02,5.41016e-01,9.99940e-01
1.128757988e+00,9.76391e-02,9.99999e-01,1.78308e-01,5.47620e-01,9.99935e-01
1.134401778e+00,4.47703e-02,9.99999e-01,8.07934e-02,5.54173e-01,9.99927e-01
1.140073787e+00,1.90153e-01,9.99999e-01,3.39172e-01,5.60672e-01,9.99941e-01
1.145774156e+00,7.01935e-02,9.99999e-01,1.23778e-01,5.67117e-01,9.99950e-01
1.151503026e+00,5.67324e-02,9.99999e-01,9.89262e-02,5.73506e-01,9.99957e-01
1.157260541e+00,7.23090e-02,9.99999e-01,1.24709e-01,5.79839e-01,9.99967e-01
1.163046844e+00,1.24173e-01,9.99999e-01,2.11861e-01,5.86115e-01,9.99979e-01
1.168862078e+00,1.94618e-01,9.99999e-01,3.28564e-01,5.92333e-01,9.99989e-01
1.174706389e+00,3.00226e-01,9.99999e-01,5.01639e-01,5.98492e-01,9.99994e-01
1.180579921e+00,3.96151e-01,9.99999e-01,6.55240e-01,6.04591e-01,9.99996e-01
1.186482820e+00,4.79814e-01,9.99968e-01,7.85789e-01,6.10630e-01,9.99996e-01
1.192415234e+00,5.11164e-01,9.52944e-01,8.68273e-01,6.16609e-01,9.99997e-01
1.198377311e+00,2.84589e-01,5.04704e-01,8.87671e-01,6.22526e-01,9.99997e-01
1.204369197e+00,2.19290e-35,3.72494e-35,8.93800e-01,6.28382e-01,9.99997e-01
1.210391043e+00,1.59680e-144,2.67350e-144,8.98005e-01,6.34175e-01,9.99998e-01
1.216442998e+00,5.26191e-125,8.70366e-125,9.12699e-01,6.39906e-01,9.99998e-01
1.222525213e+00,4.09261e-123,6.57719e-123,9.31177e-01,6.45573e-01,9.99998e-01
1.228637839e+00,6.91570e-95,1.09805e-94,9.51644e-01,6.51178e-01,9.99999e-01
1.234781029e+00,7.41513e-59,1.14723e-58,9.63907e-01,6.56719e-01,9.99999e-01
1.240954934e+00,6.29715e-39,9.64511e-39,9.77003e-01,6.62196e-01,9.99999e-01
1.247159708e+00,1.62322e-18,2.45753e-18,9.82055e-01,6.67610e-01,9.99999e-01
1.253395507e+00,1.32472e-12,1.99058e-12,9.84033e-01,6.72959e-01,9.99999e-01
1.259662485e+00,1.90547e-07,2.83985e-07,9.84798e-01,6.78245e-01,9.99999e-01
1.265960797e+00,1.88740e-04,2.80361e-04,9.75870e-01,6.83466e-01,9.99999e-01
1.272290601e+00,1.32492e-02,1.98245e-02,9.62267e-01,6.88623e-01,9.99998e-01
1.278652054e+00,1.22728e-02,1.85569e-02,9.26576e-01,6.93716e-01,9.99998e-01
1.285045314e+00,6.11666e-06,9.25139e-06,8.71123e-01,6.98745e-01,9.99996e-01
1.291470541e+00,7.36257e-17,1.19289e-16,7.86586e-01,7.03711e-01,9.99994e-01
1.297927893e+00,6.69733e-06,1.08793e-05,7.11881e-01,7.08612e-01,9.99991e-01
1.304417533e+00,3.78181e-04,7.13465e-04,6.72048e-01,7.13449e-01,9.99984e-01
1.310939621e+00,7.85257e-05,1.41191e-04,6.05441e-01,7.18224e-01,9.99973e-01
1.317494319e+00,8.86036e-50,1.60708e-49,6.11883e-01,7.22934e-01,9.99955e-01
1.324081790e+00,1.04550e-22,2.00689e-22,4.87457e-01,7.27582e-01,9.99928e-01
1.330702199e+00,2.10833e-19,7.45404e-19,1.18216e-01,7.32167e-01,9.99879e-01
1.337355710e+00,2.69620e-19,3.86643e-17,1.74130e-03,7.36689e-01,9.99770e-01
1.344042489e+00,1.48454e-20,2.19762e-17,2.73873e-05,7.41150e-01,9.99508e-01
1.350762701e+00,4.69948e-32,3.56344e-19,1.47354e-14,7.45548e-01,9.99215e-01
1.357516515e+00,5.78291e-31,1.70863e-11,1.76960e-21,7.49885e-01,9.99028e-01
1.364304097e+00,2.85790e-20,1.75788e-08,2.53548e-13,7.54160e-01,9.98958e-01
1.371125618e+00,6.22406e-12,1.15298e-04,2.01534e-08,7.58375e-01,9.98949e-01
1.377981246e+00,6.51257e-11,3.75108e-04,6.37439e-08,7.62529e-01,9.98872e-01
1.384871152e+00,4.55254e-13,9.86408e-03,2.81959e-11,7.66624e-01,9.98903e-01
1.391795508e+00,6.09387e-15,1.45020e-02,1.87998e-13,7.70659e-01,9.99070e-01
1.398754485e+00,1.10554e-11,6.76268e-02,1.45705e-10,7.74634e-01,9.99201e-01
1.405748258e+00,2.44241e-11,1.41980e-01,1.56076e-10,7.78552e-01,9.99283e-01
1.412776999e+00,7.41023e-11,2.87830e-01,2.24427e-10,7.82411e-01,9.99424e-01
1.419840884e+00,1.32745e-10,2.73748e-01,4.01507e-10,7.86212e-01,9.99570e-01
1.426940089e+00,6.79037e-08,8.72407e-03,3.46181e-07,7.89956e-01,9.99733e-01
1.434074789e+00,0.00000e+00,0.00000e+00,3.64241e-06,7.93644e-01,9.99833e-01
1.441245163e+00,0.00000e+00,0.00000e+00,3.45893e-05,7.97275e-01,9.99870e-01
1.448451389e+00,0.00000e+00,0.00000e+00,9.19186e-04,8.00851e-01,9.99892e-01
1.455693646e+00,0.00000e+00,0.00000e+00,8.52345e-03,8.04372e-01,9.99911e-01
1.462972114e+00,0.00000e+00,0.00000e+00,1.24383e-02,8.07838e-01,9.99924e-01
1.470286975e+00,3.34507e-241,1.03126e-239,6.48885e-03,8.11250e-01,9.99931e-01
