#,Wave/freq,Total,CO2,H2O,Rayleigh,CIA
4.000000000e-01,1.11491e-11,9.99999e-01,9.99950e-01,1.11496e-11,9.99999e-01
4.020000000e-01,1.83574e-11,9.99999e-01,9.99968e-01,1.83579e-11,9.99999e-01
4.040100000e-01,2.99146e-11,9.99999e-01,9.99986e-01,2.99150e-11,9.99999e-01
4.060300500e-01,4.82798e-11,9.99999e-01,9.99996e-01,4.82799e-11,9.99999e-01
4.080602003e-01,7.71858e-11,9.99999e-01,9.99998e-01,7.71859e-11,9.99999e-01
4.101005013e-01,1.22260e-10,9.99999e-01,9.99999e-01,1.22260e-10,9.99999e-01
4.121510038e-01,1.91904e-10,9.99999e-01,9.99997e-01,1.91904e-10,9.99999e-01
4.142117588e-01,2.98546e-10,9.99999e-01,9.99985e-01,2.98551e-10,9.99999e-01
4.162828176e-01,4.60398e-10,9.99999e-01,9.99938e-01,4.60426e-10,9.99999e-01
4.183642317e-01,7.03995e-10,9.99999e-01,9.99963e-01,7.04021e-10,9.99999e-01
4.204560528e-01,1.06748e-09,9.99999e-01,9.99977e-01,1.06750e-09,9.99999e-01
4.225583331e-01,1.60538e-09,9.99999e-01,9.99991e-01,1.60539e-09,9.99999e-01
4.246711247e-01,2.39491e-09,9.99999e-01,9.99992e-01,2.39493e-09,9.99999e-01
4.267944804e-01,3.54461e-09,9.99999e-01,9.99989e-01,3.54464e-09,9.99999e-01
4.289284528e-01,5.20578e-09,9.99999e-01,9.99991e-01,5.20582e-09,9.99999e-01
4.310730950e-01,7.58766e-09,9.99999e-01,9.99996e-01,7.58768e-09,9.99999e-01
4.332284605e-01,1.09773e-08,9.99999e-01,9.99998e-01,1.09773e-08,9.99999e-01
4.353946028e-01,1.57658e-08,9.99999e-01,9.99999e-01,1.57658e-08,9.99999e-01
4.375715758e-01,2.24817e-08,9.99999e-01,9.99993e-01,2.24818e-08,9.99999e-01
4.397594337e-01,3.18330e-08,9.99999e-01,9.99945e-01,3.18348e-08,9.99999e-01
4.419582309e-01,4.47578e-08,9.99999e-01,9.99724e-01,4.47701e-08,9.99999e-01
4.441680220e-01,6.25255e-08,9.99999e-01,9.99787e-01,6.25387e-08,9.99999e-01
4.463888621e-01,8.67654e-08,9.99999e-01,9.99778e-01,8.67847e-08,9.99999e-01
4.486208064e-01,1.19637e-07,9.99999e-01,9.99862e-01,1.19654e-07,9.99999e-01
4.508639105e-01,1.63918e-07,9.99999e-01,9.99935e-01,1.63928e-07,9.99999e-01
4.531182300e-01,2.23188e-07,9.99999e-01,9.99974e-01,2.23194e-07,9.99999e-01
4.553838212e-01,3.02033e-07,9.99999e-01,9.99982e-01,3.02038e-07,9.99999e-01
4.576607403e-01,4.06297e-07,9.99999e-01,9.99991e-01,4.06300e-07,9.99999e-01
4.599490440e-01,5.43357e-07,9.99999e-01,9.99993e-01,5.43360e-07,9.99999e-01
4.622487892e-01,7.22495e-07,9.99999e-01,9.99998e-01,7.22496e-07,9.99999e-01
4.645600332e-01,9.55293e-07,9.99999e-01,9.99995e-01,9.55297e-07,9.99999e-01
4.668828333e-01,1.25608e-06,9.99999e-01,9.99934e-01,1.25616e-06,9.99999e-01
4.692172475e-01,1.64265e-06,9.99999e-01,9.99860e-01,1.64287e-06,9.99999e-01
4.715633337e-01,2.13708e-06,9.99999e-01,9.99908e-01,2.13727e-06,9.99999e-01
4.739211504e-01,2.76581e-06,9.99999e-01,9.99912e-01,2.76605e-06,9.99999e-01
4.762907561e-01,3.56145e-06,9.99999e-01,9.99954e-01,3.56161e-06,9.99999e-01
4.786722099e-01,4.56307e-06,9.99999e-01,9.99981e-01,4.56315e-06,9.99999e-01
4.810655710e-01,5.81775e-06,9.99999e-01,9.99993e-01,5.81779e-06,9.99999e-01
4.834708988e-01,7.38148e-06,9.99999e-01,9.99945e-01,7.38188e-06,9.99999e-01
4.858882533e-01,9.32160e-06,9.99999e-01,9.99901e-01,9.32252e-06,9.99999e-01
4.883176946e-01,1.17182e-05,9.99999e-01,9.99917e-01,1.17192e-05,9.99999e-01
4.907592831e-01,1.46645e-05,9.99999e-01,9.99925e-01,1.46656e-05,9.99999e-01
4.932130795e-01,1.82706e-05,9.99999e-01,9.99946e-01,1.82716e-05,9.99999e-01
4.956791449e-01,2.26650e-05,9.99999e-01,9.99971e-01,2.26656e-05,9.99999e-01
4.981575406e-01,2.79931e-05,9.99999e-01,9.99859e-01,2.79970e-05,9.99999e-01
5.006483283e-01,3.44258e-05,9.99999e-01,9.99635e-01,3.44383e-05,9.99999e-01
5.031515699e-01,4.21113e-05,9.99999e-01,9.98163e-01,4.21887e-05,9.99999e-01
5.056673278e-01,5.14268e-05,9.99999e-01,9.99032e-01,5.14766e-05,9.99999e-01
5.081956644e-01,6.24864e-05,9.99999e-01,9.98779e-01,6.25628e-05,9.99999e-01
5.107366428e-01,7.56818e-05,9.99999e-01,9.99175e-01,7.57442e-05,9.99999e-01
5.132903260e-01,9.13141e-05,9.99999e-01,9.99529e-01,9.13571e-05,9.99999e-01
5.158567776e-01,1.09759e-04,9.99999e-01,9.99801e-01,1.09781e-04,9.99999e-01
5.184360615e-01,1.31432e-04,9.99999e-01,9.99920e-01,1.31443e-04,9.99999e-01
5.210282418e-01,1.56815e-04,9.99999e-01,9.99969e-01,1.56820e-04,9.99999e-01
5.236333830e-01,1.86423e-04,9.99999e-01,9.99879e-01,1.86445e-04,9.99999e-01
5.262515499e-01,2.20895e-04,9.99999e-01,9.99924e-01,2.20911e-04,9.99999e-01
5.288828077e-01,2.60855e-04,9.99999e-01,9.99930e-01,2.60872e-04,9.99999e-01
5.315272217e-01,3.07034e-04,9.99999e-01,9.99939e-01,3.07053e-04,9.99999e-01
5.341848578e-01,3.60232e-04,9.99999e-01,9.99959e-01,3.60246e-04,9.99999e-01
5.368557821e-01,4.21264e-04,9.99999e-01,9.99859e-01,4.21322e-04,9.99999e-01
5.395400610e-01,4.90984e-04,9.99999e-01,9.99493e-01,4.91232e-04,9.99999e-01
5.422377613e-01,5.70638e-04,9.99999e-01,9.99351e-01,5.71008e-04,9.99999e-01
5.449489501e-01,6.61368e-04,9.99999e-01,9.99394e-01,6.61769e-04,9.99999e-01
5.476736949e-01,7.64317e-04,9.99999e-01,9.99465e-01,7.64725e-04,9.99999e-01
5.504120634e-01,8.80837e-04,9.99999e-01,9.99612e-01,8.81178e-04,9.99999e-01
5.531641237e-01,1.01233e-03,9.99999e-01,9.99804e-01,1.01253e-03,9.99999e-01
5.559299443e-01,1.16016e-03,9.99999e-01,9.99905e-01,1.16026e-03,9.99999e-01
5.587095940e-01,1.32591e-03,9.99999e-01,9.99940e-01,1.32599e-03,9.99999e-01
5.615031420e-01,1.51129e-03,9.99999e-01,9.99933e-01,1.51139e-03,9.99999e-01
5.643106577e-01,1.71814e-03,9.99999e-01,9.99924e-01,1.71827e-03,9.99999e-01
5.671322110e-01,1.94673e-03,9.99999e-01,9.99082e-01,1.94852e-03,9.99999e-01
5.699678720e-01,2.20203e-03,9.99999e-01,9.99039e-01,2.20414e-03,9.99999e-01
5.728177114e-01,2.48473e-03,9.99999e-01,9.98993e-01,2.48724e-03,9.99999e-01
5.756818000e-01,2.79742e-03,9.99999e-01,9.99077e-01,2.80000e-03,9.99999e-01
5.785602090e-01,3.14220e-03,9.99999e-01,9.99196e-01,3.14473e-03,9.99999e-01
5.814530100e-01,3.52096e-03,9.99999e-01,9.99192e-01,3.52381e-03,9.99999e-01
5.843602750e-01,3.93591e-03,9.99999e-01,9.99033e-01,3.93971e-03,9.99999e-01
5.872820764e-01,4.35855e-03,9.99999e-01,9.91702e-01,4.39501e-03,9.99999e-01
5.902184868e-01,4.84341e-03,9.99999e-01,9.89996e-01,4.89235e-03,9.99999e-01
5.931695792e-01,5.39595e-03,9.99999e-01,9.92915e-01,5.43444e-03,9.99999e-01
5.961354271e-01,5.97737e-03,9.99999e-01,9.92243e-01,6.02409e-03,9.99999e-01
5.991161043e-01,6.62643e-03,9.99999e-01,9.94340e-01,6.66414e-03,9.99999e-01
6.021116848e-01,7.33387e-03,9.99999e-01,9.96787e-01,7.35750e-03,9.99999e-01
6.051222432e-01,8.09396e-03,9.99999e-01,9.98373e-01,8.10714e-03,9.99999e-01
6.081478544e-01,8.90980e-03,9.99999e-01,9.99297e-01,8.91606e-03,9.99999e-01
6.111885937e-01,9.78438e-03,9.99999e-01,9.99703e-01,9.78728e-03,9.99999e-01
6.142445367e-01,1.07224e-02,9.99999e-01,9.99866e-01,1.07239e-02,9.99999e-01
6.173157594e-01,1.17280e-02,9.99999e-01,9.99926e-01,1.17289e-02,9.99999e-01
6.204023382e-01,1.28046e-02,9.99999e-01,9.99937e-01,1.28054e-02,9.99999e-01
6.235043498e-01,1.39527e-02,9.99999e-01,9.99724e-01,1.39565e-02,9.99999e-01
6.266218716e-01,1.51633e-02,9.99999e-01,9.98553e-01,1.51853e-02,9.99999e-01
6.297549810e-01,1.64859e-02,9.99999e-01,9.99469e-01,1.64947e-02,9.99999e-01
6.329037559e-01,1.78690e-02,9.99999e-01,9.98953e-01,1.78878e-02,9.99999e-01
6.360682746e-01,1.93501e-02,9.99999e-01,9.99106e-01,1.93674e-02,9.99999e-01
6.392486160e-01,2.09124e-02,9.99999e-01,9.98843e-01,2.09366e-02,9.99999e-01
6.424448591e-01,2.25630e-02,9.99999e-01,9.98444e-01,2.25982e-02,9.99999e-01
6.456570834e-01,2.41795e-02,9.99999e-01,9.92800e-01,2.43548e-02,9.99999e-01
6.488853688e-01,2.60718e-02,9.99999e-01,9.94757e-01,2.62092e-02,9.99999e-01
6.521297956e-01,2.80134e-02,9.99999e-01,9.94656e-01,2.81639e-02,9.99999e-01
6.553904446e-01,3.00602e-02,9.99999e-01,9.94665e-01,3.02214e-02,9.99999e-01
6.586673968e-01,3.22365e-02,9.99999e-01,9.95441e-01,3.23842e-02,9.99999e-01
6.619607338e-01,3.45662e-02,9.99999e-01,9.97457e-01,3.46543e-02,9.99999e-01
6.652705375e-01,3.69775e-02,9.99999e-01,9.98473e-01,3.70340e-02,9.99999e-01
6.685968902e-01,3.94996e-02,9.99999e-01,9.99350e-01,3.95252e-02,9.99999e-01
6.719398746e-01,4.21160e-02,9.99999e-01,9.99671e-01,4.21298e-02,9.99999e-01
6.752995740e-01,4.48415e-02,9.99999e-01,9.99821e-01,4.48495e-02,9.99999e-01
6.786760719e-01,4.76734e-02,9.99999e-01,9.99741e-01,4.76857e-02,9.99999e-01
6.820694522e-01,5.06176e-02,9.99999e-01,9.99558e-01,5.06400e-02,9.99999e-01
6.854797995e-01,5.36829e-02,9.99999e-01,9.99430e-01,5.37134e-02,9.99999e-01
6.889071985e-01,5.68281e-02,9.99999e-01,9.98610e-01,5.69072e-02,9.99999e-01
6.923517345e-01,5.88768e-02,9.99999e-01,9.77662e-01,6.02220e-02,9.99999e-01
6.958134932e-01,6.29242e-02,9.99999e-01,9.88461e-01,6.36588e-02,9.99999e-01
6.992925606e-01,6.64720e-02,9.99999e-01,9.88902e-01,6.72179e-02,9.99999e-01
7.027890234e-01,6.99336e-02,9.99999e-01,9.86371e-01,7.08998e-02,9.99999e-01
7.063029686e-01,7.38472e-02,9.99999e-01,9.88521e-01,7.47047e-02,9.99999e-01
7.098344834e-01,7.77662e-02,9.99999e-01,9.88983e-01,7.86325e-02,9.99999e-01
7.133836558e-01,8.14642e-02,9.99999e-01,9.85259e-01,8.26831e-02,9.99998e-01
7.169505741e-01,7.71603e-02,9.99999e-01,8.88370e-01,8.68561e-02,9.99998e-01
7.205353270e-01,8.60607e-02,9.99999e-01,9.44156e-01,9.11510e-02,9.99997e-01
7.241380036e-01,8.87773e-02,9.99999e-01,9.28953e-01,9.55672e-02,9.99997e-01
7.277586936e-01,9.36676e-02,9.99999e-01,9.35705e-01,1.00104e-01,9.99998e-01
7.313974871e-01,9.76234e-02,9.99999e-01,9.31880e-01,1.04760e-01,9.99998e-01
7.350544745e-01,1.05386e-01,9.99999e-01,9.62131e-01,1.09534e-01,9.99998e-01
7.387297469e-01,1.11219e-01,9.99999e-01,9.71982e-01,1.14424e-01,9.99999e-01
7.424233956e-01,1.17783e-01,9.99999e-01,9.86206e-01,1.19431e-01,9.99999e-01
7.461355126e-01,1.23506e-01,9.99999e-01,9.91611e-01,1.24550e-01,9.99999e-01
7.498661902e-01,1.29275e-01,9.99999e-01,9.96092e-01,1.29782e-01,9.99999e-01
7.536155211e-01,1.34864e-01,9.99999e-01,9.98078e-01,1.35123e-01,9.99999e-01
7.573835987e-01,1.40433e-01,9.99999e-01,9.99010e-01,1.40572e-01,9.99999e-01
7.611705167e-01,1.46037e-01,9.99999e-01,9.99384e-01,1.46127e-01,9.99999e-01
7.649763693e-01,1.51727e-01,9.99999e-01,9.99614e-01,1.51785e-01,9.99999e-01
7.688012511e-01,1.57502e-01,9.99999e-01,9.99730e-01,1.57544e-01,9.99999e-01
7.726452574e-01,1.63365e-01,9.99999e-01,9.99778e-01,1.63401e-01,9.99999e-01
7.765084837e-01,1.69301e-01,9.99999e-01,9.99684e-01,1.69354e-01,9.99999e-01
7.803910261e-01,1.62389e-01,9.27000e-01,9.98635e-01,1.75400e-01,9.99999e-01
7.842929812e-01,1.27069e-01,7.02976e-01,9.95243e-01,1.81535e-01,9.99999e-01
7.882144461e-01,1.27883e-01,6.87236e-01,9.90266e-01,1.87758e-01,9.99999e-01
7.921555184e-01,1.53846e-01,7.96780e-01,9.94667e-01,1.94065e-01,9.99999e-01
7.961162960e-01,1.70480e-01,8.58430e-01,9.90535e-01,2.00453e-01,9.99999e-01
8.000968774e-01,1.88392e-01,9.20424e-01,9.89104e-01,2.06918e-01,9.99999e-01
8.040973618e-01,2.02274e-01,9.58003e-01,9.89094e-01,2.13459e-01,9.99999e-01
8.081178486e-01,2.10502e-01,9.80440e-01,9.75521e-01,2.20070e-01,9.99998e-01
8.121584379e-01,2.03372e-01,9.93952e-01,9.02227e-01,2.26750e-01,9.99998e-01
8.162192301e-01,2.06548e-01,9.98661e-01,8.85730e-01,2.33495e-01,9.99997e-01
8.203003262e-01,2.26222e-01,9.99980e-01,9.41425e-01,2.40301e-01,9.99997e-01
8.244018279e-01,2.27509e-01,9.99999e-01,9.20478e-01,2.47165e-01,9.99997e-01
8.285238370e-01,2.36234e-01,9.99999e-01,9.29751e-01,2.54084e-01,9.99998e-01
8.326664562e-01,2.42578e-01,9.99999e-01,9.29228e-01,2.61054e-01,9.99998e-01
8.368297885e-01,2.54357e-01,9.99999e-01,9.48841e-01,2.68072e-01,9.99998e-01
8.410139374e-01,2.66680e-01,9.99999e-01,9.69274e-01,2.75134e-01,9.99999e-01
8.452190071e-01,2.77953e-01,9.99999e-01,9.84820e-01,2.82237e-01,9.99999e-01
8.494451021e-01,2.86817e-01,9.99999e-01,9.91147e-01,2.89378e-01,9.99999e-01
8.536923276e-01,2.95002e-01,9.99999e-01,9.94766e-01,2.96554e-01,9.99999e-01
8.579607893e-01,3.02779e-01,9.99999e-01,9.96769e-01,3.03760e-01,9.99999e-01
8.622505932e-01,3.10356e-01,9.99999e-01,9.97948e-01,3.10994e-01,9.99999e-01
8.665618462e-01,2.79692e-01,8.79887e-01,9.98728e-01,3.18252e-01,9.99999e-01
8.708946554e-01,1.35366e-01,4.16394e-01,9.98542e-01,3.25532e-01,9.99999e-01
8.752491287e-01,1.61445e-01,4.85961e-01,9.98051e-01,3.32829e-01,9.99999e-01
8.796253743e-01,2.26582e-01,6.67831e-01,9.97297e-01,3.40140e-01,9.99999e-01
8.840235012e-01,2.80229e-01,8.08907e-01,9.96915e-01,3.47463e-01,9.99999e-01
8.884436187e-01,3.22678e-01,9.19625e-01,9.88706e-01,3.54795e-01,9.99998e-01
8.928858368e-01,3.11180e-01,9.66545e-01,8.88414e-01,3.62131e-01,9.99997e-01
8.973502660e-01,2.97833e-01,9.91796e-01,8.12459e-01,3.69470e-01,9.99996e-01
9.018370173e-01,3.38773e-01,9.99093e-01,8.99817e-01,3.76809e-01,9.99996e-01
9.063462024e-01,3.42198e-01,9.76833e-01,9.10373e-01,3.84144e-01,9.99996e-01
9.108779334e-01,3.21106e-01,9.47723e-01,8.64188e-01,3.91472e-01,9.99995e-01
9.154323231e-01,3.33802e-01,9.87544e-01,8.47067e-01,3.98792e-01,9.99995e-01
9.200094847e-01,3.05623e-01,8.44661e-01,8.78478e-01,4.06099e-01,9.99994e-01
9.246095321e-01,2.62912e-01,7.69605e-01,8.18612e-01,4.13393e-01,9.99990e-01
9.292325798e-01,9.91788e-02,8.15627e-01,2.78056e-01,4.20669e-01,9.99980e-01
9.338787427e-01,7.07263e-02,8.20703e-01,1.94286e-01,4.27926e-01,9.99974e-01
9.385481364e-01,1.96434e-01,8.64103e-01,5.13771e-01,4.35161e-01,9.99973e-01
9.432408771e-01,1.65273e-01,9.14283e-01,4.04736e-01,4.42372e-01,9.99970e-01
9.479570815e-01,1.24682e-01,9.54982e-01,2.89037e-01,4.49556e-01,9.99974e-01
9.526968669e-01,1.72788e-01,9.78076e-01,3.85444e-01,4.56712e-01,9.99980e-01
9.574603512e-01,1.86385e-01,9.90565e-01,4.05122e-01,4.63837e-01,9.99985e-01
9.622476530e-01,2.23365e-01,9.97049e-01,4.75530e-01,4.70929e-01,9.99990e-01
9.670588912e-01,3.10159e-01,9.99116e-01,6.49398e-01,4.77986e-01,9.99993e-01
9.718941857e-01,3.68486e-01,9.99937e-01,7.59797e-01,4.85007e-01,9.99995e-01
9.767536566e-01,3.91556e-01,9.99999e-01,7.95865e-01,4.91988e-01,9.99997e-01
9.816374249e-01,4.21138e-01,9.99999e-01,8.44083e-01,4.98930e-01,9.99997e-01
9.865456120e-01,4.54918e-01,9.99999e-01,8.99350e-01,5.05829e-01,9.99998e-01
9.914783401e-01,4.80095e-01,9.99999e-01,9.36431e-01,5.12685e-01,9.99999e-01
9.964357318e-01,5.01245e-01,9.99999e-01,9.64868e-01,5.19496e-01,9.99999e-01
1.001417910e+00,5.15099e-01,9.99999e-01,9.78792e-01,5.26259e-01,9.99999e-01
1.006425000e+00,5.26495e-01,9.99999e-01,9.87841e-01,5.32975e-01,9.99999e-01
1.011457125e+00,5.35566e-01,9.99999e-01,9.92447e-01,5.39641e-01,9.99999e-01
1.016514411e+00,5.43451e-01,9.99999e-01,9.94863e-01,5.46256e-01,9.99999e-01
1.021596983e+00,5.50481e-01,9.99864e-01,9.95903e-01,5.52820e-01,9.99999e-01
1.026704968e+00,5.52422e-01,9.90805e-01,9.96803e-01,5.59330e-01,9.99999e-01
1.031838492e+00,5.17753e-01,9.17126e-01,9.97678e-01,5.65786e-01,9.99999e-01
1.036997685e+00,3.75432e-02,6.56824e-02,9.98618e-01,5.72187e-01,9.99999e-01
1.042182673e+00,5.67490e-03,9.82204e-03,9.98350e-01,5.78532e-01,9.99999e-01
1.047393587e+00,1.21315e-02,2.07823e-02,9.97814e-01,5.84820e-01,9.99999e-01
1.052630555e+00,7.42659e-06,1.25896e-05,9.97000e-01,5.91049e-01,9.99999e-01
1.057893707e+00,2.75373e-05,4.62366e-05,9.94992e-01,5.97221e-01,9.99999e-01
1.063183176e+00,3.55930e-04,5.92896e-04,9.91777e-01,6.03332e-01,9.99999e-01
1.068499092e+00,2.48915e-03,4.12504e-03,9.86278e-01,6.09384e-01,9.99999e-01
1.073841587e+00,1.81511e-02,2.98579e-02,9.83952e-01,6.15375e-01,9.99999e-01
1.079210795e+00,6.67892e-02,1.09337e-01,9.79508e-01,6.21305e-01,9.99998e-01
1.084606849e+00,1.75644e-01,2.88085e-01,9.69128e-01,6.27174e-01,9.99998e-01
1.090029883e+00,3.16538e-01,5.21675e-01,9.55860e-01,6.32980e-01,9.99997e-01
1.095480033e+00,4.10960e-01,7.25223e-01,8.84428e-01,6.38724e-01,9.99996e-01
1.100957433e+00,4.06167e-01,8.56081e-01,7.33442e-01,6.44404e-01,9.99994e-01
1.106462220e+00,2.83938e-01,9.37744e-01,4.63479e-01,6.50022e-01,9.99987e-01
1.111994531e+00,1.31946e-01,9.76436e-01,2.05406e-01,6.55576e-01,9.99976e-01
1.117554504e+00,5.40131e-02,9.94213e-01,8.20189e-02,6.61067e-01,9.99966e-01
1.123142276e+00,1.17049e-01,9.99620e-01,1.75639e-01,6.66494e-01,9.99960e-01
1.128757988e+00,2.05695e-01,9.99999e-01,3.06172e-01,6.71856e-01,9.99957e-01
1.134401778e+00,9.53487e-02,9.99999e-01,1.40814e-01,6.77155e-01,9.99952e-01
1.140073787e+00,3.28601e-01,9.99999e-01,4.81562e-01,6.82390e-01,9.99961e-01
1.145774156e+00,1.60477e-01,9.99999e-01,2.33409e-01,6.87560e-01,9.99967e-01
1.151503026e+00,1.38942e-01,9.99999e-01,2.00595e-01,6.92667e-01,9.99971e-01
1.157260541e+00,1.70203e-01,9.99999e-01,2.43950e-01,6.97709e-01,9.99978e-01
1.163046844e+00,2.45962e-01,9.99999e-01,3.50035e-01,7.02687e-01,9.99986e-01
1.168862078e+00,3.36189e-01,9.99999e-01,4.75113e-01,7.07602e-01,9.99992e-01
1.174706389e+00,4.49655e-01,9.99999e-01,6.31138e-01,7.12453e-01,9.99996e-01
1.180579921e+00,5.41396e-01,9.99999e-01,7.54833e-01,7.17240e-01,9.99997e-01
1.186482820e+00,6.15374e-01,9.99980e-01,8.52377e-01,7.21964e-01,9.99997e-01
1.192415234e+00,6.41337e-01,9.68216e-01,9.10815e-01,7.26624e-01,9.99997e-01
1.198377311e+00,3.62737e-01,5.29704e-01,9.24243e-01,7.31222e-01,9.99998e-01
1.204369197e+00,3.89204e-24,5.52269e-24,9.28330e-01,7.35758e-01,9.99998e-01
1.210391043e+00,3.21515e-96,4.51889e-96,9.31282e-01,7.40231e-01,9.99998e-01
1.216442998e+00,2.49937e-83,3.48482e-83,9.41302e-01,7.44642e-01,9.99998e-01
1.222525213e+00,4.43738e-82,6.07027e-82,9.53933e-01,7.48991e-01,9.99999e-01
1.228637839e+00,2.11342e-63,2.86838e-63,9.67765e-01,7.53280e-01,9.99999e-01
1.234781029e+00,1.22614e-39,1.63576e-39,9.75982e-01,7.57507e-01,9.99999e-01
1.240954934e+00,2.18055e-26,2.89027e-26,9.84738e-01,7.61674e-01,9.99999e-01
1.247159708e+00,5.40461e-13,7.10767e-13,9.88100e-01,7.65781e-01,9.99999e-01
1.253395507e+00,8.74514e-09,1.14455e-08,9.89420e-01,7.69828e-01,9.99999e-01
1.259662485e+00,2.33190e-05,3.03581e-05,9.89936e-01,7.73816e-01,9.99999e-01
1.265960797e+00,2.33381e-03,3.03299e-03,9.83985e-01,7.77745e-01,9.99999e-01
1.272290601e+00,5.38076e-02,7.03071e-02,9.74917e-01,7.81616e-01,9.99998e-01
1.278652054e+00,4.64439e-02,6.11957e-02,9.50811e-01,7.85429e-01,9.99998e-01
1.285045314e+00,1.17722e-04,1.54793e-04,9.12658e-01,7.89185e-01,9.99997e-01
1.291470541e+00,1.17485e-11,1.62207e-11,8.52879e-01,7.92885e-01,9.99996e-01
1.297927893e+00,1.34484e-04,1.85680e-04,7.97819e-01,7.96528e-01,9.99994e-01
1.304417533e+00,4.90674e-03,7.57930e-03,7.67202e-01,8.00115e-01,9.99989e-01
1.310939621e+00,8.97321e-04,1.32495e-03,7.15498e-01,8.03647e-01,9.99982e-01
1.317494319e+00,1.63986e-33,2.43680e-33,7.20279e-01,8.07124e-01,9.99970e-01
1.324081790e+00,6.66156e-22,1.02696e-21,6.14561e-01,8.10548e-01,9.99952e-01
1.330702199e+00,2.87780e-13,7.08518e-13,2.05209e-01,8.13918e-01,9.99920e-01
1.337355710e+00,2.35452e-13,6.56962e-12,1.15111e-02,8.17235e-01,9.99848e-01
1.344042489e+00,2.43522e-14,3.02576e-12,2.99925e-04,8.20499e-01,9.99675e-01
1.350762701e+00,7.49638e-22,3.70265e-13,2.92125e-10,8.23712e-01,9.99481e-01
1.357516515e+00,3.36387e-21,3.27864e-08,7.20504e-15,8.26873e-01,9.99357e-01
1.364304097e+00,4.76580e-14,5.57027e-06,2.04800e-09,8.29984e-01,9.99311e-01
1.371125618e+00,1.46145e-08,2.07768e-03,3.10745e-06,8.33045e-01,9.99306e-01
1.377981246e+00,9.64851e-08,5.00223e-03,1.01597e-05,8.36056e-01,9.99254e-01
1.384871152e+00,2.14943e-09,4.55867e-02,3.28072e-08,8.39018e-01,9.99275e-01
1.391795508e+00,1.95693e-10,5.80280e-02,2.00657e-09,8.41932e-01,9.99385e-01
1.398754485e+00,2.42710e-08,1.67854e-01,1.36932e-07,8.44798e-01,9.99472e-01
1.405748258e+00,4.13166e-08,2.71939e-01,1.41333e-07,8.47617e-01,9.99526e-01
1.412776999e+00,7.14462e-08,4.37198e-01,1.50116e-07,8.50390e-01,9.99619e-01
1.419840884e+00,1.48316e-07,3.97408e-01,3.09555e-07,8.53116e-01,9.99715e-01
1.426940089e+00,5.69493e-06,1.74695e-02,1.87784e-05,8.55797e-01,9.99823e-01
1.434074789e+00,0.00000e+00,0.00000e+00,1.51865e-04,8.58434e-01,9.99890e-01
1.441245163e+00,0.00000e+00,0.00000e+00,7.69120e-04,8.61026e-01,9.99914e-01
1.448451389e+00,0.00000e+00,0.00000e+00,7.10952e-03,8.63574e-01,9.99928e-01
1.455693646e+00,0.00000e+00,0.00000e+00,3.40924e-02,8.66080e-01,9.99941e-01
1.462972114e+00,0.00000e+00,0.00000e+00,4.84008e-02,8.68543e-01,9.99949e-01
1.470286975e+00,4.40521e-160,4.24063e-159,3.02729e-02,8.70964e-01,9.99954e-01
