#,Wave/freq,Total,CO2,H2O,Rayleigh,CIA
4.000000000e-01,1.61764e-18,9.99999e-01,9.99919e-01,1.61777e-18,9.99999e-01
4.020000000e-01,3.63644e-18,9.99999e-01,9.99949e-01,3.63662e-18,9.99999e-01
4.040100000e-01,8.03819e-18,9.99999e-01,9.99978e-01,8.03836e-18,9.99999e-01
4.060300500e-01,1.74916e-17,9.99999e-01,9.99994e-01,1.74917e-17,9.99999e-01
4.080602003e-01,3.74824e-17,9.99999e-01,9.99997e-01,3.74825e-17,9.99999e-01
4.101005013e-01,7.91199e-17,9.99999e-01,9.99999e-01,7.91200e-17,9.99999e-01
4.121510038e-01,1.64563e-16,9.99999e-01,9.99996e-01,1.64564e-16,9.99999e-01
4.142117588e-01,3.37359e-16,9.99999e-01,9.99977e-01,3.37366e-16,9.99999e-01
4.162828176e-01,6.81815e-16,9.99999e-01,9.99900e-01,6.81883e-16,9.99999e-01
4.183642317e-01,1.35911e-15,9.99999e-01,9.99940e-01,1.35919e-15,9.99999e-01
4.204560528e-01,2.67252e-15,9.99999e-01,9.99963e-01,2.67261e-15,9.99999e-01
4.225583331e-01,5.18542e-15,9.99999e-01,9.99985e-01,5.18549e-15,9.99999e-01
4.246711247e-01,9.93010e-15,9.99999e-01,9.99988e-01,9.93021e-15,9.99999e-01
4.267944804e-01,1.87735e-14,9.99999e-01,9.99983e-01,1.87738e-14,9.99999e-01
4.289284528e-01,3.50493e-14,9.99999e-01,9.99987e-01,3.50497e-14,9.99999e-01
4.310730950e-01,6.46336e-14,9.99999e-01,9.99994e-01,6.46339e-14,9.99999e-01
4.332284605e-01,1.17757e-13,9.99999e-01,9.99998e-01,1.17757e-13,9.99999e-01
4.353946028e-01,2.12015e-13,9.99999e-01,9.99998e-01,2.12015e-13,9.99999e-01
4.375715758e-01,3.77310e-13,9.99999e-01,9.99989e-01,3.77313e-13,9.99999e-01
4.397594337e-01,6.63828e-13,9.99999e-01,9.99912e-01,6.63885e-13,9.99999e-01
4.419582309e-01,1.15464e-12,9.99999e-01,9.99557e-01,1.15515e-12,9.99999e-01
4.441680220e-01,1.98737e-12,9.99999e-01,9.99653e-01,1.98806e-12,9.99999e-01
4.463888621e-01,3.38383e-12,9.99999e-01,9.99639e-01,3.38504e-12,9.99999e-01
4.486208064e-01,5.70212e-12,9.99999e-01,9.99775e-01,5.70340e-12,9.99999e-01
4.508639105e-01,9.51005e-12,9.99999e-01,9.99894e-01,9.51104e-12,9.99999e-01
4.531182300e-01,1.57006e-11,9.99999e-01,9.99958e-01,1.57013e-11,9.99999e-01
4.553838212e-01,2.56643e-11,9.99999e-01,9.99971e-01,2.56651e-11,9.99999e-01
4.576607403e-01,4.15459e-11,9.99999e-01,9.99986e-01,4.15465e-11,9.99999e-01
4.599490440e-01,6.66177e-11,9.99999e-01,9.99990e-01,6.66183e-11,9.99999e-01
4.622487892e-01,1.05828e-10,9.99999e-01,9.99997e-01,1.05829e-10,9.99999e-01
4.645600332e-01,1.66586e-10,9.99999e-01,9.99993e-01,1.66587e-10,9.99999e-01
4.668828333e-01,2.59862e-10,9.99999e-01,9.99894e-01,2.59889e-10,9.99999e-01
4.692172475e-01,4.01811e-10,9.99999e-01,9.99773e-01,4.01902e-10,9.99999e-01
4.715633337e-01,6.16096e-10,9.99999e-01,9.99852e-01,6.16187e-10,9.99999e-01
4.739211504e-01,9.36649e-10,9.99999e-01,9.99858e-01,9.36781e-10,9.99999e-01
4.762907561e-01,1.41234e-09,9.99999e-01,9.99926e-01,1.41244e-09,9.99999e-01
4.786722099e-01,2.11236e-09,9.99999e-01,9.99969e-01,2.11242e-09,9.99999e-01
4.810655710e-01,3.13425e-09,9.99999e-01,9.99990e-01,3.13428e-09,9.99999e-01
4.834708988e-01,4.61395e-09,9.99999e-01,9.99913e-01,4.61435e-09,9.99999e-01
4.858882533e-01,6.74055e-09,9.99999e-01,9.99839e-01,6.74163e-09,9.99999e-01
4.883176946e-01,9.77482e-09,9.99999e-01,9.99866e-01,9.77613e-09,9.99999e-01
4.907592831e-01,1.40711e-08,9.99999e-01,9.99878e-01,1.40728e-08,9.99999e-01
4.932130795e-01,2.01109e-08,9.99999e-01,9.99913e-01,2.01127e-08,9.99999e-01
4.956791449e-01,2.85414e-08,9.99999e-01,9.99954e-01,2.85427e-08,9.99999e-01
4.981575406e-01,4.02179e-08,9.99999e-01,9.99772e-01,4.02270e-08,9.99999e-01
5.006483283e-01,5.62785e-08,9.99999e-01,9.99412e-01,5.63115e-08,9.99999e-01
5.031515699e-01,7.80722e-08,9.99999e-01,9.97024e-01,7.83052e-08,9.99999e-01
5.056673278e-01,1.08012e-07,9.99999e-01,9.98427e-01,1.08182e-07,9.99999e-01
5.081956644e-01,1.48213e-07,9.99999e-01,9.98016e-01,1.48508e-07,9.99999e-01
5.107366428e-01,2.02321e-07,9.99999e-01,9.98659e-01,2.02593e-07,9.99999e-01
5.132903260e-01,2.74474e-07,9.99999e-01,9.99233e-01,2.74685e-07,9.99999e-01
5.158567776e-01,3.70078e-07,9.99999e-01,9.99675e-01,3.70198e-07,9.99999e-01
5.184360615e-01,4.95926e-07,9.99999e-01,9.99870e-01,4.95990e-07,9.99999e-01
5.210282418e-01,6.60666e-07,9.99999e-01,9.99951e-01,6.60698e-07,9.99999e-01
5.236333830e-01,8.74961e-07,9.99999e-01,9.99805e-01,8.75131e-07,9.99999e-01
5.262515499e-01,1.15260e-06,9.99999e-01,9.99878e-01,1.15274e-06,9.99999e-01
5.288828077e-01,1.51001e-06,9.99999e-01,9.99888e-01,1.51018e-06,9.99999e-01
5.315272217e-01,1.96772e-06,9.99999e-01,9.99901e-01,1.96792e-06,9.99999e-01
5.341848578e-01,2.55086e-06,9.99999e-01,9.99935e-01,2.55102e-06,9.99999e-01
5.368557821e-01,3.28925e-06,9.99999e-01,9.99773e-01,3.28999e-06,9.99999e-01
5.395400610e-01,4.21833e-06,9.99999e-01,9.99185e-01,4.22177e-06,9.99999e-01
5.422377613e-01,5.38512e-06,9.99999e-01,9.98944e-01,5.39081e-06,9.99999e-01
5.449489501e-01,6.84370e-06,9.99999e-01,9.99019e-01,6.85041e-06,9.99999e-01
5.476736949e-01,8.65658e-06,9.99999e-01,9.99130e-01,8.66411e-06,9.99999e-01
5.504120634e-01,1.09004e-05,9.99999e-01,9.99368e-01,1.09073e-05,9.99999e-01
5.531641237e-01,1.36646e-05,9.99999e-01,9.99682e-01,1.36689e-05,9.99999e-01
5.559299443e-01,1.70510e-05,9.99999e-01,9.99846e-01,1.70536e-05,9.99999e-01
5.587095940e-01,2.11815e-05,9.99999e-01,9.99903e-01,2.11836e-05,9.99999e-01
5.615031420e-01,2.61984e-05,9.99999e-01,9.99892e-01,2.62012e-05,9.99999e-01
5.643106577e-01,3.22678e-05,9.99999e-01,9.99878e-01,3.22717e-05,9.99999e-01
5.671322110e-01,3.95271e-05,9.99999e-01,9.98531e-01,3.95852e-05,9.99999e-01
5.699678720e-01,4.82849e-05,9.99999e-01,9.98430e-01,4.83607e-05,9.99999e-01
5.728177114e-01,5.87525e-05,9.99999e-01,9.98368e-01,5.88484e-05,9.99999e-01
5.756818000e-01,7.12266e-05,9.99999e-01,9.98502e-01,7.13334e-05,9.99999e-01
5.785602090e-01,8.60267e-05,9.99999e-01,9.98694e-01,8.61392e-05,9.99999e-01
5.814530100e-01,1.03495e-04,9.99999e-01,9.98688e-01,1.03631e-04,9.99999e-01
5.843602750e-01,1.24027e-04,9.99999e-01,9.98439e-01,1.24221e-04,9.99999e-01
5.872820764e-01,1.46387e-04,9.99999e-01,9.86641e-01,1.48369e-04,9.99999e-01
5.902184868e-01,1.73728e-04,9.99999e-01,9.83785e-01,1.76591e-04,9.99999e-01
5.931695792e-01,2.07059e-04,9.99999e-01,9.88538e-01,2.09460e-04,9.99999e-01
5.961354271e-01,2.44497e-04,9.99999e-01,9.87427e-01,2.47610e-04,9.99999e-01
5.991161043e-01,2.89062e-04,9.99999e-01,9.90810e-01,2.91743e-04,9.99999e-01
6.021116848e-01,3.40840e-04,9.99999e-01,9.94774e-01,3.42630e-04,9.99999e-01
6.051222432e-01,4.00055e-04,9.99999e-01,9.97352e-01,4.01117e-04,9.99999e-01
6.081478544e-01,4.67594e-04,9.99999e-01,9.98857e-01,4.68128e-04,9.99999e-01
6.111885937e-01,5.44407e-04,9.99999e-01,9.99516e-01,5.44670e-04,9.99999e-01
6.142445367e-01,6.31698e-04,9.99999e-01,9.99783e-01,6.31834e-04,9.99999e-01
6.173157594e-01,7.30714e-04,9.99999e-01,9.99880e-01,7.30801e-04,9.99999e-01
6.204023382e-01,8.42758e-04,9.99999e-01,9.99898e-01,8.42843e-04,9.99999e-01
6.235043498e-01,9.68899e-04,9.99999e-01,9.99557e-01,9.69328e-04,9.99999e-01
6.266218716e-01,1.10911e-03,9.99999e-01,9.97653e-01,1.11172e-03,9.99999e-01
6.297549810e-01,1.27049e-03,9.99999e-01,9.99138e-01,1.27158e-03,9.99999e-01
6.329037559e-01,1.44811e-03,9.99999e-01,9.98297e-01,1.45058e-03,9.99999e-01
6.360682746e-01,1.64808e-03,9.99999e-01,9.98551e-01,1.65047e-03,9.99999e-01
6.392486160e-01,1.86961e-03,9.99999e-01,9.98122e-01,1.87312e-03,9.99999e-01
6.424448591e-01,2.11519e-03,9.99999e-01,9.97491e-01,2.12051e-03,9.99999e-01
6.456570834e-01,2.36693e-03,9.99999e-01,9.88406e-01,2.39469e-03,9.99999e-01
6.488853688e-01,2.67487e-03,9.99999e-01,9.91487e-01,2.69784e-03,9.99999e-01
6.521297956e-01,3.00591e-03,9.99999e-01,9.91326e-01,3.03221e-03,9.99999e-01
6.553904446e-01,3.37081e-03,9.99999e-01,9.91363e-01,3.40017e-03,9.99999e-01
6.586673968e-01,3.77601e-03,9.99999e-01,9.92596e-01,3.80417e-03,9.99999e-01
6.619607338e-01,4.22853e-03,9.99999e-01,9.95711e-01,4.24674e-03,9.99999e-01
6.652705375e-01,4.71875e-03,9.99999e-01,9.97515e-01,4.73051e-03,9.99999e-01
6.685968902e-01,5.25209e-03,9.99999e-01,9.98844e-01,5.25816e-03,9.99999e-01
6.719398746e-01,5.82936e-03,9.99999e-01,9.99464e-01,5.83248e-03,9.99999e-01
6.752995740e-01,6.45442e-03,9.99999e-01,9.99709e-01,6.45629e-03,9.99999e-01
6.786760719e-01,7.12951e-03,9.99999e-01,9.99581e-01,7.13249e-03,9.99999e-01
6.820694522e-01,7.85840e-03,9.99999e-01,9.99283e-01,7.86403e-03,9.99999e-01
6.854797995e-01,8.64590e-03,9.99999e-01,9.99076e-01,8.65389e-03,9.99999e-01
6.889071985e-01,9.48392e-03,9.99999e-01,9.97771e-01,9.50510e-03,9.99999e-01
6.923517345e-01,1.00477e-02,9.99999e-01,9.64203e-01,1.04207e-02,9.99999e-01
6.958134932e-01,1.11892e-02,9.99999e-01,9.81182e-01,1.14038e-02,9.99999e-01
6.992925606e-01,1.22348e-02,9.99999e-01,9.82134e-01,1.24574e-02,9.99999e-01
7.027890234e-01,1.32851e-02,9.99999e-01,9.77952e-01,1.35846e-02,9.99999e-01
7.063029686e-01,1.45137e-02,9.99999e-01,9.81422e-01,1.47885e-02,9.99999e-01
7.098344834e-01,1.57854e-02,9.99999e-01,9.82163e-01,1.60721e-02,9.99999e-01
7.133836558e-01,1.70267e-02,9.99999e-01,9.76394e-01,1.74384e-02,9.99998e-01
7.169505741e-01,1.56292e-02,9.99999e-01,8.27363e-01,1.88904e-02,9.99997e-01
7.205353270e-01,1.86077e-02,9.99999e-01,9.10759e-01,2.04310e-02,9.99997e-01
7.241380036e-01,1.95929e-02,9.99999e-01,8.88045e-01,2.20630e-02,9.99996e-01
7.277586936e-01,2.13728e-02,9.99999e-01,8.98419e-01,2.37893e-02,9.99997e-01
7.313974871e-01,2.28414e-02,9.99999e-01,8.91806e-01,2.56125e-02,9.99997e-01
7.350544745e-01,2.58626e-02,9.99999e-01,9.39254e-01,2.75353e-02,9.99998e-01
7.387297469e-01,2.82251e-02,9.99999e-01,9.54838e-01,2.95601e-02,9.99999e-01
7.424233956e-01,3.09800e-02,9.99999e-01,9.77616e-01,3.16893e-02,9.99999e-01
7.461355126e-01,3.34631e-02,9.99999e-01,9.86375e-01,3.39253e-02,9.99999e-01
7.498661902e-01,3.60392e-02,9.99999e-01,9.93630e-01,3.62702e-02,9.99999e-01
7.536155211e-01,3.86048e-02,9.99999e-01,9.96872e-01,3.87259e-02,9.99999e-01
7.573835987e-01,4.12280e-02,9.99999e-01,9.98388e-01,4.12945e-02,9.99999e-01
7.611705167e-01,4.39336e-02,9.99999e-01,9.98998e-01,4.39776e-02,9.99999e-01
7.649763693e-01,4.67476e-02,9.99999e-01,9.99372e-01,4.67769e-02,9.99999e-01
7.688012511e-01,4.96720e-02,9.99999e-01,9.99562e-01,4.96937e-02,9.99999e-01
7.726452574e-01,5.27105e-02,9.99999e-01,9.99640e-01,5.27294e-02,9.99999e-01
7.765084837e-01,5.58565e-02,9.99999e-01,9.99489e-01,5.58850e-02,9.99999e-01
7.803910261e-01,5.29986e-02,8.97621e-01,9.97797e-01,5.91615e-02,9.99999e-01
7.842929812e-01,3.56809e-02,5.74121e-01,9.92334e-01,6.25597e-02,9.99999e-01
7.882144461e-01,3.63992e-02,5.58595e-01,9.84245e-01,6.60801e-02,9.99999e-01
7.921555184e-01,4.80539e-02,6.94755e-01,9.91327e-01,6.97232e-02,9.99999e-01
7.961162960e-01,5.65083e-02,7.80429e-01,9.84752e-01,7.34892e-02,9.99999e-01
8.000968774e-01,6.64509e-02,8.74022e-01,9.82371e-01,7.73782e-02,9.99999e-01
8.040973618e-01,7.45615e-02,9.32410e-01,9.82375e-01,8.13900e-02,9.99999e-01
8.081178486e-01,7.95926e-02,9.68359e-01,9.60841e-01,8.55244e-02,9.99998e-01
8.121584379e-01,7.53774e-02,9.90109e-01,8.47642e-01,8.97809e-02,9.99997e-01
8.162192301e-01,7.72396e-02,9.97807e-01,8.21991e-01,9.41588e-02,9.99996e-01
8.203003262e-01,8.96806e-02,9.99966e-01,9.09032e-01,9.86574e-02,9.99996e-01
8.244018279e-01,9.04681e-02,9.99999e-01,8.75988e-01,1.03276e-01,9.99996e-01
8.285238370e-01,9.60347e-02,9.99999e-01,8.89108e-01,1.08013e-01,9.99997e-01
8.326664562e-01,1.00237e-01,9.99999e-01,8.88102e-01,1.12867e-01,9.99997e-01
8.368297885e-01,1.08202e-01,9.99999e-01,9.18236e-01,1.17836e-01,9.99998e-01
8.410139374e-01,1.16837e-01,9.99999e-01,9.50507e-01,1.22920e-01,9.99999e-01
8.452190071e-01,1.24964e-01,9.99999e-01,9.75387e-01,1.28117e-01,9.99999e-01
8.494451021e-01,1.31509e-01,9.99999e-01,9.85649e-01,1.33424e-01,9.99999e-01
8.536923276e-01,1.37657e-01,9.99999e-01,9.91486e-01,1.38839e-01,9.99999e-01
8.579607893e-01,1.43603e-01,9.99999e-01,9.94751e-01,1.44361e-01,9.99999e-01
8.622505932e-01,1.49486e-01,9.99999e-01,9.96661e-01,1.49987e-01,9.99999e-01
8.665618462e-01,1.33090e-01,8.56350e-01,9.97934e-01,1.55714e-01,9.99999e-01
8.708946554e-01,4.17848e-02,2.59216e-01,9.97636e-01,1.61540e-01,9.99999e-01
8.752491287e-01,5.34086e-02,3.19856e-01,9.96839e-01,1.67463e-01,9.99999e-01
8.796253743e-01,9.06508e-02,5.24617e-01,9.95628e-01,1.73480e-01,9.99999e-01
8.840235012e-01,1.26860e-01,7.09743e-01,9.95007e-01,1.79587e-01,9.99999e-01
8.884436187e-01,1.59271e-01,8.72403e-01,9.82033e-01,1.85783e-01,9.99998e-01
8.928858368e-01,1.50664e-01,9.46027e-01,8.27674e-01,1.92063e-01,9.99996e-01
8.973502660e-01,1.40433e-01,9.86596e-01,7.16632e-01,1.98426e-01,9.99995e-01
9.018370173e-01,1.72573e-01,9.98513e-01,8.43486e-01,2.04867e-01,9.99994e-01
9.063462024e-01,1.76056e-01,9.63643e-01,8.60604e-01,2.11384e-01,9.99993e-01
9.108779334e-01,1.58681e-01,9.16453e-01,7.91333e-01,2.17974e-01,9.99993e-01
9.154323231e-01,1.68745e-01,9.79679e-01,7.65576e-01,2.24632e-01,9.99992e-01
9.200094847e-01,1.51347e-01,7.80723e-01,8.11841e-01,2.31357e-01,9.99990e-01
9.246095321e-01,1.16478e-01,6.54838e-01,7.31783e-01,2.38144e-01,9.99984e-01
9.292325798e-01,2.80159e-02,7.23584e-01,1.46336e-01,2.44990e-01,9.99968e-01
9.338787427e-01,1.59927e-02,7.27526e-01,8.12570e-02,2.51892e-01,9.99958e-01
9.385481364e-01,7.61135e-02,7.89507e-01,3.59074e-01,2.58846e-01,9.99957e-01
9.432408771e-01,6.02654e-02,8.64261e-01,2.56830e-01,2.65849e-01,9.99952e-01
9.479570815e-01,3.83920e-02,9.27810e-01,1.50035e-01,2.72898e-01,9.99958e-01
9.526968669e-01,6.21938e-02,9.64552e-01,2.28554e-01,2.79989e-01,9.99968e-01
9.574603512e-01,6.91191e-02,9.84664e-01,2.43728e-01,2.87118e-01,9.99976e-01
9.622476530e-01,9.06659e-02,9.95189e-01,3.09295e-01,2.94283e-01,9.99984e-01
9.670588912e-01,1.51848e-01,9.98555e-01,5.04280e-01,3.01480e-01,9.99989e-01
9.718941857e-01,1.98345e-01,9.99897e-01,6.42560e-01,3.08706e-01,9.99993e-01
9.767536566e-01,2.18702e-01,9.99999e-01,6.92192e-01,3.15957e-01,9.99995e-01
9.816374249e-01,2.45634e-01,9.99999e-01,7.59937e-01,3.23230e-01,9.99996e-01
9.865456120e-01,2.78232e-01,9.99999e-01,8.41798e-01,3.30521e-01,9.99998e-01
9.914783401e-01,3.03624e-01,9.99999e-01,8.98750e-01,3.37829e-01,9.99999e-01
9.964357318e-01,3.25649e-01,9.99999e-01,9.43503e-01,3.45148e-01,9.99999e-01
1.001417910e+00,3.40395e-01,9.99999e-01,9.65722e-01,3.52477e-01,9.99999e-01
1.006425000e+00,3.52730e-01,9.99999e-01,9.80313e-01,3.59813e-01,9.99999e-01
1.011457125e+00,3.62648e-01,9.99999e-01,9.87733e-01,3.67151e-01,9.99999e-01
1.016514411e+00,3.71366e-01,9.99999e-01,9.91657e-01,3.74490e-01,9.99999e-01
1.021596983e+00,3.79213e-01,9.99802e-01,9.93348e-01,3.81827e-01,9.99999e-01
1.026704968e+00,3.81500e-01,9.85414e-01,9.94809e-01,3.89157e-01,9.99999e-01
1.031838492e+00,3.51860e-01,8.90618e-01,9.96223e-01,3.96480e-01,9.99999e-01
1.036997685e+00,1.56571e-02,3.88406e-02,9.97756e-01,4.03792e-01,9.99999e-01
1.042182673e+00,4.85088e-04,1.18234e-03,9.97326e-01,4.11090e-01,9.99999e-01
1.047393587e+00,1.40947e-03,3.37875e-03,9.96455e-01,4.18372e-01,9.99999e-01
1.052630555e+00,2.57018e-08,6.05672e-08,9.95139e-01,4.25635e-01,9.99999e-01
1.057893707e+00,9.62081e-08,2.23140e-07,9.91900e-01,4.32877e-01,9.99999e-01
1.063183176e+00,5.86555e-06,1.34263e-05,9.86708e-01,4.40096e-01,9.99999e-01
1.068499092e+00,8.35803e-05,1.89428e-04,9.77842e-01,4.47289e-01,9.99999e-01
1.073841587e+00,1.69808e-03,3.80400e-03,9.74158e-01,4.54454e-01,9.99999e-01
1.079210795e+00,1.38616e-02,3.07992e-02,9.66960e-01,4.61589e-01,9.99998e-01
1.084606849e+00,6.09702e-02,1.35858e-01,9.50480e-01,4.68692e-01,9.99997e-01
1.090029883e+00,1.56116e-01,3.50404e-01,9.29863e-01,4.75760e-01,9.99996e-01
1.095480033e+00,2.37408e-01,5.94645e-01,8.20399e-01,4.82793e-01,9.99994e-01
1.100957433e+00,2.33981e-01,7.77008e-01,6.08829e-01,4.89787e-01,9.99990e-01
1.106462220e+00,1.35787e-01,9.00673e-01,2.99920e-01,4.96741e-01,9.99980e-01
1.111994531e+00,4.16308e-02,9.61897e-01,8.52524e-02,5.03654e-01,9.99961e-01
1.117554504e+00,1.10751e-02,9.90555e-01,2.18066e-02,5.10524e-01,9.99946e-01
1.123142276e+00,3.83455e-02,9.99376e-01,7.41283e-02,5.17349e-01,9.99936e-01
1.128757988e+00,8.36084e-02,9.99999e-01,1.59530e-01,5.24127e-01,9.99930e-01
1.134401778e+00,3.75195e-02,9.99999e-01,7.06825e-02,5.30858e-01,9.99922e-01
1.140073787e+00,1.69748e-01,9.99999e-01,3.15806e-01,5.37540e-01,9.99937e-01
1.145774156e+00,5.91078e-02,9.99999e-01,1.08625e-01,5.44172e-01,9.99946e-01
1.151503026e+00,4.71909e-02,9.99999e-01,8.56883e-02,5.50752e-01,9.99954e-01
1.157260541e+00,6.03735e-02,9.99999e-01,1.08340e-01,5.57279e-01,9.99965e-01
1.163046844e+00,1.07096e-01,9.99999e-01,1.89974e-01,5.63752e-01,9.99977e-01
1.168862078e+00,1.72656e-01,9.99999e-01,3.02817e-01,5.70171e-01,9.99988e-01
1.174706389e+00,2.74956e-01,9.99999e-01,4.76915e-01,5.76533e-01,9.99993e-01
1.180579921e+00,3.70052e-01,9.99999e-01,6.34915e-01,5.82839e-01,9.99995e-01
1.186482820e+00,4.54666e-01,9.99973e-01,7.71831e-01,5.89087e-01,9.99996e-01
1.192415234e+00,4.87570e-01,9.51176e-01,8.59281e-01,5.95277e-01,9.99996e-01
1.198377311e+00,2.71670e-01,5.02305e-01,8.80121e-01,6.01408e-01,9.99997e-01
1.204369197e+00,8.48301e-38,1.49763e-37,8.86586e-01,6.07479e-01,9.99997e-01
1.210391043e+00,7.14154e-155,1.24142e-154,8.91007e-01,6.13489e-01,9.99998e-01
1.216442998e+00,6.16796e-134,1.05831e-133,9.06465e-01,6.19438e-01,9.99998e-01
1.222525213e+00,6.59728e-132,1.09751e-131,9.26254e-01,6.25326e-01,9.99998e-01
1.228637839e+00,1.25441e-101,2.05987e-101,9.48175e-01,6.31152e-01,9.99999e-01
1.234781029e+00,5.64210e-63,9.01101e-63,9.61253e-01,6.36916e-01,9.99999e-01
1.240954934e+00,1.28929e-41,2.03689e-41,9.75322e-01,6.42616e-01,9.99999e-01
1.247159708e+00,1.06211e-19,1.65732e-19,9.80722e-01,6.48254e-01,9.99999e-01
1.253395507e+00,1.97959e-13,3.06397e-13,9.82871e-01,6.53828e-01,9.99999e-01
1.259662485e+00,6.88033e-08,1.05558e-07,9.83728e-01,6.59339e-01,9.99999e-01
1.265960797e+00,1.07201e-04,1.63856e-04,9.74123e-01,6.64786e-01,9.99998e-01
1.272290601e+00,9.75101e-03,1.50159e-02,9.59696e-01,6.70169e-01,9.99998e-01
1.278652054e+00,9.43536e-03,1.46924e-02,9.21656e-01,6.75488e-01,9.99997e-01
1.285045314e+00,3.57969e-06,5.58394e-06,8.79950e-01,6.80743e-01,9.99996e-01
1.291470541e+00,5.86721e-18,9.78689e-18,7.74000e-01,6.85933e-01,9.99994e-01
1.297927893e+00,1.57619e-07,2.65336e-07,7.17406e-01,6.91060e-01,9.99990e-01
1.304417533e+00,2.18745e-04,4.30165e-04,6.53589e-01,6.96123e-01,9.99983e-01
1.310939621e+00,6.39065e-05,1.19896e-04,6.14945e-01,7.01121e-01,9.99971e-01
1.317494319e+00,2.24434e-52,4.24415e-52,5.90754e-01,7.06056e-01,9.99952e-01
1.324081790e+00,3.15128e-34,6.34574e-34,4.62045e-01,7.10927e-01,9.99922e-01
1.330702199e+00,1.11658e-20,3.92316e-20,1.11821e-01,7.15734e-01,9.99871e-01
1.337355710e+00,1.44717e-20,2.92593e-18,1.19561e-03,7.20478e-01,9.99753e-01
1.344042489e+00,6.91645e-22,1.74178e-18,1.64490e-05,7.25159e-01,9.99472e-01
1.350762701e+00,3.11470e-34,1.81135e-20,1.80915e-15,7.29776e-01,9.99158e-01
1.357516515e+00,4.70052e-33,3.38453e-12,6.95505e-23,7.34331e-01,9.98957e-01
1.364304097e+00,1.33835e-21,5.10848e-09,3.70034e-14,7.38824e-01,9.98883e-01
1.371125618e+00,1.19437e-12,6.13743e-05,6.94026e-09,7.43255e-01,9.98873e-01
1.377981246e+00,1.39204e-11,2.14748e-04,2.21527e-08,7.47624e-01,9.98790e-01
1.384871152e+00,7.43430e-14,7.10805e-03,6.21731e-12,7.51931e-01,9.98823e-01
1.391795508e+00,6.67815e-16,1.06894e-02,2.60904e-14,7.56178e-01,9.99003e-01
1.398754485e+00,2.11511e-12,5.54096e-02,3.32394e-11,7.60364e-01,9.99143e-01
1.405748258e+00,5.17566e-12,1.22768e-01,3.78544e-11,7.64489e-01,9.99231e-01
1.412776999e+00,1.72387e-11,2.61790e-01,5.65312e-11,7.68555e-01,9.99382e-01
1.419840884e+00,3.00070e-11,2.56193e-01,9.82358e-11,7.72562e-01,9.99538e-01
1.426940089e+00,2.63336e-08,7.78096e-03,1.48858e-07,7.76510e-01,9.99714e-01
1.434074789e+00,0.00000e+00,0.00000e+00,1.63509e-06,7.80399e-01,9.99821e-01
1.441245163e+00,0.00000e+00,0.00000e+00,1.80539e-05,7.84231e-01,9.99861e-01
1.448451389e+00,0.00000e+00,0.00000e+00,5.96837e-04,7.88005e-01,9.99884e-01
1.455693646e+00,0.00000e+00,0.00000e+00,6.31496e-03,7.91722e-01,9.99904e-01
1.462972114e+00,0.00000e+00,0.00000e+00,9.42542e-03,7.95383e-01,9.99918e-01
1.470286975e+00,1.33641e-258,5.28777e-257,4.69360e-03,7.98987e-01,9.99926e-01
