#,Wave/freq,Total,CO2,H2O,Rayleigh,CIA
4.000000000e-01,2.80935e-27,9.99999e-01,9.99880e-01,2.80969e-27,9.99999e-01
4.020000000e-01,9.41052e-27,9.99999e-01,9.99925e-01,9.41121e-27,9.99999e-01
4.040100000e-01,3.07409e-26,9.99999e-01,9.99968e-01,3.07419e-26,9.99999e-01
4.060300500e-01,9.80975e-26,9.99999e-01,9.99992e-01,9.80982e-26,9.99999e-01
4.080602003e-01,3.05940e-25,9.99999e-01,9.99997e-01,3.05941e-25,9.99999e-01
4.101005013e-01,9.32947e-25,9.99999e-01,9.99999e-01,9.32948e-25,9.99999e-01
4.121510038e-01,2.78298e-24,9.99999e-01,9.99995e-01,2.78299e-24,9.99999e-01
4.142117588e-01,8.12413e-24,9.99999e-01,9.99966e-01,8.12440e-24,9.99999e-01
4.162828176e-01,2.32175e-23,9.99999e-01,9.99851e-01,2.32210e-23,9.99999e-01
4.183642317e-01,6.50013e-23,9.99999e-01,9.99911e-01,6.50070e-23,9.99999e-01
4.204560528e-01,1.78314e-22,9.99999e-01,9.99945e-01,1.78324e-22,9.99999e-01
4.225583331e-01,4.79505e-22,9.99999e-01,9.99979e-01,4.79514e-22,9.99999e-01
4.246711247e-01,1.26445e-21,9.99999e-01,9.99983e-01,1.26447e-21,9.99999e-01
4.267944804e-01,3.27105e-21,9.99999e-01,9.99975e-01,3.27113e-21,9.99999e-01
4.289284528e-01,8.30473e-21,9.99999e-01,9.99981e-01,8.30488e-21,9.99999e-01
4.310730950e-01,2.07001e-20,9.99999e-01,9.99991e-01,2.07003e-20,9.99999e-01
4.332284605e-01,5.06738e-20,9.99999e-01,9.99997e-01,5.06739e-20,9.99999e-01
4.353946028e-01,1.21874e-19,9.99999e-01,9.99998e-01,1.21874e-19,9.99999e-01
4.375715758e-01,2.88076e-19,9.99999e-01,9.99984e-01,2.88080e-19,9.99999e-01
4.397594337e-01,6.69386e-19,9.99999e-01,9.99868e-01,6.69473e-19,9.99999e-01
4.419582309e-01,1.52908e-18,9.99999e-01,9.99333e-01,1.53010e-18,9.99999e-01
4.441680220e-01,3.43869e-18,9.99999e-01,9.99485e-01,3.44046e-18,9.99999e-01
4.463888621e-01,7.60901e-18,9.99999e-01,9.99462e-01,7.61309e-18,9.99999e-01
4.486208064e-01,1.65786e-17,9.99999e-01,9.99667e-01,1.65841e-17,9.99999e-01
4.508639105e-01,3.55695e-17,9.99999e-01,9.99843e-01,3.55750e-17,9.99999e-01
4.531182300e-01,7.51665e-17,9.99999e-01,9.99938e-01,7.51711e-17,9.99999e-01
4.553838212e-01,1.56502e-16,9.99999e-01,9.99957e-01,1.56509e-16,9.99999e-01
4.576607403e-01,3.21165e-16,9.99999e-01,9.99980e-01,3.21171e-16,9.99999e-01
4.599490440e-01,6.49771e-16,9.99999e-01,9.99985e-01,6.49780e-16,9.99999e-01
4.622487892e-01,1.29644e-15,9.99999e-01,9.99997e-01,1.29644e-15,9.99999e-01
4.645600332e-01,2.55157e-15,9.99999e-01,9.99990e-01,2.55160e-15,9.99999e-01
4.668828333e-01,4.95444e-15,9.99999e-01,9.99841e-01,4.95523e-15,9.99999e-01
4.692172475e-01,9.49457e-15,9.99999e-01,9.99663e-01,9.49777e-15,9.99999e-01
4.715633337e-01,1.79681e-14,9.99999e-01,9.99779e-01,1.79721e-14,9.99999e-01
4.739211504e-01,3.35747e-14,9.99999e-01,9.99789e-01,3.35818e-14,9.99999e-01
4.762907561e-01,6.19726e-14,9.99999e-01,9.99890e-01,6.19793e-14,9.99999e-01
4.786722099e-01,1.13009e-13,9.99999e-01,9.99955e-01,1.13014e-13,9.99999e-01
4.810655710e-01,2.03638e-13,9.99999e-01,9.99986e-01,2.03641e-13,9.99999e-01
4.834708988e-01,3.62652e-13,9.99999e-01,9.99869e-01,3.62699e-13,9.99999e-01
4.858882533e-01,6.38518e-13,9.99999e-01,9.99761e-01,6.38670e-13,9.99999e-01
4.883176946e-01,1.11190e-12,9.99999e-01,9.99799e-01,1.11212e-12,9.99999e-01
4.907592831e-01,1.91510e-12,9.99999e-01,9.99819e-01,1.91545e-12,9.99999e-01
4.932130795e-01,3.26339e-12,9.99999e-01,9.99871e-01,3.26381e-12,9.99999e-01
4.956791449e-01,5.50272e-12,9.99999e-01,9.99931e-01,5.50310e-12,9.99999e-01
4.981575406e-01,9.18038e-12,9.99999e-01,9.99660e-01,9.18350e-12,9.99999e-01
5.006483283e-01,1.51577e-11,9.99999e-01,9.99117e-01,1.51711e-11,9.99999e-01
5.031515699e-01,2.47049e-11,9.99999e-01,9.95556e-01,2.48152e-11,9.99999e-01
5.056673278e-01,4.01032e-11,9.99999e-01,9.97656e-01,4.01974e-11,9.99999e-01
5.081956644e-01,6.43067e-11,9.99999e-01,9.97044e-01,6.44972e-11,9.99999e-01
5.107366428e-01,1.02320e-10,9.99999e-01,9.98004e-01,1.02525e-10,9.99999e-01
5.132903260e-01,1.61304e-10,9.99999e-01,9.98860e-01,1.61487e-10,9.99999e-01
5.158567776e-01,2.51967e-10,9.99999e-01,9.99518e-01,2.52088e-10,9.99999e-01
5.184360615e-01,3.89998e-10,9.99999e-01,9.99806e-01,3.90073e-10,9.99999e-01
5.210282418e-01,5.98360e-10,9.99999e-01,9.99927e-01,5.98403e-10,9.99999e-01
5.236333830e-01,9.10008e-10,9.99999e-01,9.99709e-01,9.10271e-10,9.99999e-01
5.262515499e-01,1.37300e-09,9.99999e-01,9.99818e-01,1.37325e-09,9.99999e-01
5.288828077e-01,2.05461e-09,9.99999e-01,9.99832e-01,2.05495e-09,9.99999e-01
5.315272217e-01,3.05022e-09,9.99999e-01,9.99853e-01,3.05067e-09,9.99999e-01
5.341848578e-01,4.49322e-09,9.99999e-01,9.99903e-01,4.49365e-09,9.99999e-01
5.368557821e-01,6.56650e-09,9.99999e-01,9.99661e-01,6.56872e-09,9.99999e-01
5.395400610e-01,9.51861e-09,9.99999e-01,9.98774e-01,9.53029e-09,9.99999e-01
5.422377613e-01,1.37043e-08,9.99999e-01,9.98428e-01,1.37258e-08,9.99999e-01
5.449489501e-01,1.95976e-08,9.99999e-01,9.98532e-01,1.96264e-08,9.99999e-01
5.476736949e-01,2.78301e-08,9.99999e-01,9.98706e-01,2.78662e-08,9.99999e-01
5.504120634e-01,3.92552e-08,9.99999e-01,9.99060e-01,3.92921e-08,9.99999e-01
5.531641237e-01,5.50023e-08,9.99999e-01,9.99527e-01,5.50283e-08,9.99999e-01
5.559299443e-01,7.65383e-08,9.99999e-01,9.99771e-01,7.65557e-08,9.99999e-01
5.587095940e-01,1.05797e-07,9.99999e-01,9.99856e-01,1.05812e-07,9.99999e-01
5.615031420e-01,1.45295e-07,9.99999e-01,9.99840e-01,1.45318e-07,9.99999e-01
5.643106577e-01,1.98290e-07,9.99999e-01,9.99817e-01,1.98326e-07,9.99999e-01
5.671322110e-01,2.68416e-07,9.99999e-01,9.97780e-01,2.69013e-07,9.99999e-01
5.699678720e-01,3.61861e-07,9.99999e-01,9.97674e-01,3.62704e-07,9.99999e-01
5.728177114e-01,4.84962e-07,9.99999e-01,9.97562e-01,4.86146e-07,9.99999e-01
5.756818000e-01,6.46395e-07,9.99999e-01,9.97765e-01,6.47842e-07,9.99999e-01
5.785602090e-01,8.56766e-07,9.99999e-01,9.98054e-01,8.58436e-07,9.99999e-01
5.814530100e-01,1.12897e-06,9.99999e-01,9.98043e-01,1.13118e-06,9.99999e-01
5.843602750e-01,1.47901e-06,9.99999e-01,9.97659e-01,1.48248e-06,9.99999e-01
5.872820764e-01,1.89400e-06,9.99999e-01,9.80059e-01,1.93253e-06,9.99999e-01
5.902184868e-01,2.44576e-06,9.99999e-01,9.75940e-01,2.50605e-06,9.99999e-01
5.931695792e-01,3.17800e-06,9.99999e-01,9.82947e-01,3.23314e-06,9.99999e-01
5.961354271e-01,4.07271e-06,9.99999e-01,9.81321e-01,4.15023e-06,9.99999e-01
5.991161043e-01,5.22886e-06,9.99999e-01,9.86343e-01,5.30126e-06,9.99999e-01
6.021116848e-01,6.68651e-06,9.99999e-01,9.92234e-01,6.73884e-06,9.99999e-01
6.051222432e-01,8.49222e-06,9.99999e-01,9.96064e-01,8.52577e-06,9.99999e-01
6.081478544e-01,1.07183e-05,9.99999e-01,9.98299e-01,1.07365e-05,9.99999e-01
6.111885937e-01,1.34495e-05,9.99999e-01,9.99281e-01,1.34591e-05,9.99999e-01
6.142445367e-01,1.67916e-05,9.99999e-01,9.99678e-01,1.67970e-05,9.99999e-01
6.173157594e-01,2.08674e-05,9.99999e-01,9.99822e-01,2.08711e-05,9.99999e-01
6.204023382e-01,2.58184e-05,9.99999e-01,9.99849e-01,2.58223e-05,9.99999e-01
6.235043498e-01,3.17929e-05,9.99999e-01,9.99332e-01,3.18141e-05,9.99999e-01
6.266218716e-01,3.88983e-05,9.99999e-01,9.96498e-01,3.90350e-05,9.99999e-01
6.297549810e-01,4.76404e-05,9.99999e-01,9.98714e-01,4.77017e-05,9.99999e-01
6.329037559e-01,5.79150e-05,9.99999e-01,9.97464e-01,5.80622e-05,9.99999e-01
6.360682746e-01,7.02467e-05,9.99999e-01,9.97835e-01,7.03991e-05,9.99999e-01
6.392486160e-01,8.47949e-05,9.99999e-01,9.97198e-01,8.50330e-05,9.99999e-01
6.424448591e-01,1.01941e-04,9.99999e-01,9.96235e-01,1.02327e-04,9.99999e-01
6.456570834e-01,1.20560e-04,9.99999e-01,9.82658e-01,1.22688e-04,9.99999e-01
6.488853688e-01,1.44721e-04,9.99999e-01,9.87358e-01,1.46574e-04,9.99999e-01
6.521297956e-01,1.72250e-04,9.99999e-01,9.87125e-01,1.74497e-04,9.99999e-01
6.553904446e-01,2.04358e-04,9.99999e-01,9.87124e-01,2.07024e-04,9.99999e-01
6.586673968e-01,2.42094e-04,9.99999e-01,9.88997e-01,2.44787e-04,9.99999e-01
6.619607338e-01,2.86708e-04,9.99999e-01,9.93851e-01,2.88482e-04,9.99999e-01
6.652705375e-01,3.37624e-04,9.99999e-01,9.96305e-01,3.38876e-04,9.99999e-01
6.685968902e-01,3.96185e-04,9.99999e-01,9.98428e-01,3.96808e-04,9.99999e-01
6.719398746e-01,4.62830e-04,9.99999e-01,9.99204e-01,4.63198e-04,9.99999e-01
6.752995740e-01,5.38814e-04,9.99999e-01,9.99567e-01,5.39047e-04,9.99999e-01
6.786760719e-01,6.25047e-04,9.99999e-01,9.99373e-01,6.25439e-04,9.99999e-01
6.820694522e-01,7.22776e-04,9.99999e-01,9.98930e-01,7.23549e-04,9.99999e-01
6.854797995e-01,8.33493e-04,9.99999e-01,9.98619e-01,8.34644e-04,9.99999e-01
6.889071985e-01,9.56857e-04,9.99999e-01,9.96638e-01,9.60084e-04,9.99999e-01
6.923517345e-01,1.04286e-03,9.99999e-01,9.46913e-01,1.10133e-03,9.99998e-01
6.958134932e-01,1.22513e-03,9.99999e-01,9.72383e-01,1.25993e-03,9.99998e-01
6.992925606e-01,1.39925e-03,9.99999e-01,9.73362e-01,1.43754e-03,9.99998e-01
7.027890234e-01,1.58251e-03,9.99999e-01,9.67345e-01,1.63593e-03,9.99998e-01
7.063029686e-01,1.80575e-03,9.99999e-01,9.72429e-01,1.85695e-03,9.99998e-01
7.098344834e-01,2.04689e-03,9.99999e-01,9.73521e-01,2.10256e-03,9.99998e-01
7.133836558e-01,2.29116e-03,9.99999e-01,9.64774e-01,2.37482e-03,9.99998e-01
7.169505741e-01,2.02190e-03,9.99999e-01,7.55599e-01,2.67589e-03,9.99996e-01
7.205353270e-01,2.62263e-03,9.99999e-01,8.71878e-01,3.00803e-03,9.99995e-01
7.241380036e-01,2.82845e-03,9.99999e-01,8.38413e-01,3.37359e-03,9.99995e-01
7.277586936e-01,3.22059e-03,9.99999e-01,8.53134e-01,3.77501e-03,9.99996e-01
7.313974871e-01,3.55774e-03,9.99999e-01,8.44101e-01,4.21483e-03,9.99997e-01
7.350544745e-01,4.27847e-03,9.99999e-01,9.11154e-01,4.69566e-03,9.99998e-01
7.387297469e-01,4.87370e-03,9.99999e-01,9.33625e-01,5.22019e-03,9.99998e-01
7.424233956e-01,5.59974e-03,9.99999e-01,9.66939e-01,5.79119e-03,9.99999e-01
7.461355126e-01,6.28203e-03,9.99999e-01,9.79808e-01,6.41149e-03,9.99999e-01
7.498661902e-01,7.01712e-03,9.99999e-01,9.90562e-01,7.08397e-03,9.99999e-01
7.536155211e-01,7.77528e-03,9.99999e-01,9.95351e-01,7.81159e-03,9.99999e-01
7.573835987e-01,8.57673e-03,9.99999e-01,9.97605e-01,8.59731e-03,9.99999e-01
7.611705167e-01,9.43012e-03,9.99999e-01,9.98511e-01,9.44418e-03,9.99999e-01
7.649763693e-01,1.03456e-02,9.99999e-01,9.99066e-01,1.03552e-02,9.99999e-01
7.688012511e-01,1.13262e-02,9.99999e-01,9.99348e-01,1.13335e-02,9.99999e-01
7.726452574e-01,1.23755e-02,9.99999e-01,9.99464e-01,1.23822e-02,9.99999e-01
7.765084837e-01,1.34939e-02,9.99999e-01,9.99235e-01,1.35042e-02,9.99999e-01
7.803910261e-01,1.26418e-02,8.62329e-01,9.96697e-01,1.47027e-02,9.99999e-01
7.842929812e-01,7.14013e-03,4.51029e-01,9.88521e-01,1.59807e-02,9.99999e-01
7.882144461e-01,7.40868e-03,4.35883e-01,9.76588e-01,1.73412e-02,9.99999e-01
7.921555184e-01,1.08621e-02,5.84865e-01,9.87137e-01,1.87871e-02,9.99999e-01
7.961162960e-01,1.37773e-02,6.92986e-01,9.77249e-01,2.03215e-02,9.99999e-01
8.000968774e-01,1.75124e-02,8.19058e-01,9.73803e-01,2.19472e-02,9.99998e-01
8.040973618e-01,2.07845e-02,9.01583e-01,9.73790e-01,2.36668e-02,9.99998e-01
8.081178486e-01,2.28952e-02,9.53337e-01,9.41965e-01,2.54833e-02,9.99998e-01
8.121584379e-01,2.11352e-02,9.85427e-01,7.82166e-01,2.73990e-02,9.99996e-01
8.162192301e-01,2.19741e-02,9.96761e-01,7.49180e-01,2.94167e-02,9.99995e-01
8.203003262e-01,2.74051e-02,9.99954e-01,8.68961e-01,3.15386e-02,9.99995e-01
8.244018279e-01,2.79108e-02,9.99999e-01,8.26569e-01,3.37672e-02,9.99995e-01
8.285238370e-01,3.03174e-02,9.99999e-01,8.39717e-01,3.61044e-02,9.99996e-01
8.326664562e-01,3.23431e-02,9.99999e-01,8.38939e-01,3.85525e-02,9.99997e-01
8.368297885e-01,3.62245e-02,9.99999e-01,8.81093e-01,4.11132e-02,9.99998e-01
8.410139374e-01,4.06084e-02,9.99999e-01,9.27378e-01,4.37883e-02,9.99999e-01
8.452190071e-01,4.48868e-02,9.99999e-01,9.63659e-01,4.65795e-02,9.99999e-01
8.494451021e-01,4.84337e-02,9.99999e-01,9.78692e-01,4.94882e-02,9.99999e-01
8.536923276e-01,5.18523e-02,9.99999e-01,9.87369e-01,5.25156e-02,9.99999e-01
8.579607893e-01,5.52282e-02,9.99999e-01,9.92190e-01,5.56629e-02,9.99999e-01
8.622505932e-01,5.86386e-02,9.99999e-01,9.95038e-01,5.89310e-02,9.99999e-01
8.665618462e-01,5.15082e-02,8.28846e-01,9.96922e-01,6.23207e-02,9.99999e-01
8.708946554e-01,9.78725e-03,1.49123e-01,9.96472e-01,6.58327e-02,9.99999e-01
8.752491287e-01,1.32747e-02,1.91905e-01,9.95285e-01,6.94673e-02,9.99999e-01
8.796253743e-01,2.85177e-02,3.91685e-01,9.93465e-01,7.32248e-02,9.99999e-01
8.840235012e-01,4.62504e-02,6.03978e-01,9.92544e-01,7.71052e-02,9.99998e-01
8.884436187e-01,6.46162e-02,8.17530e-01,9.73041e-01,8.11085e-02,9.99998e-01
8.928858368e-01,5.95681e-02,9.21090e-01,7.55641e-01,8.52345e-02,9.99995e-01
8.973502660e-01,5.39198e-02,9.80275e-01,6.13387e-01,8.94825e-02,9.99993e-01
9.018370173e-01,7.30708e-02,9.97809e-01,7.80016e-01,9.38521e-02,9.99992e-01
9.063462024e-01,7.52184e-02,9.46506e-01,8.00749e-01,9.83424e-02,9.99991e-01
9.108779334e-01,6.45830e-02,8.78688e-01,7.08296e-01,1.02952e-01,9.99990e-01
9.154323231e-01,7.06695e-02,9.70216e-01,6.74201e-01,1.07681e-01,9.99989e-01
9.200094847e-01,6.27977e-02,7.15346e-01,7.36144e-01,1.12527e-01,9.99986e-01
9.246095321e-01,4.13971e-02,5.35194e-01,6.33724e-01,1.17489e-01,9.99977e-01
9.292325798e-01,6.36478e-03,6.21998e-01,7.32023e-02,1.22565e-01,9.99952e-01
9.338787427e-01,2.70668e-03,6.26253e-01,3.00159e-02,1.27754e-01,9.99938e-01
9.385481364e-01,2.39030e-02,7.04997e-01,2.38686e-01,1.33053e-01,9.99936e-01
9.432408771e-01,1.74654e-02,8.05463e-01,1.50518e-01,1.38461e-01,9.99929e-01
9.479570815e-01,8.89820e-03,8.94580e-01,6.76802e-02,1.43976e-01,9.99938e-01
9.526968669e-01,1.75240e-02,9.47864e-01,1.21937e-01,1.49594e-01,9.99953e-01
9.574603512e-01,2.03204e-02,9.77321e-01,1.33077e-01,1.55315e-01,9.99965e-01
9.622476530e-01,2.97595e-02,9.92870e-01,1.85676e-01,1.61134e-01,9.99976e-01
9.670588912e-01,6.20139e-02,9.97861e-01,3.71837e-01,1.67050e-01,9.99984e-01
9.718941857e-01,9.01341e-02,9.99850e-01,5.20879e-01,1.73061e-01,9.99990e-01
9.767536566e-01,1.04076e-01,9.99999e-01,5.80907e-01,1.79162e-01,9.99993e-01
9.816374249e-01,1.23462e-01,9.99999e-01,6.66099e-01,1.85352e-01,9.99995e-01
9.865456120e-01,1.48424e-01,9.99999e-01,7.74549e-01,1.91626e-01,9.99997e-01
9.914783401e-01,1.68926e-01,9.99999e-01,8.53232e-01,1.97983e-01,9.99998e-01
9.964357318e-01,1.87485e-01,9.99999e-01,9.17158e-01,2.04419e-01,9.99999e-01
1.001417910e+00,2.00266e-01,9.99999e-01,9.49437e-01,2.10931e-01,9.99999e-01
1.006425000e+00,2.11165e-01,9.99999e-01,9.70804e-01,2.17516e-01,9.99999e-01
1.011457125e+00,2.20091e-01,9.99999e-01,9.81806e-01,2.24170e-01,9.99999e-01
1.016514411e+00,2.28027e-01,9.99999e-01,9.87601e-01,2.30890e-01,9.99999e-01
1.021596983e+00,2.35245e-01,9.99673e-01,9.90104e-01,2.37672e-01,9.99999e-01
1.026704968e+00,2.37325e-01,9.78099e-01,9.92272e-01,2.44515e-01,9.99999e-01
1.031838492e+00,2.14190e-01,8.56395e-01,9.94384e-01,2.51413e-01,9.99999e-01
1.036997685e+00,5.61287e-03,2.17791e-02,9.96657e-01,2.58363e-01,9.99999e-01
1.042182673e+00,3.73035e-05,1.40974e-04,9.96007e-01,2.65363e-01,9.99999e-01
1.047393587e+00,1.02025e-04,3.76105e-04,9.94713e-01,2.72409e-01,9.99999e-01
1.052630555e+00,2.35509e-11,8.46366e-11,9.92748e-01,2.79497e-01,9.99999e-01
1.057893707e+00,8.91265e-11,3.12678e-10,9.87914e-01,2.86624e-01,9.99999e-01
1.063183176e+00,4.93368e-08,1.69676e-07,9.80209e-01,2.93787e-01,9.99999e-01
1.068499092e+00,1.48794e-06,5.02727e-06,9.67123e-01,3.00981e-01,9.99999e-01
1.073841587e+00,9.21139e-05,3.06156e-04,9.61678e-01,3.08205e-01,9.99998e-01
1.079210795e+00,2.02931e-03,6.66235e-03,9.51174e-01,3.15454e-01,9.99998e-01
1.084606849e+00,1.63688e-02,5.39114e-02,9.27095e-01,3.22726e-01,9.99997e-01
1.090029883e+00,6.42370e-02,2.13801e-01,8.97083e-01,3.30016e-01,9.99995e-01
1.095480033e+00,1.18673e-01,4.64543e-01,7.44572e-01,3.37323e-01,9.99992e-01
1.100957433e+00,1.16395e-01,6.88121e-01,4.80579e-01,3.44642e-01,9.99986e-01
1.106462220e+00,5.42641e-02,8.56350e-01,1.75869e-01,3.51970e-01,9.99971e-01
1.111994531e+00,1.01934e-02,9.43976e-01,2.96036e-02,3.59305e-01,9.99943e-01
1.117554504e+00,1.70422e-03,9.86061e-01,4.67712e-03,3.66644e-01,9.99919e-01
1.123142276e+00,1.04560e-02,9.99082e-01,2.79623e-02,3.73983e-01,9.99905e-01
1.128757988e+00,2.76536e-02,9.99999e-01,7.25283e-02,3.81319e-01,9.99896e-01
1.134401778e+00,1.35982e-02,9.99999e-01,3.49923e-02,3.88651e-01,9.99884e-01
1.140073787e+00,7.41556e-02,9.99999e-01,1.87291e-01,3.95974e-01,9.99906e-01
1.145774156e+00,1.82071e-02,9.99999e-01,4.51504e-02,4.03286e-01,9.99920e-01
1.151503026e+00,1.28070e-02,9.99999e-01,3.11941e-02,4.10586e-01,9.99931e-01
1.157260541e+00,1.67271e-02,9.99999e-01,4.00317e-02,4.17869e-01,9.99948e-01
1.163046844e+00,3.84736e-02,9.99999e-01,9.05006e-02,4.25133e-01,9.99967e-01
1.168862078e+00,7.53376e-02,9.99999e-01,1.74243e-01,4.32377e-01,9.99983e-01
1.174706389e+00,1.48103e-01,9.99999e-01,3.36907e-01,4.39598e-01,9.99991e-01
1.180579921e+00,2.28632e-01,9.99999e-01,5.11722e-01,4.46793e-01,9.99994e-01
1.186482820e+00,3.09059e-01,9.99952e-01,6.80831e-01,4.53960e-01,9.99995e-01
1.192415234e+00,3.43389e-01,9.29164e-01,7.97897e-01,4.61097e-01,9.99995e-01
1.198377311e+00,1.86860e-01,4.67166e-01,8.26731e-01,4.68202e-01,9.99996e-01
1.204369197e+00,2.82971e-55,6.60888e-55,8.36233e-01,4.75273e-01,9.99996e-01
1.210391043e+00,5.93869e-230,1.35531e-229,8.42243e-01,4.82307e-01,9.99997e-01
1.216442998e+00,1.03831e-198,2.32399e-198,8.64259e-01,4.89304e-01,9.99998e-01
1.222525213e+00,1.09509e-195,2.34057e-195,8.92230e-01,4.96261e-01,9.99998e-01
1.228637839e+00,1.59737e-150,3.34842e-150,9.23778e-01,5.03177e-01,9.99999e-01
1.234781029e+00,7.64324e-93,1.53718e-92,9.42877e-01,5.10050e-01,9.99999e-01
1.240954934e+00,5.10676e-61,1.01035e-60,9.63462e-01,5.16878e-01,9.99999e-01
1.247159708e+00,2.79368e-28,5.42700e-28,9.71430e-01,5.23660e-01,9.99999e-01
1.253395507e+00,2.92218e-19,5.60668e-19,9.74574e-01,5.30394e-01,9.99999e-01
1.259662485e+00,6.11930e-11,1.15863e-10,9.75802e-01,5.37080e-01,9.99998e-01
1.265960797e+00,2.91393e-06,5.48311e-06,9.61685e-01,5.43715e-01,9.99998e-01
1.272290601e+00,1.20242e-03,2.28229e-03,9.40431e-01,5.50298e-01,9.99998e-01
1.278652054e+00,1.34030e-03,2.58113e-03,8.85584e-01,5.56829e-01,9.99997e-01
1.285045314e+00,3.64161e-08,7.06093e-08,8.03246e-01,5.63306e-01,9.99995e-01
1.291470541e+00,6.96489e-26,1.49923e-25,6.83386e-01,5.69729e-01,9.99992e-01
1.297927893e+00,4.06154e-08,8.82258e-08,5.84595e-01,5.76095e-01,9.99986e-01
1.304417533e+00,4.72958e-06,1.25715e-05,5.34823e-01,5.82405e-01,9.99975e-01
1.310939621e+00,1.18198e-06,3.00976e-06,4.54287e-01,5.88657e-01,9.99958e-01
1.317494319e+00,2.03271e-78,5.26000e-78,4.62296e-01,5.94851e-01,9.99929e-01
1.324081790e+00,5.77224e-50,1.63946e-49,3.24973e-01,6.00986e-01,9.99885e-01
1.330702199e+00,4.47844e-30,2.45585e-29,5.76292e-02,6.07061e-01,9.99808e-01
1.337355710e+00,1.05210e-29,2.63424e-26,7.75615e-05,6.13075e-01,9.99632e-01
1.344042489e+00,1.51412e-31,1.79395e-26,4.09388e-07,6.19029e-01,9.99214e-01
1.350762701e+00,5.21831e-50,9.90392e-30,4.65049e-22,6.24921e-01,9.98744e-01
1.357516515e+00,3.28984e-48,3.58985e-17,4.62142e-33,6.30751e-01,9.98445e-01
1.364304097e+00,3.57212e-31,9.14283e-13,3.99587e-20,6.36519e-01,9.98334e-01
1.371125618e+00,8.54888e-18,7.75870e-07,3.48606e-12,6.42224e-01,9.98320e-01
1.377981246e+00,2.11693e-16,4.64141e-06,1.05079e-11,6.47866e-01,9.98196e-01
1.384871152e+00,1.45152e-19,7.01276e-04,1.07036e-16,6.53445e-01,9.98246e-01
1.391795508e+00,9.04839e-23,1.39799e-03,1.96064e-20,6.58960e-01,9.98513e-01
1.398754485e+00,1.86241e-17,1.36290e-02,1.10340e-15,6.64411e-01,9.98722e-01
1.405748258e+00,6.05974e-17,4.57668e-02,1.16894e-15,6.69799e-01,9.98854e-01
1.412776999e+00,4.76941e-16,1.38145e-01,2.79539e-15,6.75122e-01,9.99079e-01
1.419840884e+00,7.18957e-16,1.46970e-01,4.18426e-15,6.80381e-01,9.99312e-01
1.426940089e+00,2.76957e-11,3.45770e-03,3.59303e-10,6.85576e-01,9.99574e-01
1.434074789e+00,0.00000e+00,0.00000e+00,6.07816e-09,6.90708e-01,9.99734e-01
1.441245163e+00,0.00000e+00,0.00000e+00,1.91488e-07,6.95775e-01,9.99793e-01
1.448451389e+00,0.00000e+00,0.00000e+00,3.39450e-05,7.00778e-01,9.99828e-01
1.455693646e+00,0.00000e+00,0.00000e+00,9.20631e-04,7.05717e-01,9.99858e-01
1.462972114e+00,0.00000e+00,0.00000e+00,1.31540e-03,7.10592e-01,9.99878e-01
1.470286975e+00,0.00000e+00,0.00000e+00,5.26374e-04,7.15404e-01,9.99891e-01
