#,Wave/freq,Total,CO2,H2O,Rayleigh,CIA
4.000000000e-01,6.62516e-03,9.99999e-01,9.99989e-01,6.62522e-03,9.99999e-01
4.020000000e-01,7.31608e-03,9.99999e-01,9.99993e-01,7.31612e-03,9.99999e-01
4.040100000e-01,8.06242e-03,9.99999e-01,9.99996e-01,8.06245e-03,9.99999e-01
4.060300500e-01,8.86786e-03,9.99999e-01,9.99998e-01,8.86787e-03,9.99999e-01
4.080602003e-01,9.73542e-03,9.99999e-01,9.99999e-01,9.73542e-03,9.99999e-01
4.101005013e-01,1.06682e-02,9.99999e-01,9.99999e-01,1.06682e-02,9.99999e-01
4.121510038e-01,1.16692e-02,9.99999e-01,9.99999e-01,1.16692e-02,9.99999e-01
4.142117588e-01,1.27415e-02,9.99999e-01,9.99996e-01,1.27415e-02,9.99999e-01
4.162828176e-01,1.38881e-02,9.99999e-01,9.99987e-01,1.38882e-02,9.99999e-01
4.183642317e-01,1.51123e-02,9.99999e-01,9.99992e-01,1.51124e-02,9.99999e-01
4.204560528e-01,1.64171e-02,9.99999e-01,9.99995e-01,1.64171e-02,9.99999e-01
4.225583331e-01,1.78053e-02,9.99999e-01,9.99997e-01,1.78053e-02,9.99999e-01
4.246711247e-01,1.92799e-02,9.99999e-01,9.99998e-01,1.92799e-02,9.99999e-01
4.267944804e-01,2.08439e-02,9.99999e-01,9.99997e-01,2.08439e-02,9.99999e-01
4.289284528e-01,2.25000e-02,9.99999e-01,9.99997e-01,2.25000e-02,9.99999e-01
4.310730950e-01,2.42511e-02,9.99999e-01,9.99998e-01,2.42511e-02,9.99999e-01
4.332284605e-01,2.60998e-02,9.99999e-01,9.99999e-01,2.60998e-02,9.99999e-01
4.353946028e-01,2.80487e-02,9.99999e-01,9.99999e-01,2.80487e-02,9.99999e-01
4.375715758e-01,3.01002e-02,9.99999e-01,9.99998e-01,3.01003e-02,9.99999e-01
4.397594337e-01,3.22565e-02,9.99999e-01,9.99988e-01,3.22569e-02,9.99999e-01
4.419582309e-01,3.45189e-02,9.99999e-01,9.99944e-01,3.45208e-02,9.99999e-01
4.441680220e-01,3.68926e-02,9.99999e-01,9.99957e-01,3.68941e-02,9.99999e-01
4.463888621e-01,3.93771e-02,9.99999e-01,9.99955e-01,3.93789e-02,9.99999e-01
4.486208064e-01,4.19757e-02,9.99999e-01,9.99972e-01,4.19769e-02,9.99999e-01
4.508639105e-01,4.46893e-02,9.99999e-01,9.99986e-01,4.46899e-02,9.99999e-01
4.531182300e-01,4.75192e-02,9.99999e-01,9.99994e-01,4.75194e-02,9.99999e-01
4.553838212e-01,5.04666e-02,9.99999e-01,9.99996e-01,5.04668e-02,9.99999e-01
4.576607403e-01,5.35333e-02,9.99999e-01,9.99997e-01,5.35334e-02,9.99999e-01
4.599490440e-01,5.67201e-02,9.99999e-01,9.99998e-01,5.67202e-02,9.99999e-01
4.622487892e-01,6.00281e-02,9.99999e-01,9.99999e-01,6.00281e-02,9.99999e-01
4.645600332e-01,6.34577e-02,9.99999e-01,9.99998e-01,6.34578e-02,9.99999e-01
4.668828333e-01,6.70090e-02,9.99999e-01,9.99986e-01,6.70099e-02,9.99999e-01
4.692172475e-01,7.06827e-02,9.99999e-01,9.99971e-01,7.06847e-02,9.99999e-01
4.715633337e-01,7.44811e-02,9.99999e-01,9.99981e-01,7.44825e-02,9.99999e-01
4.739211504e-01,7.84019e-02,9.99999e-01,9.99982e-01,7.84032e-02,9.99999e-01
4.762907561e-01,8.24460e-02,9.99999e-01,9.99990e-01,8.24467e-02,9.99999e-01
4.786722099e-01,8.66124e-02,9.99999e-01,9.99995e-01,8.66127e-02,9.99999e-01
4.810655710e-01,9.09006e-02,9.99999e-01,9.99998e-01,9.09007e-02,9.99999e-01
4.834708988e-01,9.53089e-02,9.99999e-01,9.99988e-01,9.53099e-02,9.99999e-01
4.858882533e-01,9.98376e-02,9.99999e-01,9.99979e-01,9.98395e-02,9.99999e-01
4.883176946e-01,1.04487e-01,9.99999e-01,9.99983e-01,1.04489e-01,9.99999e-01
4.907592831e-01,1.09254e-01,9.99999e-01,9.99984e-01,1.09256e-01,9.99999e-01
4.932130795e-01,1.14139e-01,9.99999e-01,9.99989e-01,1.14140e-01,9.99999e-01
4.956791449e-01,1.19139e-01,9.99999e-01,9.99993e-01,1.19139e-01,9.99999e-01
4.981575406e-01,1.24249e-01,9.99999e-01,9.99971e-01,1.24253e-01,9.99999e-01
5.006483283e-01,1.29468e-01,9.99999e-01,9.99927e-01,1.29478e-01,9.99999e-01
5.031515699e-01,1.34764e-01,9.99999e-01,9.99633e-01,1.34813e-01,9.99999e-01
5.056673278e-01,1.40229e-01,9.99999e-01,9.99806e-01,1.40256e-01,9.99999e-01
5.081956644e-01,1.45770e-01,9.99999e-01,9.99756e-01,1.45805e-01,9.99999e-01
5.107366428e-01,1.51432e-01,9.99999e-01,9.99835e-01,1.51457e-01,9.99999e-01
5.132903260e-01,1.57196e-01,9.99999e-01,9.99905e-01,1.57210e-01,9.99999e-01
5.158567776e-01,1.63055e-01,9.99999e-01,9.99960e-01,1.63062e-01,9.99999e-01
5.184360615e-01,1.69007e-01,9.99999e-01,9.99983e-01,1.69009e-01,9.99999e-01
5.210282418e-01,1.75049e-01,9.99999e-01,9.99993e-01,1.75050e-01,9.99999e-01
5.236333830e-01,1.81176e-01,9.99999e-01,9.99975e-01,1.81180e-01,9.99999e-01
5.262515499e-01,1.87395e-01,9.99999e-01,9.99984e-01,1.87398e-01,9.99999e-01
5.288828077e-01,1.93697e-01,9.99999e-01,9.99985e-01,1.93700e-01,9.99999e-01
5.315272217e-01,2.00081e-01,9.99999e-01,9.99987e-01,2.00083e-01,9.99999e-01
5.341848578e-01,2.06543e-01,9.99999e-01,9.99991e-01,2.06544e-01,9.99999e-01
5.368557821e-01,2.13074e-01,9.99999e-01,9.99971e-01,2.13080e-01,9.99999e-01
5.395400610e-01,2.19666e-01,9.99999e-01,9.99898e-01,2.19688e-01,9.99999e-01
5.422377613e-01,2.26335e-01,9.99999e-01,9.99870e-01,2.26364e-01,9.99999e-01
5.449489501e-01,2.33077e-01,9.99999e-01,9.99879e-01,2.33105e-01,9.99999e-01
5.476736949e-01,2.39882e-01,9.99999e-01,9.99893e-01,2.39907e-01,9.99999e-01
5.504120634e-01,2.46749e-01,9.99999e-01,9.99922e-01,2.46768e-01,9.99999e-01
5.531641237e-01,2.53674e-01,9.99999e-01,9.99960e-01,2.53684e-01,9.99999e-01
5.559299443e-01,2.60646e-01,9.99999e-01,9.99980e-01,2.60651e-01,9.99999e-01
5.587095940e-01,2.67663e-01,9.99999e-01,9.99987e-01,2.67667e-01,9.99999e-01
5.615031420e-01,2.74723e-01,9.99999e-01,9.99986e-01,2.74727e-01,9.99999e-01
5.643106577e-01,2.81824e-01,9.99999e-01,9.99984e-01,2.81828e-01,9.99999e-01
5.671322110e-01,2.88914e-01,9.99999e-01,9.99817e-01,2.88967e-01,9.99999e-01
5.699678720e-01,2.96084e-01,9.99999e-01,9.99808e-01,2.96140e-01,9.99999e-01
5.728177114e-01,3.03284e-01,9.99999e-01,9.99799e-01,3.03345e-01,9.99999e-01
5.756818000e-01,3.10520e-01,9.99999e-01,9.99816e-01,3.10577e-01,9.99999e-01
5.785602090e-01,3.17783e-01,9.99999e-01,9.99839e-01,3.17834e-01,9.99999e-01
5.814530100e-01,3.25060e-01,9.99999e-01,9.99838e-01,3.25112e-01,9.99999e-01
5.843602750e-01,3.32344e-01,9.99999e-01,9.99807e-01,3.32408e-01,9.99999e-01
5.872820764e-01,3.39156e-01,9.99999e-01,9.98341e-01,3.39719e-01,9.99999e-01
5.902184868e-01,3.46348e-01,9.99999e-01,9.98000e-01,3.47042e-01,9.99999e-01
5.931695792e-01,3.53871e-01,9.99999e-01,9.98584e-01,3.54373e-01,9.99999e-01
5.961354271e-01,3.61149e-01,9.99999e-01,9.98450e-01,3.61709e-01,9.99999e-01
5.991161043e-01,3.68631e-01,9.99999e-01,9.98870e-01,3.69048e-01,9.99999e-01
6.021116848e-01,3.76146e-01,9.99999e-01,9.99359e-01,3.76387e-01,9.99999e-01
6.051222432e-01,3.83597e-01,9.99999e-01,9.99675e-01,3.83722e-01,9.99999e-01
6.081478544e-01,3.90996e-01,9.99999e-01,9.99859e-01,3.91051e-01,9.99999e-01
6.111885937e-01,3.98347e-01,9.99999e-01,9.99940e-01,3.98371e-01,9.99999e-01
6.142445367e-01,4.05669e-01,9.99999e-01,9.99973e-01,4.05679e-01,9.99999e-01
6.173157594e-01,4.12967e-01,9.99999e-01,9.99984e-01,4.12973e-01,9.99999e-01
6.204023382e-01,4.20246e-01,9.99999e-01,9.99987e-01,4.20251e-01,9.99999e-01
6.235043498e-01,4.27486e-01,9.99999e-01,9.99944e-01,4.27509e-01,9.99999e-01
6.266218716e-01,4.34620e-01,9.99999e-01,9.99711e-01,4.34745e-01,9.99999e-01
6.297549810e-01,4.41911e-01,9.99999e-01,9.99893e-01,4.41958e-01,9.99999e-01
6.329037559e-01,4.49050e-01,9.99999e-01,9.99791e-01,4.49144e-01,9.99999e-01
6.360682746e-01,4.56220e-01,9.99999e-01,9.99821e-01,4.56301e-01,9.99999e-01
6.392486160e-01,4.63321e-01,9.99999e-01,9.99769e-01,4.63428e-01,9.99999e-01
6.424448591e-01,4.70376e-01,9.99999e-01,9.99690e-01,4.70522e-01,9.99999e-01
6.456570834e-01,4.76895e-01,9.99999e-01,9.98563e-01,4.77581e-01,9.99999e-01
6.488853688e-01,4.84097e-01,9.99999e-01,9.98953e-01,4.84604e-01,9.99999e-01
6.521297956e-01,4.91064e-01,9.99999e-01,9.98932e-01,4.91588e-01,9.99999e-01
6.553904446e-01,4.98002e-01,9.99999e-01,9.98935e-01,4.98532e-01,9.99999e-01
6.586673968e-01,5.04974e-01,9.99999e-01,9.99090e-01,5.05434e-01,9.99999e-01
6.619607338e-01,5.12032e-01,9.99999e-01,9.99493e-01,5.12292e-01,9.99999e-01
6.652705375e-01,5.18947e-01,9.99999e-01,9.99695e-01,5.19105e-01,9.99999e-01
6.685968902e-01,5.25804e-01,9.99999e-01,9.99870e-01,5.25872e-01,9.99999e-01
6.719398746e-01,5.32555e-01,9.99999e-01,9.99934e-01,5.32590e-01,9.99999e-01
6.752995740e-01,5.39240e-01,9.99999e-01,9.99964e-01,5.39259e-01,9.99999e-01
6.786760719e-01,5.45849e-01,9.99999e-01,9.99948e-01,5.45877e-01,9.99999e-01
6.820694522e-01,5.52395e-01,9.99999e-01,9.99911e-01,5.52444e-01,9.99999e-01
6.854797995e-01,5.58894e-01,9.99999e-01,9.99886e-01,5.58957e-01,9.99999e-01
6.889071985e-01,5.65260e-01,9.99999e-01,9.99723e-01,5.65416e-01,9.99999e-01
6.923517345e-01,5.69252e-01,9.99999e-01,9.95507e-01,5.71820e-01,9.99999e-01
6.958134932e-01,5.76830e-01,9.99999e-01,9.97685e-01,5.78168e-01,9.99999e-01
6.992925606e-01,5.83162e-01,9.99999e-01,9.97780e-01,5.84460e-01,9.99999e-01
7.027890234e-01,5.89081e-01,9.99999e-01,9.97270e-01,5.90693e-01,9.99999e-01
7.063029686e-01,5.95497e-01,9.99999e-01,9.97704e-01,5.96867e-01,9.99999e-01
7.098344834e-01,6.01655e-01,9.99999e-01,9.97797e-01,6.02983e-01,9.99999e-01
7.133836558e-01,6.07239e-01,9.99999e-01,9.97045e-01,6.09038e-01,9.99999e-01
7.169505741e-01,6.00536e-01,9.99999e-01,9.76429e-01,6.15032e-01,9.99999e-01
7.205353270e-01,6.13836e-01,9.99999e-01,9.88517e-01,6.20966e-01,9.99999e-01
7.241380036e-01,6.17645e-01,9.99999e-01,9.85334e-01,6.26838e-01,9.99999e-01
7.277586936e-01,6.24273e-01,9.99999e-01,9.86761e-01,6.32648e-01,9.99999e-01
7.313974871e-01,6.29449e-01,9.99999e-01,9.85987e-01,6.38395e-01,9.99999e-01
7.350544745e-01,6.39135e-01,9.99999e-01,9.92323e-01,6.44079e-01,9.99999e-01
7.387297469e-01,6.46031e-01,9.99999e-01,9.94351e-01,6.49701e-01,9.99999e-01
7.424233956e-01,6.53449e-01,9.99999e-01,9.97237e-01,6.55259e-01,9.99999e-01
7.461355126e-01,6.59646e-01,9.99999e-01,9.98324e-01,6.60753e-01,9.99999e-01
7.498661902e-01,6.65664e-01,9.99999e-01,9.99220e-01,6.66183e-01,9.99999e-01
7.536155211e-01,6.71293e-01,9.99999e-01,9.99616e-01,6.71550e-01,9.99999e-01
7.573835987e-01,6.76719e-01,9.99999e-01,9.99802e-01,6.76852e-01,9.99999e-01
7.611705167e-01,6.82007e-01,9.99999e-01,9.99877e-01,6.82090e-01,9.99999e-01
7.649763693e-01,6.87212e-01,9.99999e-01,9.99922e-01,6.87265e-01,9.99999e-01
7.688012511e-01,6.92338e-01,9.99999e-01,9.99946e-01,6.92375e-01,9.99999e-01
7.726452574e-01,6.97390e-01,9.99999e-01,9.99955e-01,6.97421e-01,9.99999e-01
7.765084837e-01,7.02359e-01,9.99999e-01,9.99936e-01,7.02403e-01,9.99999e-01
7.803910261e-01,6.94661e-01,9.82363e-01,9.99728e-01,7.07321e-01,9.99999e-01
7.842929812e-01,6.60633e-01,9.28485e-01,9.99051e-01,7.12175e-01,9.99999e-01
7.882144461e-01,6.60566e-01,9.23093e-01,9.98054e-01,7.16966e-01,9.99999e-01
7.921555184e-01,6.88555e-01,9.55086e-01,9.98935e-01,7.21694e-01,9.99999e-01
7.961162960e-01,7.03180e-01,9.69915e-01,9.98108e-01,7.26358e-01,9.99999e-01
8.000968774e-01,7.17387e-01,9.83570e-01,9.97822e-01,7.30960e-01,9.99999e-01
8.040973618e-01,7.27644e-01,9.91479e-01,9.97819e-01,7.35499e-01,9.99999e-01
8.081178486e-01,7.33439e-01,9.96072e-01,9.95071e-01,7.39975e-01,9.99999e-01
8.121584379e-01,7.28309e-01,9.98791e-01,9.79575e-01,7.44390e-01,9.99999e-01
8.162192301e-01,7.30498e-01,9.99732e-01,9.75890e-01,7.48743e-01,9.99999e-01
8.203003262e-01,7.43805e-01,9.99995e-01,9.87747e-01,7.53035e-01,9.99999e-01
8.244018279e-01,7.44451e-01,9.99999e-01,9.83077e-01,7.57265e-01,9.99999e-01
8.285238370e-01,7.50416e-01,9.99999e-01,9.85527e-01,7.61436e-01,9.99999e-01
8.326664562e-01,7.54362e-01,9.99999e-01,9.85391e-01,7.65546e-01,9.99999e-01
8.368297885e-01,7.61572e-01,9.99999e-01,9.89572e-01,7.69597e-01,9.99999e-01
8.410139374e-01,7.68790e-01,9.99999e-01,9.93797e-01,7.73588e-01,9.99999e-01
8.452190071e-01,7.75156e-01,9.99999e-01,9.96957e-01,7.77521e-01,9.99999e-01
8.494451021e-01,7.80014e-01,9.99999e-01,9.98231e-01,7.81395e-01,9.99999e-01
8.536923276e-01,7.84392e-01,9.99999e-01,9.98955e-01,7.85211e-01,9.99999e-01
8.579607893e-01,7.88463e-01,9.99999e-01,9.99355e-01,7.88971e-01,9.99999e-01
8.622505932e-01,7.92350e-01,9.99999e-01,9.99591e-01,7.92673e-01,9.99999e-01
8.665618462e-01,7.59060e-01,9.53445e-01,9.99746e-01,7.96319e-01,9.99999e-01
8.708946554e-01,6.60072e-01,8.25417e-01,9.99709e-01,7.99910e-01,9.99999e-01
8.752491287e-01,6.89691e-01,8.58744e-01,9.99611e-01,8.03445e-01,9.99999e-01
8.796253743e-01,7.42476e-01,9.20616e-01,9.99461e-01,8.06926e-01,9.99999e-01
8.840235012e-01,7.76027e-01,9.58226e-01,9.99385e-01,8.10352e-01,9.99999e-01
8.884436187e-01,7.98404e-01,9.83386e-01,9.97736e-01,8.13725e-01,9.99999e-01
8.928858368e-01,7.92429e-01,9.93237e-01,9.76445e-01,8.17045e-01,9.99999e-01
8.973502660e-01,7.85254e-01,9.98359e-01,9.58819e-01,8.20313e-01,9.99998e-01
9.018370173e-01,8.05954e-01,9.99818e-01,9.78833e-01,8.23528e-01,9.99998e-01
9.063462024e-01,8.07398e-01,9.95266e-01,9.81235e-01,8.26693e-01,9.99998e-01
9.108779334e-01,7.97156e-01,9.89332e-01,9.70949e-01,8.29806e-01,9.99998e-01
9.154323231e-01,8.03498e-01,9.97500e-01,9.67126e-01,8.32870e-01,9.99998e-01
9.200094847e-01,7.84303e-01,9.62497e-01,9.74168e-01,8.35884e-01,9.99998e-01
9.246095321e-01,7.63642e-01,9.48745e-01,9.59044e-01,8.38849e-01,9.99997e-01
9.292325798e-01,6.11229e-01,9.59189e-01,7.55168e-01,8.41766e-01,9.99995e-01
9.338787427e-01,5.66361e-01,9.60856e-01,6.96206e-01,8.44634e-01,9.99994e-01
9.385481364e-01,7.12277e-01,9.71142e-01,8.64697e-01,8.47456e-01,9.99994e-01
9.432408771e-01,6.80149e-01,9.82285e-01,8.13955e-01,8.50231e-01,9.99993e-01
9.479570815e-01,6.34049e-01,9.90865e-01,7.49993e-01,8.52960e-01,9.99994e-01
9.526968669e-01,6.89556e-01,9.95589e-01,8.09286e-01,8.55644e-01,9.99995e-01
9.574603512e-01,7.07689e-01,9.98113e-01,8.26047e-01,8.58283e-01,9.99996e-01
9.622476530e-01,7.37155e-01,9.99411e-01,8.56773e-01,8.60878e-01,9.99997e-01
9.670588912e-01,7.89803e-01,9.99823e-01,9.14886e-01,8.63429e-01,9.99998e-01
9.718941857e-01,8.19310e-01,9.99987e-01,9.46166e-01,8.65937e-01,9.99998e-01
9.767536566e-01,8.29427e-01,9.99999e-01,9.55117e-01,8.68403e-01,9.99999e-01
9.816374249e-01,8.41761e-01,9.99999e-01,9.66623e-01,8.70826e-01,9.99999e-01
9.865456120e-01,8.54903e-01,9.99999e-01,9.79036e-01,8.73209e-01,9.99999e-01
9.914783401e-01,8.64164e-01,9.99999e-01,9.86995e-01,8.75550e-01,9.99999e-01
9.964357318e-01,8.71619e-01,9.99999e-01,9.92899e-01,8.77852e-01,9.99999e-01
1.001417910e+00,8.76365e-01,9.99999e-01,9.95740e-01,8.80113e-01,9.99999e-01
1.006425000e+00,8.80191e-01,9.99999e-01,9.97568e-01,8.82336e-01,9.99999e-01
1.011457125e+00,8.83187e-01,9.99999e-01,9.98491e-01,8.84521e-01,9.99999e-01
1.016514411e+00,8.85759e-01,9.99999e-01,9.98975e-01,8.86667e-01,9.99999e-01
1.021596983e+00,8.88027e-01,9.99972e-01,9.99183e-01,8.88776e-01,9.99999e-01
1.026704968e+00,8.88640e-01,9.98155e-01,9.99362e-01,8.90849e-01,9.99999e-01
1.031838492e+00,8.67499e-01,9.72007e-01,9.99537e-01,8.92885e-01,9.99999e-01
1.036997685e+00,2.55977e-01,2.86111e-01,9.99724e-01,8.94885e-01,9.99999e-01
1.042182673e+00,3.06198e-01,3.41519e-01,9.99671e-01,8.96851e-01,9.99999e-01
1.047393587e+00,2.83133e-01,3.15144e-01,9.99564e-01,8.98781e-01,9.99999e-01
1.052630555e+00,4.25874e-02,4.73061e-02,9.99402e-01,9.00678e-01,9.99999e-01
1.057893707e+00,8.06397e-02,8.94177e-02,9.99001e-01,9.02541e-01,9.99999e-01
1.063183176e+00,1.56909e-01,1.73733e-01,9.98357e-01,9.04371e-01,9.99999e-01
1.068499092e+00,2.80487e-01,3.10306e-01,9.97252e-01,9.06168e-01,9.99999e-01
1.073841587e+00,4.33473e-01,4.78834e-01,9.96780e-01,9.07933e-01,9.99999e-01
1.079210795e+00,5.69390e-01,6.28401e-01,9.95883e-01,9.09667e-01,9.99999e-01
1.084606849e+00,7.03113e-01,7.76215e-01,9.93766e-01,9.11370e-01,9.99999e-01
1.090029883e+00,7.93679e-01,8.77034e-01,9.91025e-01,9.13042e-01,9.99999e-01
1.095480033e+00,8.36833e-01,9.37505e-01,9.75748e-01,9.14684e-01,9.99998e-01
1.100957433e+00,8.34565e-01,9.69425e-01,9.39379e-01,9.16297e-01,9.99998e-01
1.106462220e+00,7.72147e-01,9.87257e-01,8.51887e-01,9.17880e-01,9.99997e-01
1.111994531e+00,6.52656e-01,9.95259e-01,7.13101e-01,9.19435e-01,9.99994e-01
1.117554504e+00,5.30892e-01,9.98843e-01,5.77057e-01,9.20962e-01,9.99992e-01
1.123142276e+00,6.11766e-01,9.99923e-01,6.63228e-01,9.22461e-01,9.99991e-01
1.128757988e+00,7.12392e-01,9.99999e-01,7.71049e-01,9.23932e-01,9.99991e-01
1.134401778e+00,4.98490e-01,9.99999e-01,5.38693e-01,9.25377e-01,9.99990e-01
1.140073787e+00,7.95127e-01,9.99999e-01,8.57937e-01,9.26796e-01,9.99991e-01
1.145774156e+00,6.72320e-01,9.99999e-01,7.24340e-01,9.28189e-01,9.99993e-01
1.151503026e+00,6.47396e-01,9.99999e-01,6.96460e-01,9.29556e-01,9.99993e-01
1.157260541e+00,6.92100e-01,9.99999e-01,7.43477e-01,9.30898e-01,9.99995e-01
1.163046844e+00,7.49448e-01,9.99999e-01,8.03944e-01,9.32216e-01,9.99996e-01
1.168862078e+00,8.02929e-01,9.99999e-01,8.60119e-01,9.33509e-01,9.99998e-01
1.174706389e+00,8.51792e-01,9.99999e-01,9.11223e-01,9.34779e-01,9.99998e-01
1.180579921e+00,8.84574e-01,9.99999e-01,9.45032e-01,9.36025e-01,9.99999e-01
1.186482820e+00,9.07809e-01,9.99995e-01,9.68593e-01,9.37248e-01,9.99999e-01
1.192415234e+00,9.15057e-01,9.93358e-01,9.81557e-01,9.38448e-01,9.99999e-01
1.198377311e+00,5.42253e-01,5.84761e-01,9.84419e-01,9.39627e-01,9.99999e-01
1.204369197e+00,1.33031e-06,1.42622e-06,9.85247e-01,9.40783e-01,9.99999e-01
1.210391043e+00,6.04846e-21,6.47222e-21,9.85895e-01,9.41918e-01,9.99999e-01
1.216442998e+00,2.24399e-18,2.39740e-18,9.88001e-01,9.43032e-01,9.99999e-01
1.222525213e+00,4.14385e-18,4.41072e-18,9.90647e-01,9.44125e-01,9.99999e-01
1.228637839e+00,6.23798e-14,6.63042e-14,9.93496e-01,9.45198e-01,9.99999e-01
1.234781029e+00,1.14897e-09,1.21685e-09,9.95169e-01,9.46251e-01,9.99999e-01
1.240954934e+00,1.47837e-06,1.56385e-06,9.96942e-01,9.47284e-01,9.99999e-01
1.247159708e+00,5.23304e-04,5.52774e-04,9.97619e-01,9.48298e-01,9.99999e-01
1.253395507e+00,1.52056e-02,1.60455e-02,9.97885e-01,9.49293e-01,9.99999e-01
1.259662485e+00,9.09135e-02,9.58397e-02,9.97988e-01,9.50269e-01,9.99999e-01
1.265960797e+00,2.43885e-01,2.57125e-01,9.96790e-01,9.51227e-01,9.99999e-01
1.272290601e+00,5.42795e-01,5.72824e-01,9.94953e-01,9.52167e-01,9.99999e-01
1.278652054e+00,4.77129e-01,5.05008e-01,9.89983e-01,9.53089e-01,9.99999e-01
1.285045314e+00,2.85296e-02,3.01880e-02,9.81875e-01,9.53994e-01,9.99999e-01
1.291470541e+00,3.74238e-03,4.01302e-03,9.68616e-01,9.54882e-01,9.99998e-01
1.297927893e+00,6.40246e-02,6.90523e-02,9.55597e-01,9.55753e-01,9.99998e-01
1.304417533e+00,3.31285e-01,3.64295e-01,9.47853e-01,9.56608e-01,9.99997e-01
1.310939621e+00,9.37639e-02,1.01792e-01,9.40332e-01,9.57447e-01,9.99996e-01
1.317494319e+00,1.18650e-07,1.29199e-07,9.35689e-01,9.58269e-01,9.99993e-01
1.324081790e+00,1.14637e-05,1.25989e-05,9.04852e-01,9.59076e-01,9.99990e-01
1.330702199e+00,1.87109e-03,2.51395e-03,6.47131e-01,9.59868e-01,9.99983e-01
1.337355710e+00,8.69597e-04,1.81161e-03,3.45502e-01,9.60645e-01,9.99969e-01
1.344042489e+00,1.49318e-04,6.14567e-04,5.55574e-02,9.61407e-01,9.99934e-01
1.350762701e+00,1.37104e-05,1.94411e-03,3.48209e-03,9.62155e-01,9.99896e-01
1.357516515e+00,1.75706e-05,1.64262e-02,5.54116e-04,9.62888e-01,9.99871e-01
1.364304097e+00,6.45344e-04,7.74901e-02,6.24919e-03,9.63608e-01,9.99862e-01
1.371125618e+00,1.04448e-02,2.58957e-01,3.37182e-02,9.64314e-01,9.99861e-01
1.377981246e+00,1.97378e-02,3.39583e-01,5.48484e-02,9.65006e-01,9.99851e-01
1.384871152e+00,2.95798e-03,5.33416e-01,5.21662e-03,9.65685e-01,9.99855e-01
1.391795508e+00,4.98527e-03,5.59788e-01,8.48056e-03,9.66352e-01,9.99877e-01
1.398754485e+00,1.11849e-02,7.00040e-01,1.60705e-02,9.67005e-01,9.99894e-01
1.405748258e+00,1.15744e-02,7.68645e-01,1.49424e-02,9.67646e-01,9.99905e-01
1.412776999e+00,1.43863e-02,8.47207e-01,1.71312e-02,9.68275e-01,9.99923e-01
1.419840884e+00,1.85690e-02,7.83342e-01,2.17102e-02,9.68892e-01,9.99943e-01
1.426940089e+00,1.35936e-02,1.04750e-01,5.11419e-02,9.69497e-01,9.99964e-01
1.434074789e+00,2.64836e-295,1.02756e-294,1.02002e-01,9.70090e-01,9.99977e-01
1.441245163e+00,0.00000e+00,0.00000e+00,1.84759e-01,9.70672e-01,9.99982e-01
1.448451389e+00,0.00000e+00,0.00000e+00,2.97170e-01,9.71243e-01,9.99985e-01
1.455693646e+00,3.61522e-160,5.50552e-160,4.59144e-01,9.71803e-01,9.99987e-01
1.462972114e+00,2.72305e-78,4.14455e-78,5.14103e-01,9.72352e-01,9.99989e-01
1.470286975e+00,1.19189e-33,1.87130e-33,4.58825e-01,9.72891e-01,9.99990e-01
