#,Wave/freq,Total,CO2,H2O,Rayleigh,CIA
4.000000000e-01,2.44120e-03,9.99999e-01,9.99987e-01,2.44122e-03,9.99999e-01
4.020000000e-01,2.74953e-03,9.99999e-01,9.99992e-01,2.74954e-03,9.99999e-01
4.040100000e-01,3.08916e-03,9.99999e-01,9.99996e-01,3.08917e-03,9.99999e-01
4.060300500e-01,3.46277e-03,9.99999e-01,9.99998e-01,3.46277e-03,9.99999e-01
4.080602003e-01,3.87281e-03,9.99999e-01,9.99999e-01,3.87281e-03,9.99999e-01
4.101005013e-01,4.32184e-03,9.99999e-01,9.99999e-01,4.32184e-03,9.99999e-01
4.121510038e-01,4.81249e-03,9.99999e-01,9.99999e-01,4.81249e-03,9.99999e-01
4.142117588e-01,5.34746e-03,9.99999e-01,9.99996e-01,5.34748e-03,9.99999e-01
4.162828176e-01,5.92949e-03,9.99999e-01,9.99984e-01,5.92957e-03,9.99999e-01
4.183642317e-01,6.56157e-03,9.99999e-01,9.99990e-01,6.56163e-03,9.99999e-01
4.204560528e-01,7.24651e-03,9.99999e-01,9.99994e-01,7.24655e-03,9.99999e-01
4.225583331e-01,7.98727e-03,9.99999e-01,9.99997e-01,7.98728e-03,9.99999e-01
4.246711247e-01,8.78681e-03,9.99999e-01,9.99997e-01,8.78682e-03,9.99999e-01
4.267944804e-01,9.64817e-03,9.99999e-01,9.99997e-01,9.64820e-03,9.99999e-01
4.289284528e-01,1.05744e-02,9.99999e-01,9.99997e-01,1.05745e-02,9.99999e-01
4.310730950e-01,1.15687e-02,9.99999e-01,9.99998e-01,1.15687e-02,9.99999e-01
4.332284605e-01,1.26339e-02,9.99999e-01,9.99999e-01,1.26339e-02,9.99999e-01
4.353946028e-01,1.37733e-02,9.99999e-01,9.99999e-01,1.37733e-02,9.99999e-01
4.375715758e-01,1.49898e-02,9.99999e-01,9.99998e-01,1.49898e-02,9.99999e-01
4.397594337e-01,1.62864e-02,9.99999e-01,9.99986e-01,1.62866e-02,9.99999e-01
4.419582309e-01,1.76653e-02,9.99999e-01,9.99933e-01,1.76665e-02,9.99999e-01
4.441680220e-01,1.91316e-02,9.99999e-01,9.99949e-01,1.91326e-02,9.99999e-01
4.463888621e-01,2.06866e-02,9.99999e-01,9.99946e-01,2.06877e-02,9.99999e-01
4.486208064e-01,2.23340e-02,9.99999e-01,9.99966e-01,2.23348e-02,9.99999e-01
4.508639105e-01,2.40761e-02,9.99999e-01,9.99984e-01,2.40765e-02,9.99999e-01
4.531182300e-01,2.59154e-02,9.99999e-01,9.99993e-01,2.59156e-02,9.99999e-01
4.553838212e-01,2.78545e-02,9.99999e-01,9.99995e-01,2.78546e-02,9.99999e-01
4.576607403e-01,2.98960e-02,9.99999e-01,9.99997e-01,2.98961e-02,9.99999e-01
4.599490440e-01,3.20423e-02,9.99999e-01,9.99998e-01,3.20423e-02,9.99999e-01
4.622487892e-01,3.42957e-02,9.99999e-01,9.99999e-01,3.42957e-02,9.99999e-01
4.645600332e-01,3.66583e-02,9.99999e-01,9.99998e-01,3.66583e-02,9.99999e-01
4.668828333e-01,3.91315e-02,9.99999e-01,9.99983e-01,3.91322e-02,9.99999e-01
4.692172475e-01,4.17177e-02,9.99999e-01,9.99966e-01,4.17191e-02,9.99999e-01
4.715633337e-01,4.44198e-02,9.99999e-01,9.99977e-01,4.44208e-02,9.99999e-01
4.739211504e-01,4.72379e-02,9.99999e-01,9.99978e-01,4.72389e-02,9.99999e-01
4.762907561e-01,5.01743e-02,9.99999e-01,9.99988e-01,5.01748e-02,9.99999e-01
4.786722099e-01,5.32295e-02,9.99999e-01,9.99995e-01,5.32298e-02,9.99999e-01
4.810655710e-01,5.64047e-02,9.99999e-01,9.99998e-01,5.64048e-02,9.99999e-01
4.834708988e-01,5.97001e-02,9.99999e-01,9.99986e-01,5.97009e-02,9.99999e-01
4.858882533e-01,6.31172e-02,9.99999e-01,9.99976e-01,6.31187e-02,9.99999e-01
4.883176946e-01,6.66576e-02,9.99999e-01,9.99979e-01,6.66589e-02,9.99999e-01
4.907592831e-01,7.03205e-02,9.99999e-01,9.99981e-01,7.03217e-02,9.99999e-01
4.932130795e-01,7.41066e-02,9.99999e-01,9.99986e-01,7.41075e-02,9.99999e-01
4.956791449e-01,7.80158e-02,9.99999e-01,9.99992e-01,7.80163e-02,9.99999e-01
4.981575406e-01,8.20452e-02,9.99999e-01,9.99966e-01,8.20479e-02,9.99999e-01
5.006483283e-01,8.61945e-02,9.99999e-01,9.99912e-01,8.62020e-02,9.99999e-01
5.031515699e-01,9.04384e-02,9.99999e-01,9.99560e-01,9.04781e-02,9.99999e-01
5.056673278e-01,9.48537e-02,9.99999e-01,9.99768e-01,9.48756e-02,9.99999e-01
5.081956644e-01,9.93646e-02,9.99999e-01,9.99708e-01,9.93935e-02,9.99999e-01
5.107366428e-01,1.04011e-01,9.99999e-01,9.99803e-01,1.04031e-01,9.99999e-01
5.132903260e-01,1.08775e-01,9.99999e-01,9.99887e-01,1.08787e-01,9.99999e-01
5.158567776e-01,1.13654e-01,9.99999e-01,9.99952e-01,1.13660e-01,9.99999e-01
5.184360615e-01,1.18646e-01,9.99999e-01,9.99980e-01,1.18648e-01,9.99999e-01
5.210282418e-01,1.23749e-01,9.99999e-01,9.99992e-01,1.23750e-01,9.99999e-01
5.236333830e-01,1.28961e-01,9.99999e-01,9.99970e-01,1.28965e-01,9.99999e-01
5.262515499e-01,1.34287e-01,9.99999e-01,9.99981e-01,1.34289e-01,9.99999e-01
5.288828077e-01,1.39720e-01,9.99999e-01,9.99983e-01,1.39722e-01,9.99999e-01
5.315272217e-01,1.45258e-01,9.99999e-01,9.99985e-01,1.45260e-01,9.99999e-01
5.341848578e-01,1.50901e-01,9.99999e-01,9.99990e-01,1.50903e-01,9.99999e-01
5.368557821e-01,1.56641e-01,9.99999e-01,9.99966e-01,1.56646e-01,9.99999e-01
5.395400610e-01,1.62469e-01,9.99999e-01,9.99878e-01,1.62488e-01,9.99999e-01
5.422377613e-01,1.68400e-01,9.99999e-01,9.99845e-01,1.68426e-01,9.99999e-01
5.449489501e-01,1.74433e-01,9.99999e-01,9.99854e-01,1.74458e-01,9.99999e-01
5.476736949e-01,1.80557e-01,9.99999e-01,9.99872e-01,1.80580e-01,9.99999e-01
5.504120634e-01,1.86772e-01,9.99999e-01,9.99907e-01,1.86789e-01,9.99999e-01
5.531641237e-01,1.93074e-01,9.99999e-01,9.99953e-01,1.93083e-01,9.99999e-01
5.559299443e-01,1.99454e-01,9.99999e-01,9.99977e-01,1.99459e-01,9.99999e-01
5.587095940e-01,2.05909e-01,9.99999e-01,9.99985e-01,2.05912e-01,9.99999e-01
5.615031420e-01,2.12438e-01,9.99999e-01,9.99983e-01,2.12441e-01,9.99999e-01
5.643106577e-01,2.19038e-01,9.99999e-01,9.99981e-01,2.19042e-01,9.99999e-01
5.671322110e-01,2.25662e-01,9.99999e-01,9.99778e-01,2.25711e-01,9.99999e-01
5.699678720e-01,2.32393e-01,9.99999e-01,9.99771e-01,2.32446e-01,9.99999e-01
5.728177114e-01,2.39185e-01,9.99999e-01,9.99759e-01,2.39243e-01,9.99999e-01
5.756818000e-01,2.46044e-01,9.99999e-01,9.99779e-01,2.46098e-01,9.99999e-01
5.785602090e-01,2.52960e-01,9.99999e-01,9.99808e-01,2.53009e-01,9.99999e-01
5.814530100e-01,2.59921e-01,9.99999e-01,9.99806e-01,2.59971e-01,9.99999e-01
5.843602750e-01,2.66920e-01,9.99999e-01,9.99768e-01,2.66982e-01,9.99999e-01
5.872820764e-01,2.73491e-01,9.99999e-01,9.98004e-01,2.74038e-01,9.99999e-01
5.902184868e-01,2.80462e-01,9.99999e-01,9.97605e-01,2.81135e-01,9.99999e-01
5.931695792e-01,2.87781e-01,9.99999e-01,9.98302e-01,2.88271e-01,9.99999e-01
5.961354271e-01,2.94893e-01,9.99999e-01,9.98143e-01,2.95441e-01,9.99999e-01
5.991161043e-01,3.02234e-01,9.99999e-01,9.98647e-01,3.02643e-01,9.99999e-01
6.021116848e-01,3.09635e-01,9.99999e-01,9.99233e-01,3.09872e-01,9.99999e-01
6.051222432e-01,3.17004e-01,9.99999e-01,9.99612e-01,3.17127e-01,9.99999e-01
6.081478544e-01,3.24349e-01,9.99999e-01,9.99832e-01,3.24403e-01,9.99999e-01
6.111885937e-01,3.31674e-01,9.99999e-01,9.99928e-01,3.31698e-01,9.99999e-01
6.142445367e-01,3.38997e-01,9.99999e-01,9.99967e-01,3.39007e-01,9.99999e-01
6.173157594e-01,3.46323e-01,9.99999e-01,9.99982e-01,3.46329e-01,9.99999e-01
6.204023382e-01,3.53654e-01,9.99999e-01,9.99984e-01,3.53659e-01,9.99999e-01
6.235043498e-01,3.60971e-01,9.99999e-01,9.99933e-01,3.60995e-01,9.99999e-01
6.266218716e-01,3.68207e-01,9.99999e-01,9.99654e-01,3.68334e-01,9.99999e-01
6.297549810e-01,3.75625e-01,9.99999e-01,9.99872e-01,3.75673e-01,9.99999e-01
6.329037559e-01,3.82913e-01,9.99999e-01,9.99750e-01,3.83008e-01,9.99999e-01
6.360682746e-01,3.90255e-01,9.99999e-01,9.99786e-01,3.90338e-01,9.99999e-01
6.392486160e-01,3.97549e-01,9.99999e-01,9.99723e-01,3.97659e-01,9.99999e-01
6.424448591e-01,4.04818e-01,9.99999e-01,9.99627e-01,4.04969e-01,9.99999e-01
6.456570834e-01,4.11551e-01,9.99999e-01,9.98270e-01,4.12264e-01,9.99999e-01
6.488853688e-01,4.19018e-01,9.99999e-01,9.98747e-01,4.19544e-01,9.99999e-01
6.521297956e-01,4.26259e-01,9.99999e-01,9.98722e-01,4.26804e-01,9.99999e-01
6.553904446e-01,4.33488e-01,9.99999e-01,9.98723e-01,4.34042e-01,9.99999e-01
6.586673968e-01,4.40777e-01,9.99999e-01,9.98911e-01,4.41257e-01,9.99999e-01
6.619607338e-01,4.48174e-01,9.99999e-01,9.99393e-01,4.48446e-01,9.99999e-01
6.652705375e-01,4.55440e-01,9.99999e-01,9.99635e-01,4.55606e-01,9.99999e-01
6.685968902e-01,4.62664e-01,9.99999e-01,9.99845e-01,4.62736e-01,9.99999e-01
6.719398746e-01,4.69796e-01,9.99999e-01,9.99921e-01,4.69833e-01,9.99999e-01
6.752995740e-01,4.76876e-01,9.99999e-01,9.99958e-01,4.76896e-01,9.99999e-01
6.786760719e-01,4.83892e-01,9.99999e-01,9.99937e-01,4.83922e-01,9.99999e-01
6.820694522e-01,4.90858e-01,9.99999e-01,9.99893e-01,4.90910e-01,9.99999e-01
6.854797995e-01,4.97790e-01,9.99999e-01,9.99863e-01,4.97858e-01,9.99999e-01
6.889071985e-01,5.04595e-01,9.99999e-01,9.99665e-01,5.04764e-01,9.99999e-01
6.923517345e-01,5.08863e-01,9.99999e-01,9.94597e-01,5.11627e-01,9.99999e-01
6.958134932e-01,5.17016e-01,9.99999e-01,9.97245e-01,5.18444e-01,9.99999e-01
6.992925606e-01,5.23813e-01,9.99999e-01,9.97330e-01,5.25215e-01,9.99999e-01
7.027890234e-01,5.30200e-01,9.99999e-01,9.96730e-01,5.31938e-01,9.99999e-01
7.063029686e-01,5.37131e-01,9.99999e-01,9.97249e-01,5.38612e-01,9.99999e-01
7.098344834e-01,5.43797e-01,9.99999e-01,9.97360e-01,5.45236e-01,9.99999e-01
7.133836558e-01,5.49842e-01,9.99999e-01,9.96437e-01,5.51807e-01,9.99999e-01
7.169505741e-01,5.42552e-01,9.99999e-01,9.71747e-01,5.58326e-01,9.99999e-01
7.205353270e-01,5.57080e-01,9.99999e-01,9.86348e-01,5.64790e-01,9.99999e-01
7.241380036e-01,5.61159e-01,9.99999e-01,9.82421e-01,5.71200e-01,9.99999e-01
7.277586936e-01,5.68393e-01,9.99999e-01,9.84138e-01,5.77553e-01,9.99999e-01
7.313974871e-01,5.74080e-01,9.99999e-01,9.83265e-01,5.83850e-01,9.99999e-01
7.350544745e-01,5.84670e-01,9.99999e-01,9.90817e-01,5.90089e-01,9.99999e-01
7.387297469e-01,5.92241e-01,9.99999e-01,9.93244e-01,5.96269e-01,9.99999e-01
7.424233956e-01,6.00402e-01,9.99999e-01,9.96698e-01,6.02390e-01,9.99999e-01
7.461355126e-01,6.07232e-01,9.99999e-01,9.97995e-01,6.08451e-01,9.99999e-01
7.498661902e-01,6.13880e-01,9.99999e-01,9.99068e-01,6.14452e-01,9.99999e-01
7.536155211e-01,6.20107e-01,9.99999e-01,9.99541e-01,6.20391e-01,9.99999e-01
7.573835987e-01,6.26122e-01,9.99999e-01,9.99764e-01,6.26269e-01,9.99999e-01
7.611705167e-01,6.31993e-01,9.99999e-01,9.99853e-01,6.32085e-01,9.99999e-01
7.649763693e-01,6.37780e-01,9.99999e-01,9.99907e-01,6.37839e-01,9.99999e-01
7.688012511e-01,6.43488e-01,9.99999e-01,9.99935e-01,6.43529e-01,9.99999e-01
7.726452574e-01,6.49122e-01,9.99999e-01,9.99946e-01,6.49157e-01,9.99999e-01
7.765084837e-01,6.54671e-01,9.99999e-01,9.99924e-01,6.54721e-01,9.99999e-01
7.803910261e-01,6.45912e-01,9.78639e-01,9.99672e-01,6.60221e-01,9.99999e-01
7.842929812e-01,6.08648e-01,9.15370e-01,9.98857e-01,6.65658e-01,9.99999e-01
7.882144461e-01,6.08436e-01,9.08786e-01,9.97668e-01,6.71030e-01,9.99999e-01
7.921555184e-01,6.39274e-01,9.46385e-01,9.98727e-01,6.76339e-01,9.99999e-01
7.961162960e-01,6.55665e-01,9.64154e-01,9.97725e-01,6.81583e-01,9.99999e-01
8.000968774e-01,6.71532e-01,9.80375e-01,9.97388e-01,6.86764e-01,9.99999e-01
8.040973618e-01,6.83056e-01,9.89832e-01,9.97384e-01,6.91880e-01,9.99999e-01
8.081178486e-01,6.89549e-01,9.95302e-01,9.94069e-01,6.96932e-01,9.99999e-01
8.121584379e-01,6.83741e-01,9.98561e-01,9.75494e-01,7.01921e-01,9.99999e-01
8.162192301e-01,6.86297e-01,9.99681e-01,9.71234e-01,7.06845e-01,9.99999e-01
8.203003262e-01,7.01198e-01,9.99995e-01,9.85240e-01,7.11706e-01,9.99999e-01
8.244018279e-01,7.02102e-01,9.99999e-01,9.79901e-01,7.16503e-01,9.99999e-01
8.285238370e-01,7.08727e-01,9.99999e-01,9.82655e-01,7.21236e-01,9.99999e-01
8.326664562e-01,7.13226e-01,9.99999e-01,9.82530e-01,7.25907e-01,9.99999e-01
8.368297885e-01,7.21409e-01,9.99999e-01,9.87534e-01,7.30515e-01,9.99999e-01
8.410139374e-01,7.29608e-01,9.99999e-01,9.92583e-01,7.35060e-01,9.99999e-01
8.452190071e-01,7.36853e-01,9.99999e-01,9.96363e-01,7.39542e-01,9.99999e-01
8.494451021e-01,7.42387e-01,9.99999e-01,9.97881e-01,7.43963e-01,9.99999e-01
8.536923276e-01,7.47388e-01,9.99999e-01,9.98751e-01,7.48322e-01,9.99999e-01
8.579607893e-01,7.52039e-01,9.99999e-01,9.99228e-01,7.52620e-01,9.99999e-01
8.622505932e-01,7.56487e-01,9.99999e-01,9.99510e-01,7.56856e-01,9.99999e-01
8.665618462e-01,7.19656e-01,9.45909e-01,9.99696e-01,7.61033e-01,9.99999e-01
8.708946554e-01,6.08633e-01,7.95714e-01,9.99651e-01,7.65149e-01,9.99999e-01
8.752491287e-01,6.41234e-01,8.34012e-01,9.99534e-01,7.69205e-01,9.99999e-01
8.796253743e-01,7.00053e-01,9.05969e-01,9.99353e-01,7.73202e-01,9.99999e-01
8.840235012e-01,7.37963e-01,9.50282e-01,9.99261e-01,7.77140e-01,9.99999e-01
8.884436187e-01,7.63483e-01,9.80218e-01,9.97257e-01,7.81020e-01,9.99999e-01
8.928858368e-01,7.56527e-01,9.91929e-01,9.71724e-01,7.84843e-01,9.99999e-01
8.973502660e-01,7.48437e-01,9.98045e-01,9.50897e-01,7.88607e-01,9.99998e-01
9.018370173e-01,7.72206e-01,9.99784e-01,9.74824e-01,7.92315e-01,9.99998e-01
9.063462024e-01,7.73666e-01,9.94276e-01,9.77475e-01,7.95967e-01,9.99998e-01
9.108779334e-01,7.62020e-01,9.87256e-01,9.65258e-01,7.99563e-01,9.99998e-01
9.154323231e-01,7.69306e-01,9.97027e-01,9.60736e-01,8.03104e-01,9.99998e-01
9.200094847e-01,7.47456e-01,9.55214e-01,9.69169e-01,8.06590e-01,9.99998e-01
9.246095321e-01,7.23651e-01,9.39003e-01,9.50724e-01,8.10021e-01,9.99997e-01
9.292325798e-01,5.54795e-01,9.51165e-01,7.14604e-01,8.13399e-01,9.99994e-01
9.338787427e-01,5.07746e-01,9.53365e-01,6.49959e-01,8.16724e-01,9.99993e-01
9.385481364e-01,6.66859e-01,9.65559e-01,8.41204e-01,8.19997e-01,9.99993e-01
9.432408771e-01,6.30947e-01,9.78852e-01,7.82417e-01,8.23218e-01,9.99992e-01
9.479570815e-01,5.80987e-01,9.89075e-01,7.10529e-01,8.26387e-01,9.99993e-01
9.526968669e-01,6.42061e-01,9.94729e-01,7.77897e-01,8.29506e-01,9.99994e-01
9.574603512e-01,6.61232e-01,9.97745e-01,7.95926e-01,8.32574e-01,9.99996e-01
9.622476530e-01,6.94310e-01,9.99297e-01,8.31484e-01,8.35593e-01,9.99997e-01
9.670588912e-01,7.53808e-01,9.99789e-01,8.99113e-01,8.38562e-01,9.99998e-01
9.718941857e-01,7.87504e-01,9.99985e-01,9.35865e-01,8.41484e-01,9.99998e-01
9.767536566e-01,7.99157e-01,9.99999e-01,9.46467e-01,8.44357e-01,9.99998e-01
9.816374249e-01,8.13455e-01,9.99999e-01,9.60186e-01,8.47184e-01,9.99999e-01
9.865456120e-01,8.28682e-01,9.99999e-01,9.74962e-01,8.49963e-01,9.99999e-01
9.914783401e-01,8.39438e-01,9.99999e-01,9.84450e-01,8.52697e-01,9.99999e-01
9.964357318e-01,8.48120e-01,9.99999e-01,9.91505e-01,8.55385e-01,9.99999e-01
1.001417910e+00,8.53657e-01,9.99999e-01,9.94904e-01,8.58028e-01,9.99999e-01
1.006425000e+00,8.58120e-01,9.99999e-01,9.97086e-01,8.60627e-01,9.99999e-01
1.011457125e+00,8.61625e-01,9.99999e-01,9.98195e-01,8.63183e-01,9.99999e-01
1.016514411e+00,8.64633e-01,9.99999e-01,9.98772e-01,8.65695e-01,9.99999e-01
1.021596983e+00,8.67286e-01,9.99965e-01,9.99021e-01,8.68164e-01,9.99999e-01
1.026704968e+00,8.67982e-01,9.97762e-01,9.99236e-01,8.70592e-01,9.99999e-01
1.031838492e+00,8.43667e-01,9.66944e-01,9.99445e-01,8.72979e-01,9.99999e-01
1.036997685e+00,2.14787e-01,2.45447e-01,9.99670e-01,8.75324e-01,9.99999e-01
1.042182673e+00,2.45356e-01,2.79668e-01,9.99605e-01,8.77629e-01,9.99999e-01
1.047393587e+00,2.34699e-01,2.66860e-01,9.99477e-01,8.79895e-01,9.99999e-01
1.052630555e+00,2.53602e-02,2.87651e-02,9.99282e-01,8.82122e-01,9.99999e-01
1.057893707e+00,5.16535e-02,5.84644e-02,9.98800e-01,8.84310e-01,9.99999e-01
1.063183176e+00,1.11914e-01,1.26445e-01,9.98028e-01,8.86460e-01,9.99999e-01
1.068499092e+00,2.19088e-01,2.47290e-01,9.96704e-01,8.88573e-01,9.99999e-01
1.073841587e+00,3.68908e-01,4.15647e-01,9.96135e-01,8.90649e-01,9.99999e-01
1.079210795e+00,5.10224e-01,5.74238e-01,9.95067e-01,8.92688e-01,9.99999e-01
1.084606849e+00,6.56194e-01,7.38800e-01,9.92526e-01,8.94692e-01,9.99999e-01
1.090029883e+00,7.58250e-01,8.54714e-01,9.89206e-01,8.96661e-01,9.99999e-01
1.095480033e+00,8.07818e-01,9.25737e-01,9.70913e-01,8.98595e-01,9.99998e-01
1.100957433e+00,8.05035e-01,9.63529e-01,9.27620e-01,9.00495e-01,9.99998e-01
1.106462220e+00,7.33273e-01,9.84785e-01,8.24894e-01,9.02361e-01,9.99996e-01
1.111994531e+00,6.00284e-01,9.94334e-01,6.67505e-01,9.04194e-01,9.99993e-01
1.117554504e+00,4.69680e-01,9.98621e-01,5.19048e-01,9.05994e-01,9.99991e-01
1.123142276e+00,5.58223e-01,9.99909e-01,6.14985e-01,9.07763e-01,9.99990e-01
1.128757988e+00,6.67167e-01,9.99999e-01,7.33561e-01,9.09500e-01,9.99989e-01
1.134401778e+00,4.45740e-01,9.99999e-01,4.89182e-01,9.11205e-01,9.99988e-01
1.140073787e+00,7.59899e-01,9.99999e-01,8.32426e-01,9.12880e-01,9.99990e-01
1.145774156e+00,6.22870e-01,9.99999e-01,6.81090e-01,9.14526e-01,9.99991e-01
1.151503026e+00,5.95822e-01,9.99999e-01,6.50364e-01,9.16141e-01,9.99992e-01
1.157260541e+00,6.43986e-01,9.99999e-01,7.01721e-01,9.17727e-01,9.99994e-01
1.163046844e+00,7.08318e-01,9.99999e-01,7.70512e-01,9.19285e-01,9.99996e-01
1.168862078e+00,7.68909e-01,9.99999e-01,8.35032e-01,9.20814e-01,9.99997e-01
1.174706389e+00,8.25207e-01,9.99999e-01,8.94712e-01,9.22316e-01,9.99998e-01
1.180579921e+00,8.63355e-01,9.99999e-01,9.34578e-01,9.23790e-01,9.99998e-01
1.186482820e+00,8.90543e-01,9.99994e-01,9.62506e-01,9.25238e-01,9.99999e-01
1.192415234e+00,8.98961e-01,9.91939e-01,9.77940e-01,9.26659e-01,9.99999e-01
1.198377311e+00,5.26631e-01,5.76484e-01,9.81342e-01,9.28054e-01,9.99999e-01
1.204369197e+00,1.80185e-07,1.95870e-07,9.82342e-01,9.29424e-01,9.99999e-01
1.210391043e+00,1.14570e-24,1.24260e-24,9.83117e-01,9.30769e-01,9.99999e-01
1.216442998e+00,1.36656e-21,1.47931e-21,9.85650e-01,9.32089e-01,9.99999e-01
1.222525213e+00,2.76511e-21,2.97980e-21,9.88806e-01,9.33384e-01,9.99999e-01
1.228637839e+00,2.02305e-16,2.17649e-16,9.92210e-01,9.34656e-01,9.99999e-01
1.234781029e+00,3.67813e-11,3.94000e-11,9.94217e-01,9.35905e-01,9.99999e-01
1.240954934e+00,1.48009e-07,1.58325e-07,9.96337e-01,9.37130e-01,9.99999e-01
1.247159708e+00,1.49646e-04,1.59790e-04,9.97149e-01,9.38333e-01,9.99999e-01
1.253395507e+00,7.09677e-03,7.56898e-03,9.97465e-01,9.39513e-01,9.99999e-01
1.259662485e+00,5.82104e-02,6.20100e-02,9.97586e-01,9.40672e-01,9.99999e-01
1.265960797e+00,1.87758e-01,2.00029e-01,9.96154e-01,9.41809e-01,9.99999e-01
1.272290601e+00,4.82283e-01,5.14426e-01,9.93943e-01,9.42925e-01,9.99999e-01
1.278652054e+00,4.16901e-01,4.46183e-01,9.87989e-01,9.44020e-01,9.99999e-01
1.285045314e+00,1.88654e-02,2.01725e-02,9.78278e-01,9.45095e-01,9.99999e-01
1.291470541e+00,1.33454e-03,1.44973e-03,9.62442e-01,9.46149e-01,9.99998e-01
1.297927893e+00,4.21458e-02,4.60499e-02,9.46963e-01,9.47184e-01,9.99998e-01
1.304417533e+00,2.66894e-01,2.98889e-01,9.37837e-01,9.48200e-01,9.99997e-01
1.310939621e+00,4.87713e-02,5.37491e-02,9.22037e-01,9.49197e-01,9.99995e-01
1.317494319e+00,5.51869e-09,6.10676e-09,9.23473e-01,9.50175e-01,9.99992e-01
1.324081790e+00,1.98293e-05,2.20300e-05,8.89070e-01,9.51135e-01,9.99988e-01
1.330702199e+00,5.79592e-04,8.13621e-04,5.98323e-01,9.52076e-01,9.99980e-01
1.337355710e+00,2.74476e-04,6.50040e-04,2.84026e-01,9.53000e-01,9.99963e-01
1.344042489e+00,4.43442e-05,1.97321e-04,3.54291e-02,9.53907e-01,9.99922e-01
1.350762701e+00,1.94740e-06,6.01818e-04,1.38161e-03,9.54796e-01,9.99875e-01
1.357516515e+00,2.55307e-06,7.84797e-03,1.44358e-04,9.55669e-01,9.99846e-01
1.364304097e+00,1.86449e-04,4.73208e-02,2.76160e-03,9.56526e-01,9.99835e-01
1.371125618e+00,4.82105e-03,2.00929e-01,1.91712e-02,9.57366e-01,9.99834e-01
1.377981246e+00,1.00552e-02,2.74566e-01,3.38067e-02,9.58190e-01,9.99821e-01
1.384871152e+00,1.22302e-03,4.71597e-01,2.39598e-03,9.58999e-01,9.99826e-01
1.391795508e+00,2.00675e-03,4.99587e-01,3.75278e-03,9.59792e-01,9.99853e-01
1.398754485e+00,5.49246e-03,6.52491e-01,8.46446e-03,9.60570e-01,9.99873e-01
1.405748258e+00,5.60916e-03,7.30038e-01,7.60055e-03,9.61334e-01,9.99886e-01
1.412776999e+00,7.06013e-03,8.20097e-01,8.67484e-03,9.62083e-01,9.99908e-01
1.419840884e+00,9.65878e-03,7.49427e-01,1.16146e-02,9.62818e-01,9.99931e-01
1.426940089e+00,8.43141e-03,9.26073e-02,3.10941e-02,9.63539e-01,9.99957e-01
1.434074789e+00,0.00000e+00,0.00000e+00,7.00802e-02,9.64246e-01,9.99973e-01
1.441245163e+00,0.00000e+00,0.00000e+00,1.36008e-01,9.64939e-01,9.99979e-01
1.448451389e+00,0.00000e+00,0.00000e+00,2.39711e-01,9.65620e-01,9.99982e-01
1.455693646e+00,1.30063e-191,2.15371e-191,3.97362e-01,9.66287e-01,9.99985e-01
1.462972114e+00,1.96756e-93,3.25587e-93,4.52479e-01,9.66942e-01,9.99987e-01
1.470286975e+00,6.63756e-40,1.13963e-39,3.95716e-01,9.67584e-01,9.99988e-01
