#,Wave/freq,Total,CO2,H2O,Rayleigh,CIA
4.000000000e-01,3.74764e-14,9.99999e-01,9.99939e-01,3.74786e-14,9.99999e-01
4.020000000e-01,6.90630e-14,9.99999e-01,9.99961e-01,6.90656e-14,9.99999e-01
4.040100000e-01,1.25664e-13,9.99999e-01,9.99983e-01,1.25666e-13,9.99999e-01
4.060300500e-01,2.25964e-13,9.99999e-01,9.99995e-01,2.25965e-13,9.99999e-01
4.080602003e-01,4.01634e-13,9.99999e-01,9.99998e-01,4.01634e-13,9.99999e-01
4.101005013e-01,7.05806e-13,9.99999e-01,9.99999e-01,7.05806e-13,9.99999e-01
4.121510038e-01,1.22660e-12,9.99999e-01,9.99997e-01,1.22660e-12,9.99999e-01
4.142117588e-01,2.10850e-12,9.99999e-01,9.99983e-01,2.10854e-12,9.99999e-01
4.162828176e-01,3.58575e-12,9.99999e-01,9.99924e-01,3.58601e-12,9.99999e-01
4.183642317e-01,6.03486e-12,9.99999e-01,9.99954e-01,6.03513e-12,9.99999e-01
4.204560528e-01,1.00527e-11,9.99999e-01,9.99972e-01,1.00530e-11,9.99999e-01
4.225583331e-01,1.65777e-11,9.99999e-01,9.99989e-01,1.65778e-11,9.99999e-01
4.246711247e-01,2.70686e-11,9.99999e-01,9.99991e-01,2.70688e-11,9.99999e-01
4.267944804e-01,4.37722e-11,9.99999e-01,9.99987e-01,4.37728e-11,9.99999e-01
4.289284528e-01,7.01151e-11,9.99999e-01,9.99990e-01,7.01158e-11,9.99999e-01
4.310730950e-01,1.11272e-10,9.99999e-01,9.99995e-01,1.11272e-10,9.99999e-01
4.332284605e-01,1.74982e-10,9.99999e-01,9.99998e-01,1.74982e-10,9.99999e-01
4.353946028e-01,2.72722e-10,9.99999e-01,9.99999e-01,2.72722e-10,9.99999e-01
4.375715758e-01,4.21342e-10,9.99999e-01,9.99992e-01,4.21345e-10,9.99999e-01
4.397594337e-01,6.45351e-10,9.99999e-01,9.99934e-01,6.45393e-10,9.99999e-01
4.419582309e-01,9.79963e-10,9.99999e-01,9.99668e-01,9.80287e-10,9.99999e-01
4.441680220e-01,1.47633e-09,9.99999e-01,9.99737e-01,1.47671e-09,9.99999e-01
4.463888621e-01,2.20601e-09,9.99999e-01,9.99728e-01,2.20660e-09,9.99999e-01
4.486208064e-01,3.27065e-09,9.99999e-01,9.99830e-01,3.27120e-09,9.99999e-01
4.508639105e-01,4.81148e-09,9.99999e-01,9.99920e-01,4.81186e-09,9.99999e-01
4.531182300e-01,7.02416e-09,9.99999e-01,9.99968e-01,7.02438e-09,9.99999e-01
4.553838212e-01,1.01777e-08,9.99999e-01,9.99978e-01,1.01779e-08,9.99999e-01
4.576607403e-01,1.46394e-08,9.99999e-01,9.99989e-01,1.46395e-08,9.99999e-01
4.599490440e-01,2.09061e-08,9.99999e-01,9.99992e-01,2.09063e-08,9.99999e-01
4.622487892e-01,2.96462e-08,9.99999e-01,9.99998e-01,2.96463e-08,9.99999e-01
4.645600332e-01,4.17508e-08,9.99999e-01,9.99994e-01,4.17510e-08,9.99999e-01
4.668828333e-01,5.83973e-08,9.99999e-01,9.99920e-01,5.84020e-08,9.99999e-01
4.692172475e-01,8.11399e-08,9.99999e-01,9.99829e-01,8.11537e-08,9.99999e-01
4.715633337e-01,1.12026e-07,9.99999e-01,9.99888e-01,1.12038e-07,9.99999e-01
4.739211504e-01,1.53678e-07,9.99999e-01,9.99892e-01,1.53695e-07,9.99999e-01
4.762907561e-01,2.09515e-07,9.99999e-01,9.99944e-01,2.09527e-07,9.99999e-01
4.786722099e-01,2.83891e-07,9.99999e-01,9.99976e-01,2.83898e-07,9.99999e-01
4.810655710e-01,3.82362e-07,9.99999e-01,9.99992e-01,3.82365e-07,9.99999e-01
4.834708988e-01,5.11932e-07,9.99999e-01,9.99935e-01,5.11965e-07,9.99999e-01
4.858882533e-01,6.81468e-07,9.99999e-01,9.99878e-01,6.81550e-07,9.99999e-01
4.883176946e-01,9.02107e-07,9.99999e-01,9.99898e-01,9.02198e-07,9.99999e-01
4.907592831e-01,1.18757e-06,9.99999e-01,9.99908e-01,1.18768e-06,9.99999e-01
4.932130795e-01,1.55493e-06,9.99999e-01,9.99934e-01,1.55503e-06,9.99999e-01
4.956791449e-01,2.02512e-06,9.99999e-01,9.99965e-01,2.02519e-06,9.99999e-01
4.981575406e-01,2.62333e-06,9.99999e-01,9.99828e-01,2.62378e-06,9.99999e-01
5.006483283e-01,3.38047e-06,9.99999e-01,9.99559e-01,3.38195e-06,9.99999e-01
5.031515699e-01,4.32768e-06,9.99999e-01,9.97755e-01,4.33741e-06,9.99999e-01
5.056673278e-01,5.52894e-06,9.99999e-01,9.98812e-01,5.53552e-06,9.99999e-01
5.081956644e-01,7.02009e-06,9.99999e-01,9.98501e-01,7.03062e-06,9.99999e-01
5.107366428e-01,8.87848e-06,9.99999e-01,9.98986e-01,8.88748e-06,9.99999e-01
5.132903260e-01,1.11764e-05,9.99999e-01,9.99420e-01,1.11829e-05,9.99999e-01
5.158567776e-01,1.40039e-05,9.99999e-01,9.99754e-01,1.40074e-05,9.99999e-01
5.184360615e-01,1.74657e-05,9.99999e-01,9.99901e-01,1.74674e-05,9.99999e-01
5.210282418e-01,2.16865e-05,9.99999e-01,9.99963e-01,2.16873e-05,9.99999e-01
5.236333830e-01,2.68079e-05,9.99999e-01,9.99853e-01,2.68118e-05,9.99999e-01
5.262515499e-01,3.30057e-05,9.99999e-01,9.99907e-01,3.30087e-05,9.99999e-01
5.288828077e-01,4.04679e-05,9.99999e-01,9.99915e-01,4.04713e-05,9.99999e-01
5.315272217e-01,4.94179e-05,9.99999e-01,9.99925e-01,4.94216e-05,9.99999e-01
5.341848578e-01,6.01107e-05,9.99999e-01,9.99951e-01,6.01135e-05,9.99999e-01
5.368557821e-01,7.28240e-05,9.99999e-01,9.99829e-01,7.28363e-05,9.99999e-01
5.395400610e-01,8.78641e-05,9.99999e-01,9.99388e-01,8.79178e-05,9.99999e-01
5.422377613e-01,1.05644e-04,9.99999e-01,9.99202e-01,1.05728e-04,9.99999e-01
5.449489501e-01,1.26591e-04,9.99999e-01,9.99261e-01,1.26685e-04,9.99999e-01
5.476736949e-01,1.51154e-04,9.99999e-01,9.99342e-01,1.51253e-04,9.99999e-01
5.504120634e-01,1.79870e-04,9.99999e-01,9.99522e-01,1.79955e-04,9.99999e-01
5.531641237e-01,2.13319e-04,9.99999e-01,9.99759e-01,2.13371e-04,9.99999e-01
5.559299443e-01,2.52112e-04,9.99999e-01,9.99883e-01,2.52141e-04,9.99999e-01
5.587095940e-01,2.96953e-04,9.99999e-01,9.99927e-01,2.96975e-04,9.99999e-01
5.615031420e-01,3.48624e-04,9.99999e-01,9.99918e-01,3.48652e-04,9.99999e-01
5.643106577e-01,4.07990e-04,9.99999e-01,9.99908e-01,4.08027e-04,9.99999e-01
5.671322110e-01,4.75509e-04,9.99999e-01,9.98902e-01,4.76032e-04,9.99999e-01
5.699678720e-01,5.53024e-04,9.99999e-01,9.98810e-01,5.53682e-04,9.99999e-01
5.728177114e-01,6.41291e-04,9.99999e-01,9.98770e-01,6.42080e-04,9.99999e-01
5.756818000e-01,7.41577e-04,9.99999e-01,9.98869e-01,7.42416e-04,9.99999e-01
5.785602090e-01,8.55128e-04,9.99999e-01,9.99013e-01,8.55973e-04,9.99999e-01
5.814530100e-01,9.83154e-04,9.99999e-01,9.99010e-01,9.84127e-04,9.99999e-01
5.843602750e-01,1.12703e-03,9.99999e-01,9.98827e-01,1.12836e-03,9.99999e-01
5.872820764e-01,1.27724e-03,9.99999e-01,9.89931e-01,1.29023e-03,9.99999e-01
5.902184868e-01,1.45336e-03,9.99999e-01,9.87723e-01,1.47143e-03,9.99999e-01
5.931695792e-01,1.65922e-03,9.99999e-01,9.91337e-01,1.67372e-03,9.99999e-01
5.961354271e-01,1.88093e-03,9.99999e-01,9.90488e-01,1.89899e-03,9.99999e-01
5.991161043e-01,2.13427e-03,9.99999e-01,9.93048e-01,2.14921e-03,9.99999e-01
6.021116848e-01,2.41686e-03,9.99999e-01,9.96046e-01,2.42646e-03,9.99999e-01
6.051222432e-01,2.72744e-03,9.99999e-01,9.97997e-01,2.73291e-03,9.99999e-01
6.081478544e-01,3.06820e-03,9.99999e-01,9.99136e-01,3.07085e-03,9.99999e-01
6.111885937e-01,3.44138e-03,9.99999e-01,9.99633e-01,3.44264e-03,9.99999e-01
6.142445367e-01,3.85011e-03,9.99999e-01,9.99836e-01,3.85074e-03,9.99999e-01
6.173157594e-01,4.29731e-03,9.99999e-01,9.99909e-01,4.29769e-03,9.99999e-01
6.204023382e-01,4.78577e-03,9.99999e-01,9.99923e-01,4.78613e-03,9.99999e-01
6.235043498e-01,5.31701e-03,9.99999e-01,9.99668e-01,5.31877e-03,9.99999e-01
6.266218716e-01,5.88792e-03,9.99999e-01,9.98229e-01,5.89837e-03,9.99999e-01
6.297549810e-01,6.52354e-03,9.99999e-01,9.99350e-01,6.52778e-03,9.99999e-01
6.329037559e-01,7.20063e-03,9.99999e-01,9.98713e-01,7.20990e-03,9.99999e-01
6.360682746e-01,7.93900e-03,9.99999e-01,9.98907e-01,7.94768e-03,9.99999e-01
6.392486160e-01,8.73172e-03,9.99999e-01,9.98582e-01,8.74411e-03,9.99999e-01
6.424448591e-01,9.58412e-03,9.99999e-01,9.98114e-01,9.60223e-03,9.99999e-01
6.456570834e-01,1.04332e-02,9.99999e-01,9.91270e-01,1.05251e-02,9.99999e-01
6.488853688e-01,1.14289e-02,9.99999e-01,9.92460e-01,1.15157e-02,9.99999e-01
6.521297956e-01,1.24947e-02,9.99999e-01,9.93433e-01,1.25772e-02,9.99999e-01
6.553904446e-01,1.36237e-02,9.99999e-01,9.93508e-01,1.37127e-02,9.99999e-01
6.586673968e-01,1.48415e-02,9.99999e-01,9.94395e-01,1.49252e-02,9.99999e-01
6.619607338e-01,1.61651e-02,9.99999e-01,9.96756e-01,1.62177e-02,9.99999e-01
6.652705375e-01,1.75602e-02,9.99999e-01,9.98117e-01,1.75933e-02,9.99999e-01
6.685968902e-01,1.90382e-02,9.99999e-01,9.99125e-01,1.90548e-02,9.99999e-01
6.719398746e-01,2.05970e-02,9.99999e-01,9.99594e-01,2.06053e-02,9.99999e-01
6.752995740e-01,2.22427e-02,9.99999e-01,9.99780e-01,2.22476e-02,9.99999e-01
6.786760719e-01,2.39768e-02,9.99999e-01,9.99684e-01,2.39843e-02,9.99999e-01
6.820694522e-01,2.58044e-02,9.99999e-01,9.99459e-01,2.58183e-02,9.99999e-01
6.854797995e-01,2.77328e-02,9.99999e-01,9.99303e-01,2.77521e-02,9.99999e-01
6.889071985e-01,2.97386e-02,9.99999e-01,9.98332e-01,2.97883e-02,9.99999e-01
6.923517345e-01,3.10646e-02,9.99999e-01,9.72925e-01,3.19291e-02,9.99999e-01
6.958134932e-01,3.36864e-02,9.99999e-01,9.85647e-01,3.41769e-02,9.99999e-01
6.992925606e-01,3.60415e-02,9.99999e-01,9.86523e-01,3.65338e-02,9.99999e-01
7.027890234e-01,3.83503e-02,9.99999e-01,9.83293e-01,3.90019e-02,9.99999e-01
7.063029686e-01,4.09982e-02,9.99999e-01,9.85938e-01,4.15829e-02,9.99999e-01
7.098344834e-01,4.36810e-02,9.99999e-01,9.86502e-01,4.42787e-02,9.99999e-01
7.133836558e-01,4.62537e-02,9.99999e-01,9.82224e-01,4.70908e-02,9.99998e-01
7.169505741e-01,4.33318e-02,9.99999e-01,8.66280e-01,5.00206e-02,9.99997e-01
7.205353270e-01,4.94161e-02,9.99999e-01,9.31162e-01,5.30693e-02,9.99997e-01
7.241380036e-01,5.14071e-02,9.99999e-01,9.14098e-01,5.62382e-02,9.99997e-01
7.277586936e-01,5.48918e-02,9.99999e-01,9.22118e-01,5.95280e-02,9.99997e-01
7.313974871e-01,5.77048e-02,9.99999e-01,9.16830e-01,6.29395e-02,9.99998e-01
7.350544745e-01,6.33938e-02,9.99999e-01,9.53672e-01,6.64733e-02,9.99998e-01
7.387297469e-01,6.77202e-02,9.99999e-01,9.65638e-01,7.01299e-02,9.99999e-01
7.424233956e-01,7.26532e-02,9.99999e-01,9.83003e-01,7.39094e-02,9.99999e-01
7.461355126e-01,7.70086e-02,9.99999e-01,9.89676e-01,7.78118e-02,9.99999e-01
7.498661902e-01,8.14420e-02,9.99999e-01,9.95172e-01,8.18371e-02,9.99999e-01
7.536155211e-01,8.57814e-02,9.99999e-01,9.97633e-01,8.59848e-02,9.99999e-01
7.573835987e-01,9.01447e-02,9.99999e-01,9.98780e-01,9.02547e-02,9.99999e-01
7.611705167e-01,9.45742e-02,9.99999e-01,9.99242e-01,9.46459e-02,9.99999e-01
7.649763693e-01,9.91107e-02,9.99999e-01,9.99525e-01,9.91577e-02,9.99999e-01
7.688012511e-01,1.03755e-01,9.99999e-01,9.99669e-01,1.03789e-01,9.99999e-01
7.726452574e-01,1.08509e-01,9.99999e-01,9.99728e-01,1.08539e-01,9.99999e-01
7.765084837e-01,1.13362e-01,9.99999e-01,9.99616e-01,1.13406e-01,9.99999e-01
7.803910261e-01,1.08560e-01,9.18387e-01,9.98344e-01,1.18388e-01,9.99999e-01
7.842929812e-01,8.00096e-02,6.51246e-01,9.94233e-01,1.23484e-01,9.99999e-01
7.882144461e-01,8.10699e-02,6.36801e-01,9.88084e-01,1.28693e-01,9.99999e-01
7.921555184e-01,1.00995e-01,7.58300e-01,9.93429e-01,1.34012e-01,9.99999e-01
7.961162960e-01,1.14237e-01,8.28535e-01,9.88500e-01,1.39439e-01,9.99999e-01
8.000968774e-01,1.29180e-01,9.03007e-01,9.86668e-01,1.44972e-01,9.99999e-01
8.040973618e-01,1.40930e-01,9.48293e-01,9.86679e-01,1.50609e-01,9.99999e-01
8.081178486e-01,1.48091e-01,9.75969e-01,9.70392e-01,1.56348e-01,9.99998e-01
8.121584379e-01,1.42098e-01,9.92474e-01,8.82604e-01,1.62185e-01,9.99998e-01
8.162192301e-01,1.44616e-01,9.98332e-01,8.61566e-01,1.68118e-01,9.99997e-01
8.203003262e-01,1.61986e-01,9.99972e-01,9.30200e-01,1.74145e-01,9.99997e-01
8.244018279e-01,1.62772e-01,9.99999e-01,9.02978e-01,1.80262e-01,9.99997e-01
8.285238370e-01,1.70613e-01,9.99999e-01,9.14976e-01,1.86467e-01,9.99997e-01
8.326664562e-01,1.76173e-01,9.99999e-01,9.13965e-01,1.92757e-01,9.99998e-01
8.368297885e-01,1.86674e-01,9.99999e-01,9.37457e-01,1.99128e-01,9.99998e-01
8.410139374e-01,1.97830e-01,9.99999e-01,9.62311e-01,2.05578e-01,9.99999e-01
8.452190071e-01,2.08140e-01,9.99999e-01,9.81314e-01,2.12103e-01,9.99999e-01
8.494451021e-01,2.16325e-01,9.99999e-01,9.89141e-01,2.18700e-01,9.99999e-01
8.536923276e-01,2.23913e-01,9.99999e-01,9.93551e-01,2.25366e-01,9.99999e-01
8.579607893e-01,2.31177e-01,9.99999e-01,9.96032e-01,2.32097e-01,9.99999e-01
8.622505932e-01,2.38288e-01,9.99999e-01,9.97473e-01,2.38891e-01,9.99999e-01
8.665618462e-01,2.14488e-01,8.74088e-01,9.98440e-01,2.45744e-01,9.99999e-01
8.708946554e-01,8.81357e-02,3.49415e-01,9.98217e-01,2.52651e-01,9.99999e-01
8.752491287e-01,1.07711e-01,4.15817e-01,9.97614e-01,2.59611e-01,9.99999e-01
8.796253743e-01,1.62138e-01,6.09979e-01,9.96705e-01,2.66619e-01,9.99999e-01
8.840235012e-01,2.10090e-01,7.70445e-01,9.96235e-01,2.73673e-01,9.99999e-01
8.884436187e-01,2.49789e-01,9.01481e-01,9.86521e-01,2.80768e-01,9.99998e-01
8.928858368e-01,2.39505e-01,9.58828e-01,8.66707e-01,2.87902e-01,9.99997e-01
8.973502660e-01,2.26744e-01,9.89794e-01,7.75908e-01,2.95070e-01,9.99996e-01
9.018370173e-01,2.65119e-01,9.98868e-01,8.78003e-01,3.02271e-01,9.99995e-01
9.063462024e-01,2.69313e-01,9.72459e-01,8.92578e-01,3.09499e-01,9.99995e-01
9.108779334e-01,2.48770e-01,9.36022e-01,8.37176e-01,3.16753e-01,9.99994e-01
9.154323231e-01,2.60703e-01,9.84494e-01,8.16477e-01,3.24028e-01,9.99994e-01
9.200094847e-01,2.36921e-01,8.21439e-01,8.53313e-01,3.31321e-01,9.99992e-01
9.246095321e-01,1.96027e-01,7.25079e-01,7.88112e-01,3.38630e-01,9.99988e-01
9.292325798e-01,6.24580e-02,7.81784e-01,2.19426e-01,3.45951e-01,9.99975e-01
9.338787427e-01,4.05409e-02,7.85022e-01,1.39240e-01,3.53281e-01,9.99968e-01
9.385481364e-01,1.38269e-01,8.35891e-01,4.48015e-01,3.60617e-01,9.99967e-01
9.432408771e-01,1.14498e-01,8.95330e-01,3.42959e-01,3.67956e-01,9.99963e-01
9.479570815e-01,8.12764e-02,9.44904e-01,2.27696e-01,3.75294e-01,9.99968e-01
9.526968669e-01,1.18793e-01,9.73036e-01,3.17492e-01,3.82630e-01,9.99976e-01
9.574603512e-01,1.29533e-01,9.88365e-01,3.35438e-01,3.89960e-01,9.99982e-01
9.622476530e-01,1.60245e-01,9.96353e-01,4.04605e-01,3.97282e-01,9.99987e-01
9.670588912e-01,2.38959e-01,9.98904e-01,5.91180e-01,4.04592e-01,9.99992e-01
9.718941857e-01,2.94364e-01,9.99921e-01,7.14717e-01,4.11889e-01,9.99995e-01
9.767536566e-01,3.17068e-01,9.99999e-01,7.56423e-01,4.19169e-01,9.99996e-01
9.816374249e-01,3.46309e-01,9.99999e-01,8.12113e-01,4.26430e-01,9.99997e-01
9.865456120e-01,3.80648e-01,9.99999e-01,8.77737e-01,4.33670e-01,9.99998e-01
9.914783401e-01,4.06692e-01,9.99999e-01,9.22443e-01,4.40886e-01,9.99999e-01
9.964357318e-01,4.28797e-01,9.99999e-01,9.56973e-01,4.48076e-01,9.99999e-01
1.001417910e+00,4.43389e-01,9.99999e-01,9.73971e-01,4.55238e-01,9.99999e-01
1.006425000e+00,4.55478e-01,9.99999e-01,9.85096e-01,4.62369e-01,9.99999e-01
1.011457125e+00,4.65107e-01,9.99999e-01,9.90709e-01,4.69468e-01,9.99999e-01
1.016514411e+00,4.73526e-01,9.99999e-01,9.93689e-01,4.76533e-01,9.99999e-01
1.021596983e+00,4.81062e-01,9.99859e-01,9.94971e-01,4.83561e-01,9.99999e-01
1.026704968e+00,4.83291e-01,9.89064e-01,9.96077e-01,4.90551e-01,9.99999e-01
1.031838492e+00,4.52097e-01,9.11205e-01,9.97144e-01,4.97501e-01,9.99999e-01
1.036997685e+00,2.74716e-02,5.45327e-02,9.98305e-01,5.04409e-01,9.99999e-01
1.042182673e+00,2.17365e-03,4.25805e-03,9.97984e-01,5.11274e-01,9.99999e-01
1.047393587e+00,5.55886e-03,1.07535e-02,9.97324e-01,5.18094e-01,9.99999e-01
1.052630555e+00,9.21651e-07,1.76007e-06,9.96333e-01,5.24867e-01,9.99999e-01
1.057893707e+00,3.41079e-06,6.43667e-06,9.93892e-01,5.31593e-01,9.99999e-01
1.063183176e+00,7.60856e-05,1.42184e-04,9.89961e-01,5.38269e-01,9.99999e-01
1.068499092e+00,7.10957e-04,1.31968e-03,9.83234e-01,5.44895e-01,9.99999e-01
1.073841587e+00,7.59020e-03,1.39620e-02,9.80447e-01,5.51470e-01,9.99999e-01
1.079210795e+00,3.73474e-02,6.82884e-02,9.74943e-01,5.57991e-01,9.99998e-01
1.084606849e+00,1.18947e-01,2.17979e-01,9.62382e-01,5.64458e-01,9.99998e-01
1.090029883e+00,2.44463e-01,4.50473e-01,9.46678e-01,5.70871e-01,9.99997e-01
1.095480033e+00,3.36521e-01,6.73807e-01,8.61231e-01,5.77227e-01,9.99995e-01
1.100957433e+00,3.32790e-01,8.25982e-01,6.86557e-01,5.83527e-01,9.99992e-01
1.106462220e+00,2.17761e-01,9.23808e-01,3.96811e-01,5.89769e-01,9.99985e-01
1.111994531e+00,8.65444e-02,9.71017e-01,1.48817e-01,5.95952e-01,9.99970e-01
1.117554504e+00,3.00568e-02,9.92824e-01,5.01428e-02,6.02076e-01,9.99959e-01
1.123142276e+00,7.67638e-02,9.99525e-01,1.26242e-01,6.08140e-01,9.99951e-01
1.128757988e+00,1.47962e-01,9.99999e-01,2.40936e-01,6.14144e-01,9.99947e-01
1.134401778e+00,6.57149e-02,9.99999e-01,1.05983e-01,6.20087e-01,9.99941e-01
1.140073787e+00,2.58678e-01,9.99999e-01,4.13264e-01,6.25968e-01,9.99952e-01
1.145774156e+00,1.10669e-01,9.99999e-01,1.75175e-01,6.31787e-01,9.99959e-01
1.151503026e+00,9.33618e-02,9.99999e-01,1.46445e-01,6.37543e-01,9.99965e-01
1.157260541e+00,1.16484e-01,9.99999e-01,1.81095e-01,6.43237e-01,9.99973e-01
1.163046844e+00,1.81028e-01,9.99999e-01,2.78995e-01,6.48868e-01,9.99983e-01
1.168862078e+00,2.63230e-01,9.99999e-01,4.02228e-01,6.54435e-01,9.99991e-01
1.174706389e+00,3.75690e-01,9.99999e-01,5.69282e-01,6.59939e-01,9.99995e-01
1.180579921e+00,4.71239e-01,9.99999e-01,7.08228e-01,6.65379e-01,9.99996e-01
1.186482820e+00,5.51352e-01,9.99983e-01,8.21999e-01,6.70755e-01,9.99997e-01
1.192415234e+00,5.81154e-01,9.62796e-01,8.91725e-01,6.76067e-01,9.99997e-01
1.198377311e+00,3.27708e-01,5.21221e-01,9.08082e-01,6.81315e-01,9.99997e-01
1.204369197e+00,4.47267e-29,6.86842e-29,9.12973e-01,6.86498e-01,9.99998e-01
1.210391043e+00,2.01123e-117,3.05264e-117,9.16468e-01,6.91618e-01,9.99998e-01
1.216442998e+00,1.26522e-101,1.90157e-101,9.28388e-01,6.96674e-01,9.99998e-01
1.222525213e+00,4.30265e-100,6.31752e-100,9.43746e-01,7.01665e-01,9.99999e-01
1.228637839e+00,3.15168e-77,4.58268e-77,9.60601e-01,7.06593e-01,9.99999e-01
1.234781029e+00,4.48342e-48,6.38346e-48,9.70574e-01,7.11457e-01,9.99999e-01
1.240954934e+00,6.49470e-32,9.17282e-32,9.81302e-01,7.16257e-01,9.99999e-01
1.247159708e+00,2.03180e-15,2.84256e-15,9.85399e-01,7.20994e-01,9.99999e-01
1.253395507e+00,1.73937e-10,2.41882e-10,9.87040e-01,7.25668e-01,9.99999e-01
1.259662485e+00,2.66892e-06,3.68717e-06,9.87704e-01,7.30279e-01,9.99999e-01
1.265960797e+00,7.14280e-04,9.84343e-04,9.80396e-01,7.34827e-01,9.99999e-01
1.272290601e+00,2.28823e-02,3.16538e-02,9.71349e-01,7.39313e-01,9.99998e-01
1.278652054e+00,2.61151e-02,3.65407e-02,9.40484e-01,7.43737e-01,9.99998e-01
1.285045314e+00,3.75872e-05,5.26088e-05,9.08177e-01,7.48099e-01,9.99997e-01
1.291470541e+00,5.94799e-14,8.78163e-14,8.24037e-01,7.52400e-01,9.99995e-01
1.297927893e+00,3.74218e-06,5.54723e-06,7.77527e-01,7.56639e-01,9.99992e-01
1.304417533e+00,1.55890e-03,2.62957e-03,7.23788e-01,7.60819e-01,9.99987e-01
1.310939621e+00,4.27160e-04,6.88812e-04,6.91611e-01,7.64938e-01,9.99978e-01
1.317494319e+00,4.69295e-40,7.59439e-40,6.69646e-01,7.68997e-01,9.99964e-01
1.324081790e+00,2.28220e-26,3.87338e-26,5.54092e-01,7.72998e-01,9.99941e-01
1.330702199e+00,5.92221e-16,1.64728e-15,1.65259e-01,7.76939e-01,9.99902e-01
1.337355710e+00,5.61217e-16,3.20057e-14,5.02102e-03,7.80822e-01,9.99813e-01
1.344042489e+00,4.55310e-17,1.67871e-14,1.04412e-04,7.84647e-01,9.99602e-01
1.350762701e+00,2.45194e-26,8.03534e-16,3.77464e-12,7.88415e-01,9.99364e-01
1.357516515e+00,1.72229e-25,1.11196e-09,8.83483e-18,7.92126e-01,9.99213e-01
1.364304097e+00,8.49907e-17,4.21950e-07,3.77007e-11,7.95780e-01,9.99156e-01
1.371125618e+00,4.65116e-10,5.65307e-04,3.25863e-07,7.99379e-01,9.99149e-01
1.377981246e+00,3.83681e-09,1.56506e-03,1.09206e-06,8.02922e-01,9.99086e-01
1.384871152e+00,5.23798e-11,2.30819e-02,1.47869e-09,8.06411e-01,9.99096e-01
1.391795508e+00,1.97169e-12,3.09184e-02,3.29052e-11,8.09846e-01,9.99225e-01
1.398754485e+00,7.62427e-10,1.11936e-01,6.20700e-09,8.13227e-01,9.99353e-01
1.405748258e+00,1.60764e-09,2.02672e-01,7.24475e-09,8.16554e-01,9.99420e-01
1.412776999e+00,3.37861e-09,3.61669e-01,8.32261e-09,8.19830e-01,9.99533e-01
1.419840884e+00,6.63500e-09,3.41307e-01,1.62946e-08,8.23053e-01,9.99651e-01
1.426940089e+00,8.09580e-07,1.27991e-02,3.11489e-06,8.26225e-01,9.99784e-01
1.434074789e+00,0.00000e+00,0.00000e+00,2.83903e-05,8.29346e-01,9.99865e-01
1.441245163e+00,0.00000e+00,0.00000e+00,1.91215e-04,8.32417e-01,9.99895e-01
1.448451389e+00,0.00000e+00,0.00000e+00,2.79478e-03,8.35438e-01,9.99912e-01
1.455693646e+00,0.00000e+00,0.00000e+00,1.78413e-02,8.38411e-01,9.99927e-01
1.462972114e+00,0.00000e+00,0.00000e+00,2.64575e-02,8.41334e-01,9.99938e-01
1.470286975e+00,1.05304e-195,1.68988e-194,1.50845e-02,8.44210e-01,9.99944e-01
