#,Wave/freq,Total,CO2,H2O,Rayleigh,CIA
4.000000000e-01,5.82748e-08,9.99999e-01,9.99966e-01,5.82767e-08,9.99999e-01
4.020000000e-01,8.10095e-08,9.99999e-01,9.99979e-01,8.10112e-08,9.99999e-01
4.040100000e-01,1.11845e-07,9.99999e-01,9.99990e-01,1.11846e-07,9.99999e-01
4.060300500e-01,1.53435e-07,9.99999e-01,9.99997e-01,1.53435e-07,9.99999e-01
4.080602003e-01,2.09180e-07,9.99999e-01,9.99998e-01,2.09180e-07,9.99999e-01
4.101005013e-01,2.83437e-07,9.99999e-01,9.99999e-01,2.83437e-07,9.99999e-01
4.121510038e-01,3.81757e-07,9.99999e-01,9.99998e-01,3.81757e-07,9.99999e-01
4.142117588e-01,5.11162e-07,9.99999e-01,9.99990e-01,5.11167e-07,9.99999e-01
4.162828176e-01,6.80482e-07,9.99999e-01,9.99959e-01,6.80509e-07,9.99999e-01
4.183642317e-01,9.00825e-07,9.99999e-01,9.99975e-01,9.00847e-07,9.99999e-01
4.204560528e-01,1.18592e-06,9.99999e-01,9.99984e-01,1.18594e-06,9.99999e-01
4.225583331e-01,1.55278e-06,9.99999e-01,9.99993e-01,1.55279e-06,9.99999e-01
4.246711247e-01,2.02233e-06,9.99999e-01,9.99995e-01,2.02234e-06,9.99999e-01
4.267944804e-01,2.62014e-06,9.99999e-01,9.99993e-01,2.62015e-06,9.99999e-01
4.289284528e-01,3.37735e-06,9.99999e-01,9.99994e-01,3.37737e-06,9.99999e-01
4.310730950e-01,4.33164e-06,9.99999e-01,9.99997e-01,4.33164e-06,9.99999e-01
4.332284605e-01,5.52830e-06,9.99999e-01,9.99998e-01,5.52831e-06,9.99999e-01
4.353946028e-01,7.02165e-06,9.99999e-01,9.99999e-01,7.02165e-06,9.99999e-01
4.375715758e-01,8.87632e-06,9.99999e-01,9.99995e-01,8.87635e-06,9.99999e-01
4.397594337e-01,1.11687e-05,9.99999e-01,9.99964e-01,1.11691e-05,9.99999e-01
4.419582309e-01,1.39880e-05,9.99999e-01,9.99822e-01,1.39905e-05,9.99999e-01
4.441680220e-01,1.74443e-05,9.99999e-01,9.99857e-01,1.74468e-05,9.99999e-01
4.463888621e-01,2.16591e-05,9.99999e-01,9.99853e-01,2.16622e-05,9.99999e-01
4.486208064e-01,2.67790e-05,9.99999e-01,9.99908e-01,2.67815e-05,9.99999e-01
4.508639105e-01,3.29707e-05,9.99999e-01,9.99956e-01,3.29721e-05,9.99999e-01
4.531182300e-01,4.04265e-05,9.99999e-01,9.99982e-01,4.04272e-05,9.99999e-01
4.553838212e-01,4.93683e-05,9.99999e-01,9.99988e-01,4.93688e-05,9.99999e-01
4.576607403e-01,6.00504e-05,9.99999e-01,9.99994e-01,6.00507e-05,9.99999e-01
4.599490440e-01,7.27614e-05,9.99999e-01,9.99995e-01,7.27617e-05,9.99999e-01
4.622487892e-01,8.78294e-05,9.99999e-01,9.99998e-01,8.78295e-05,9.99999e-01
4.645600332e-01,1.05624e-04,9.99999e-01,9.99997e-01,1.05624e-04,9.99999e-01
4.668828333e-01,1.26557e-04,9.99999e-01,9.99956e-01,1.26562e-04,9.99999e-01
4.692172475e-01,1.51096e-04,9.99999e-01,9.99907e-01,1.51110e-04,9.99999e-01
4.715633337e-01,1.79778e-04,9.99999e-01,9.99939e-01,1.79788e-04,9.99999e-01
4.739211504e-01,2.13164e-04,9.99999e-01,9.99941e-01,2.13176e-04,9.99999e-01
4.762907561e-01,2.51908e-04,9.99999e-01,9.99969e-01,2.51916e-04,9.99999e-01
4.786722099e-01,2.96712e-04,9.99999e-01,9.99987e-01,2.96715e-04,9.99999e-01
4.810655710e-01,3.48352e-04,9.99999e-01,9.99995e-01,3.48353e-04,9.99999e-01
4.834708988e-01,4.07670e-04,9.99999e-01,9.99965e-01,4.07684e-04,9.99999e-01
4.858882533e-01,4.75609e-04,9.99999e-01,9.99934e-01,4.75640e-04,9.99999e-01
4.883176946e-01,5.53206e-04,9.99999e-01,9.99945e-01,5.53235e-04,9.99999e-01
4.907592831e-01,6.41541e-04,9.99999e-01,9.99950e-01,6.41572e-04,9.99999e-01
4.932130795e-01,7.41814e-04,9.99999e-01,9.99964e-01,7.41840e-04,9.99999e-01
4.956791449e-01,8.55306e-04,9.99999e-01,9.99981e-01,8.55322e-04,9.99999e-01
4.981575406e-01,9.83304e-04,9.99999e-01,9.99907e-01,9.83394e-04,9.99999e-01
5.006483283e-01,1.12726e-03,9.99999e-01,9.99763e-01,1.12753e-03,9.99999e-01
5.031515699e-01,1.28775e-03,9.99999e-01,9.98790e-01,1.28931e-03,9.99999e-01
5.056673278e-01,1.46945e-03,9.99999e-01,9.99359e-01,1.47039e-03,9.99999e-01
5.081956644e-01,1.67122e-03,9.99999e-01,9.99191e-01,1.67257e-03,9.99999e-01
5.107366428e-01,1.89667e-03,9.99999e-01,9.99453e-01,1.89771e-03,9.99999e-01
5.132903260e-01,2.14711e-03,9.99999e-01,9.99686e-01,2.14779e-03,9.99999e-01
5.158567776e-01,2.42456e-03,9.99999e-01,9.99867e-01,2.42488e-03,9.99999e-01
5.184360615e-01,2.73103e-03,9.99999e-01,9.99946e-01,2.73118e-03,9.99999e-01
5.210282418e-01,3.06888e-03,9.99999e-01,9.99979e-01,3.06894e-03,9.99999e-01
5.236333830e-01,3.44027e-03,9.99999e-01,9.99920e-01,3.44054e-03,9.99999e-01
5.262515499e-01,3.84824e-03,9.99999e-01,9.99950e-01,3.84843e-03,9.99999e-01
5.288828077e-01,4.29498e-03,9.99999e-01,9.99954e-01,4.29517e-03,9.99999e-01
5.315272217e-01,4.78319e-03,9.99999e-01,9.99959e-01,4.78338e-03,9.99999e-01
5.341848578e-01,5.31563e-03,9.99999e-01,9.99973e-01,5.31577e-03,9.99999e-01
5.368557821e-01,5.89457e-03,9.99999e-01,9.99908e-01,5.89511e-03,9.99999e-01
5.395400610e-01,6.52210e-03,9.99999e-01,9.99671e-01,6.52424e-03,9.99999e-01
5.422377613e-01,7.20297e-03,9.99999e-01,9.99569e-01,7.20607e-03,9.99999e-01
5.449489501e-01,7.94039e-03,9.99999e-01,9.99602e-01,7.94354e-03,9.99999e-01
5.476736949e-01,8.73655e-03,9.99999e-01,9.99644e-01,8.73965e-03,9.99999e-01
5.504120634e-01,9.59496e-03,9.99999e-01,9.99742e-01,9.59742e-03,9.99999e-01
5.531641237e-01,1.05186e-02,9.99999e-01,9.99870e-01,1.05199e-02,9.99999e-01
5.559299443e-01,1.15095e-02,9.99999e-01,9.99936e-01,1.15102e-02,9.99999e-01
5.587095940e-01,1.25708e-02,9.99999e-01,9.99960e-01,1.25713e-02,9.99999e-01
5.615031420e-01,1.37058e-02,9.99999e-01,9.99956e-01,1.37064e-02,9.99999e-01
5.643106577e-01,1.49177e-02,9.99999e-01,9.99950e-01,1.49184e-02,9.99999e-01
5.671322110e-01,1.62010e-02,9.99999e-01,9.99411e-01,1.62105e-02,9.99999e-01
5.699678720e-01,1.75743e-02,9.99999e-01,9.99356e-01,1.75856e-02,9.99999e-01
5.728177114e-01,1.90341e-02,9.99999e-01,9.99337e-01,1.90467e-02,9.99999e-01
5.756818000e-01,2.05842e-02,9.99999e-01,9.99390e-01,2.05967e-02,9.99999e-01
5.785602090e-01,2.22266e-02,9.99999e-01,9.99467e-01,2.22384e-02,9.99999e-01
5.814530100e-01,2.39619e-02,9.99999e-01,9.99466e-01,2.39747e-02,9.99999e-01
5.843602750e-01,2.57919e-02,9.99999e-01,9.99369e-01,2.58082e-02,9.99999e-01
5.872820764e-01,2.75907e-02,9.99999e-01,9.94568e-01,2.77414e-02,9.99999e-01
5.902184868e-01,2.95793e-02,9.99999e-01,9.93359e-01,2.97770e-02,9.99999e-01
5.931695792e-01,3.17679e-02,9.99999e-01,9.95320e-01,3.19173e-02,9.99999e-01
5.961354271e-01,3.39889e-02,9.99999e-01,9.94859e-01,3.41645e-02,9.99999e-01
5.991161043e-01,3.63837e-02,9.99999e-01,9.96244e-01,3.65208e-02,9.99999e-01
6.021116848e-01,3.89050e-02,9.99999e-01,9.97864e-01,3.89882e-02,9.99999e-01
6.051222432e-01,4.15237e-02,9.99999e-01,9.98918e-01,4.15687e-02,9.99999e-01
6.081478544e-01,4.42432e-02,9.99999e-01,9.99533e-01,4.42638e-02,9.99999e-01
6.111885937e-01,4.70660e-02,9.99999e-01,9.99801e-01,4.70753e-02,9.99999e-01
6.142445367e-01,5.00000e-02,9.99999e-01,9.99911e-01,5.00044e-02,9.99999e-01
6.173157594e-01,5.30500e-02,9.99999e-01,9.99951e-01,5.30525e-02,9.99999e-01
6.204023382e-01,5.62184e-02,9.99999e-01,9.99958e-01,5.62207e-02,9.99999e-01
6.235043498e-01,5.94993e-02,9.99999e-01,9.99822e-01,5.95099e-02,9.99999e-01
6.266218716e-01,6.28607e-02,9.99999e-01,9.99045e-01,6.29208e-02,9.99999e-01
6.297549810e-01,6.64307e-02,9.99999e-01,9.99649e-01,6.64539e-02,9.99999e-01
6.329037559e-01,7.00612e-02,9.99999e-01,9.99305e-01,7.01098e-02,9.99999e-01
6.360682746e-01,7.38452e-02,9.99999e-01,9.99411e-01,7.38886e-02,9.99999e-01
6.392486160e-01,7.77310e-02,9.99999e-01,9.99235e-01,7.77904e-02,9.99999e-01
6.424448591e-01,8.17401e-02,9.99999e-01,9.99083e-01,8.18150e-02,9.99999e-01
6.456570834e-01,8.55608e-02,9.99999e-01,9.95330e-01,8.59621e-02,9.99999e-01
6.488853688e-01,8.98627e-02,9.99999e-01,9.95914e-01,9.02313e-02,9.99999e-01
6.521297956e-01,9.42862e-02,9.99999e-01,9.96452e-01,9.46219e-02,9.99999e-01
6.553904446e-01,9.87858e-02,9.99999e-01,9.96497e-01,9.91330e-02,9.99999e-01
6.586673968e-01,1.03449e-01,9.99999e-01,9.96971e-01,1.03764e-01,9.99999e-01
6.619607338e-01,1.08323e-01,9.99999e-01,9.98248e-01,1.08513e-01,9.99999e-01
6.652705375e-01,1.13264e-01,9.99999e-01,9.98982e-01,1.13379e-01,9.99999e-01
6.685968902e-01,1.18305e-01,9.99999e-01,9.99527e-01,1.18361e-01,9.99999e-01
6.719398746e-01,1.23430e-01,9.99999e-01,9.99780e-01,1.23457e-01,9.99999e-01
6.752995740e-01,1.28649e-01,9.99999e-01,9.99881e-01,1.28665e-01,9.99999e-01
6.786760719e-01,1.33960e-01,9.99999e-01,9.99830e-01,1.33983e-01,9.99999e-01
6.820694522e-01,1.39369e-01,9.99999e-01,9.99708e-01,1.39410e-01,9.99999e-01
6.854797995e-01,1.44888e-01,9.99999e-01,9.99624e-01,1.44942e-01,9.99999e-01
6.889071985e-01,1.50444e-01,9.99999e-01,9.99106e-01,1.50579e-01,9.99999e-01
6.923517345e-01,1.54022e-01,9.99999e-01,9.85324e-01,1.56316e-01,9.99999e-01
6.958134932e-01,1.60887e-01,9.99999e-01,9.92193e-01,1.62153e-01,9.99999e-01
6.992925606e-01,1.66863e-01,9.99999e-01,9.92723e-01,1.68086e-01,9.99999e-01
7.027890234e-01,1.72536e-01,9.99999e-01,9.90950e-01,1.74112e-01,9.99999e-01
7.063029686e-01,1.78858e-01,9.99999e-01,9.92393e-01,1.80229e-01,9.99999e-01
7.098344834e-01,1.85072e-01,9.99999e-01,9.92700e-01,1.86433e-01,9.99999e-01
7.133836558e-01,1.90874e-01,9.99999e-01,9.90408e-01,1.92722e-01,9.99999e-01
7.169505741e-01,1.84166e-01,9.99999e-01,9.25025e-01,1.99093e-01,9.99998e-01
7.205353270e-01,1.97710e-01,9.99999e-01,9.61895e-01,2.05543e-01,9.99998e-01
7.241380036e-01,2.02002e-01,9.99999e-01,9.52539e-01,2.12067e-01,9.99998e-01
7.277586936e-01,2.09269e-01,9.99999e-01,9.57035e-01,2.18664e-01,9.99998e-01
7.313974871e-01,2.14979e-01,9.99999e-01,9.54062e-01,2.25330e-01,9.99998e-01
7.350544745e-01,2.26187e-01,9.99999e-01,9.74685e-01,2.32061e-01,9.99999e-01
7.387297469e-01,2.34386e-01,9.99999e-01,9.81294e-01,2.38854e-01,9.99999e-01
7.424233956e-01,2.43442e-01,9.99999e-01,9.90783e-01,2.45706e-01,9.99999e-01
7.461355126e-01,2.51203e-01,9.99999e-01,9.94414e-01,2.52614e-01,9.99999e-01
7.498661902e-01,2.58896e-01,9.99999e-01,9.97389e-01,2.59573e-01,9.99999e-01
7.536155211e-01,2.66241e-01,9.99999e-01,9.98722e-01,2.66581e-01,9.99999e-01
7.573835987e-01,2.73455e-01,9.99999e-01,9.99341e-01,2.73635e-01,9.99999e-01
7.611705167e-01,2.80615e-01,9.99999e-01,9.99590e-01,2.80730e-01,9.99999e-01
7.649763693e-01,2.87790e-01,9.99999e-01,9.99743e-01,2.87863e-01,9.99999e-01
7.688012511e-01,2.94979e-01,9.99999e-01,9.99821e-01,2.95032e-01,9.99999e-01
7.726452574e-01,3.02187e-01,9.99999e-01,9.99853e-01,3.02232e-01,9.99999e-01
7.765084837e-01,3.09396e-01,9.99999e-01,9.99793e-01,3.09460e-01,9.99999e-01
7.803910261e-01,3.00949e-01,9.51032e-01,9.99109e-01,3.16713e-01,9.99999e-01
7.842929812e-01,2.54164e-01,7.86747e-01,9.96895e-01,3.23988e-01,9.99999e-01
7.882144461e-01,2.55375e-01,7.75567e-01,9.93559e-01,3.31282e-01,9.99999e-01
7.921555184e-01,2.90234e-01,8.60130e-01,9.96446e-01,3.38591e-01,9.99999e-01
7.961162960e-01,3.10478e-01,9.03083e-01,9.93794e-01,3.45911e-01,9.99999e-01
8.000968774e-01,3.31874e-01,9.46297e-01,9.92793e-01,3.53241e-01,9.99999e-01
8.040973618e-01,3.47853e-01,9.71684e-01,9.92801e-01,3.60577e-01,9.99999e-01
8.081178486e-01,3.57301e-01,9.86953e-01,9.83948e-01,3.67916e-01,9.99999e-01
8.121584379e-01,3.49329e-01,9.95919e-01,9.34664e-01,3.75255e-01,9.99998e-01
8.162192301e-01,3.52516e-01,9.99097e-01,9.22201e-01,3.82591e-01,9.99998e-01
8.203003262e-01,3.74814e-01,9.99984e-01,9.61268e-01,3.89921e-01,9.99998e-01
8.244018279e-01,3.75425e-01,9.99999e-01,9.45079e-01,3.97242e-01,9.99998e-01
8.285238370e-01,3.85572e-01,9.99999e-01,9.53083e-01,4.04553e-01,9.99998e-01
8.326664562e-01,3.92248e-01,9.99999e-01,9.52407e-01,4.11849e-01,9.99998e-01
8.368297885e-01,4.04749e-01,9.99999e-01,9.65688e-01,4.19130e-01,9.99999e-01
8.410139374e-01,4.17634e-01,9.99999e-01,9.79461e-01,4.26391e-01,9.99999e-01
8.452190071e-01,4.29237e-01,9.99999e-01,9.89866e-01,4.33631e-01,9.99999e-01
8.494451021e-01,4.38260e-01,9.99999e-01,9.94130e-01,4.40847e-01,9.99999e-01
8.536923276e-01,4.46475e-01,9.99999e-01,9.96513e-01,4.48037e-01,9.99999e-01
8.579607893e-01,4.54225e-01,9.99999e-01,9.97858e-01,4.55199e-01,9.99999e-01
8.622505932e-01,4.61700e-01,9.99999e-01,9.98636e-01,4.62331e-01,9.99999e-01
8.665618462e-01,4.25131e-01,9.06357e-01,9.99159e-01,4.69430e-01,9.99999e-01
8.708946554e-01,2.61683e-01,5.49685e-01,9.99039e-01,4.76495e-01,9.99999e-01
8.752491287e-01,2.95930e-01,6.12782e-01,9.98713e-01,4.83523e-01,9.99999e-01
8.796253743e-01,3.73043e-01,7.61806e-01,9.98225e-01,4.90513e-01,9.99999e-01
8.840235012e-01,4.30839e-01,8.67790e-01,9.97970e-01,4.97463e-01,9.99999e-01
8.884436187e-01,4.73388e-01,9.45322e-01,9.92747e-01,5.04372e-01,9.99999e-01
8.928858368e-01,4.62582e-01,9.77530e-01,9.25343e-01,5.11237e-01,9.99998e-01
8.973502660e-01,4.48662e-01,9.94461e-01,8.70717e-01,5.18057e-01,9.99997e-01
9.018370173e-01,4.88494e-01,9.99386e-01,9.31310e-01,5.24831e-01,9.99997e-01
9.063462024e-01,4.92604e-01,9.84966e-01,9.40160e-01,5.31557e-01,9.99997e-01
9.108779334e-01,4.71767e-01,9.64858e-01,9.07809e-01,5.38234e-01,9.99996e-01
9.154323231e-01,4.84033e-01,9.91559e-01,8.95671e-01,5.44860e-01,9.99996e-01
9.200094847e-01,4.53717e-01,8.91025e-01,9.17189e-01,5.51434e-01,9.99995e-01
9.246095321e-01,4.12748e-01,8.39799e-01,8.76914e-01,5.57956e-01,9.99993e-01
9.292325798e-01,2.10129e-01,8.73959e-01,4.17740e-01,5.64424e-01,9.99986e-01
9.338787427e-01,1.64183e-01,8.76392e-01,3.21918e-01,5.70836e-01,9.99982e-01
9.385481364e-01,3.33595e-01,9.07387e-01,6.31692e-01,5.77193e-01,9.99982e-01
9.432408771e-01,2.96096e-01,9.41957e-01,5.36202e-01,5.83493e-01,9.99980e-01
9.479570815e-01,2.43956e-01,9.69870e-01,4.25545e-01,5.89735e-01,9.99982e-01
9.526968669e-01,3.05753e-01,9.85336e-01,5.19761e-01,5.95919e-01,9.99986e-01
9.574603512e-01,3.24488e-01,9.93698e-01,5.42056e-01,6.02043e-01,9.99990e-01
9.622476530e-01,3.67125e-01,9.98028e-01,6.04804e-01,6.08108e-01,9.99993e-01
9.670588912e-01,4.59129e-01,9.99407e-01,7.48042e-01,6.14112e-01,9.99995e-01
9.718941857e-01,5.16552e-01,9.99956e-01,8.33108e-01,6.20055e-01,9.99997e-01
9.767536566e-01,5.37893e-01,9.99999e-01,8.59342e-01,6.25936e-01,9.99997e-01
9.816374249e-01,5.64393e-01,9.99999e-01,8.93372e-01,6.31756e-01,9.99998e-01
9.865456120e-01,5.94104e-01,9.99999e-01,9.31908e-01,6.37513e-01,9.99998e-01
9.914783401e-01,6.15776e-01,9.99999e-01,9.57353e-01,6.43207e-01,9.99999e-01
9.964357318e-01,6.33616e-01,9.99999e-01,9.76539e-01,6.48838e-01,9.99999e-01
1.001417910e+00,6.45159e-01,9.99999e-01,9.85869e-01,6.54405e-01,9.99999e-01
1.006425000e+00,6.54589e-01,9.99999e-01,9.91937e-01,6.59909e-01,9.99999e-01
1.011457125e+00,6.62007e-01,9.99999e-01,9.94975e-01,6.65350e-01,9.99999e-01
1.016514411e+00,6.68440e-01,9.99999e-01,9.96592e-01,6.70726e-01,9.99999e-01
1.021596983e+00,6.74154e-01,9.99926e-01,9.97285e-01,6.76038e-01,9.99999e-01
1.026704968e+00,6.75844e-01,9.94110e-01,9.97883e-01,6.81286e-01,9.99999e-01
1.031838492e+00,6.46139e-01,9.42648e-01,9.98458e-01,6.86471e-01,9.99999e-01
1.036997685e+00,6.94321e-02,1.00466e-01,9.99085e-01,6.91591e-01,9.99999e-01
1.042182673e+00,2.67729e-02,3.84663e-02,9.98913e-01,6.96646e-01,9.99999e-01
1.047393587e+00,4.32101e-02,6.16615e-02,9.98557e-01,7.01638e-01,9.99999e-01
1.052630555e+00,2.11897e-04,3.00305e-04,9.98023e-01,7.06566e-01,9.99999e-01
1.057893707e+00,6.62461e-04,9.33015e-04,9.96707e-01,7.11431e-01,9.99999e-01
1.063183176e+00,3.97611e-03,5.57119e-03,9.94580e-01,7.16231e-01,9.99999e-01
1.068499092e+00,1.74012e-02,2.43076e-02,9.90928e-01,7.20969e-01,9.99999e-01
1.073841587e+00,6.74977e-02,9.38140e-02,9.89412e-01,7.25643e-01,9.99999e-01
1.079210795e+00,1.61348e-01,2.23584e-01,9.86404e-01,7.30254e-01,9.99999e-01
1.084606849e+00,3.13006e-01,4.34237e-01,9.79526e-01,7.34802e-01,9.99998e-01
1.090029883e+00,4.65627e-01,6.47896e-01,9.70890e-01,7.39289e-01,9.99998e-01
1.095480033e+00,5.54458e-01,8.07023e-01,9.22520e-01,7.43713e-01,9.99997e-01
1.100957433e+00,5.50844e-01,9.01725e-01,8.15222e-01,7.48075e-01,9.99995e-01
1.106462220e+00,4.32886e-01,9.58058e-01,5.99160e-01,7.52376e-01,9.99991e-01
1.111994531e+00,2.55620e-01,9.84240e-01,3.42686e-01,7.56617e-01,9.99984e-01
1.117554504e+00,1.36744e-01,9.96112e-01,1.80257e-01,7.60796e-01,9.99977e-01
1.123142276e+00,2.24317e-01,9.99742e-01,2.93289e-01,7.64916e-01,9.99973e-01
1.128757988e+00,3.43154e-01,9.99999e-01,4.46260e-01,7.68976e-01,9.99971e-01
1.134401778e+00,1.68445e-01,9.99999e-01,2.17924e-01,7.72976e-01,9.99967e-01
1.140073787e+00,4.75930e-01,9.99999e-01,6.12602e-01,7.76918e-01,9.99973e-01
1.145774156e+00,2.86700e-01,9.99999e-01,3.67194e-01,7.80801e-01,9.99978e-01
1.151503026e+00,2.59467e-01,9.99999e-01,3.30694e-01,7.84627e-01,9.99981e-01
1.157260541e+00,3.04510e-01,9.99999e-01,3.86246e-01,7.88395e-01,9.99985e-01
1.163046844e+00,3.90242e-01,9.99999e-01,4.92668e-01,7.92106e-01,9.99990e-01
1.168862078e+00,4.84006e-01,9.99999e-01,6.08232e-01,7.95761e-01,9.99995e-01
1.174706389e+00,5.88075e-01,9.99999e-01,7.35684e-01,7.99360e-01,9.99997e-01
1.180579921e+00,6.65716e-01,9.99999e-01,8.29137e-01,8.02903e-01,9.99998e-01
1.186482820e+00,7.25298e-01,9.99991e-01,8.99442e-01,8.06392e-01,9.99998e-01
1.192415234e+00,7.45904e-01,9.79451e-01,9.40038e-01,8.09827e-01,9.99998e-01
1.198377311e+00,4.27224e-01,5.48683e-01,9.49318e-01,8.13208e-01,9.99998e-01
1.204369197e+00,1.05325e-16,1.32712e-16,9.51972e-01,8.16536e-01,9.99998e-01
1.210391043e+00,2.63132e-64,3.29471e-64,9.53989e-01,8.19812e-01,9.99998e-01
1.216442998e+00,8.56294e-56,1.06652e-55,9.60643e-01,8.23036e-01,9.99999e-01
1.222525213e+00,5.72669e-55,7.04348e-55,9.69239e-01,8.26208e-01,9.99999e-01
1.228637839e+00,1.51273e-42,1.85116e-42,9.78554e-01,8.29329e-01,9.99999e-01
1.234781029e+00,6.10572e-27,7.38616e-27,9.84014e-01,8.32400e-01,9.99999e-01
1.240954934e+00,4.44220e-18,5.35155e-18,9.89872e-01,8.35422e-01,9.99999e-01
1.247159708e+00,2.41593e-09,2.89510e-09,9.92099e-01,8.38395e-01,9.99999e-01
1.253395507e+00,3.13954e-06,3.75064e-06,9.92992e-01,8.41319e-01,9.99999e-01
1.259662485e+00,4.03529e-04,4.80396e-04,9.93409e-01,8.44195e-01,9.99999e-01
1.265960797e+00,1.38006e-02,1.64156e-02,9.89424e-01,8.47024e-01,9.99999e-01
1.272290601e+00,1.21199e-01,1.44534e-01,9.84471e-01,8.49806e-01,9.99999e-01
1.278652054e+00,1.19685e-01,1.43838e-01,9.67451e-01,8.52542e-01,9.99998e-01
1.285045314e+00,1.24700e-03,1.49607e-03,9.49359e-01,8.55233e-01,9.99998e-01
1.291470541e+00,3.82494e-08,4.74383e-08,9.00627e-01,8.57879e-01,9.99997e-01
1.297927893e+00,4.14575e-04,5.13450e-04,8.72347e-01,8.60481e-01,9.99995e-01
1.304417533e+00,2.78557e-02,3.74553e-02,8.38575e-01,8.63038e-01,9.99992e-01
1.310939621e+00,7.03708e-03,9.14249e-03,8.18300e-01,8.65553e-01,9.99988e-01
1.317494319e+00,1.84317e-22,2.39722e-22,8.03380e-01,8.68025e-01,9.99980e-01
1.324081790e+00,3.76557e-15,5.02337e-15,7.22557e-01,8.70455e-01,9.99968e-01
1.330702199e+00,3.57586e-09,6.94762e-09,3.19465e-01,8.72844e-01,9.99947e-01
1.337355710e+00,2.17363e-09,2.01661e-08,4.45923e-02,8.75192e-01,9.99899e-01
1.344042489e+00,3.11020e-10,7.60859e-09,1.63263e-03,8.77499e-01,9.99785e-01
1.350762701e+00,4.67640e-15,3.76943e-09,2.29142e-07,8.79767e-01,9.99657e-01
1.357516515e+00,1.04413e-14,5.73796e-06,2.12198e-10,8.81996e-01,9.99575e-01
1.364304097e+00,6.95290e-10,2.78430e-04,8.73722e-07,8.84186e-01,9.99545e-01
1.371125618e+00,2.92657e-06,1.46506e-02,1.04422e-04,8.86339e-01,9.99541e-01
1.377981246e+00,1.39915e-05,2.88959e-02,3.33359e-04,8.88453e-01,9.99507e-01
1.384871152e+00,5.88068e-07,1.27106e-01,3.56254e-06,8.90531e-01,9.99512e-01
1.391795508e+00,2.14379e-07,1.48305e-01,1.05557e-06,8.92573e-01,9.99582e-01
1.398754485e+00,4.51167e-06,3.05899e-01,1.43963e-05,8.94579e-01,9.99651e-01
1.405748258e+00,6.54676e-06,4.18980e-01,1.48328e-05,8.96550e-01,9.99687e-01
1.412776999e+00,8.18658e-06,5.76128e-01,1.36294e-05,8.98486e-01,9.99748e-01
1.419840884e+00,1.73487e-05,5.21852e-01,2.83012e-05,9.00387e-01,9.99812e-01
1.426940089e+00,1.12741e-04,3.35937e-02,3.25940e-04,9.02255e-01,9.99883e-01
1.434074789e+00,0.00000e+00,0.00000e+00,1.95709e-03,9.04090e-01,9.99927e-01
1.441245163e+00,0.00000e+00,0.00000e+00,6.81660e-03,9.05893e-01,9.99943e-01
1.448451389e+00,0.00000e+00,0.00000e+00,3.06462e-02,9.07663e-01,9.99952e-01
1.455693646e+00,0.00000e+00,0.00000e+00,9.29462e-02,9.09402e-01,9.99960e-01
1.462972114e+00,1.17866e-254,4.75225e-254,1.25657e-01,9.11109e-01,9.99966e-01
1.470286975e+00,1.73937e-106,7.76047e-106,8.98786e-02,9.12786e-01,9.99969e-01
