#,Wave/freq,Total,CO2,H2O,Rayleigh,CIA
4.000000000e-01,2.12699e-05,9.99999e-01,9.99978e-01,2.12704e-05,9.99999e-01
4.020000000e-01,2.63119e-05,9.99999e-01,9.99986e-01,2.63123e-05,9.99999e-01
4.040100000e-01,3.24055e-05,9.99999e-01,9.99993e-01,3.24057e-05,9.99999e-01
4.060300500e-01,3.97464e-05,9.99999e-01,9.99998e-01,3.97464e-05,9.99999e-01
4.080602003e-01,4.85537e-05,9.99999e-01,9.99999e-01,4.85537e-05,9.99999e-01
4.101005013e-01,5.90786e-05,9.99999e-01,9.99999e-01,5.90786e-05,9.99999e-01
4.121510038e-01,7.16069e-05,9.99999e-01,9.99998e-01,7.16070e-05,9.99999e-01
4.142117588e-01,8.64625e-05,9.99999e-01,9.99993e-01,8.64630e-05,9.99999e-01
4.162828176e-01,1.04010e-04,9.99999e-01,9.99973e-01,1.04013e-04,9.99999e-01
4.183642317e-01,1.24668e-04,9.99999e-01,9.99984e-01,1.24669e-04,9.99999e-01
4.204560528e-01,1.48893e-04,9.99999e-01,9.99989e-01,1.48894e-04,9.99999e-01
4.225583331e-01,1.77203e-04,9.99999e-01,9.99995e-01,1.77204e-04,9.99999e-01
4.246711247e-01,2.10172e-04,9.99999e-01,9.99996e-01,2.10172e-04,9.99999e-01
4.267944804e-01,2.48435e-04,9.99999e-01,9.99995e-01,2.48436e-04,9.99999e-01
4.289284528e-01,2.92695e-04,9.99999e-01,9.99996e-01,2.92696e-04,9.99999e-01
4.310730950e-01,3.43727e-04,9.99999e-01,9.99998e-01,3.43728e-04,9.99999e-01
4.332284605e-01,4.02376e-04,9.99999e-01,9.99999e-01,4.02377e-04,9.99999e-01
4.353946028e-01,4.69569e-04,9.99999e-01,9.99999e-01,4.69569e-04,9.99999e-01
4.375715758e-01,5.46312e-04,9.99999e-01,9.99996e-01,5.46313e-04,9.99999e-01
4.397594337e-01,6.33688e-04,9.99999e-01,9.99976e-01,6.33702e-04,9.99999e-01
4.419582309e-01,7.32834e-04,9.99999e-01,9.99883e-01,7.32919e-04,9.99999e-01
4.441680220e-01,8.45161e-04,9.99999e-01,9.99908e-01,8.45238e-04,9.99999e-01
4.463888621e-01,9.71936e-04,9.99999e-01,9.99905e-01,9.72028e-04,9.99999e-01
4.486208064e-01,1.11469e-03,9.99999e-01,9.99940e-01,1.11476e-03,9.99999e-01
4.508639105e-01,1.27495e-03,9.99999e-01,9.99972e-01,1.27498e-03,9.99999e-01
4.531182300e-01,1.45437e-03,9.99999e-01,9.99988e-01,1.45438e-03,9.99999e-01
4.553838212e-01,1.65470e-03,9.99999e-01,9.99992e-01,1.65471e-03,9.99999e-01
4.576607403e-01,1.87784e-03,9.99999e-01,9.99996e-01,1.87784e-03,9.99999e-01
4.599490440e-01,2.12574e-03,9.99999e-01,9.99997e-01,2.12575e-03,9.99999e-01
4.622487892e-01,2.40049e-03,9.99999e-01,9.99999e-01,2.40049e-03,9.99999e-01
4.645600332e-01,2.70424e-03,9.99999e-01,9.99997e-01,2.70424e-03,9.99999e-01
4.668828333e-01,3.03918e-03,9.99999e-01,9.99971e-01,3.03927e-03,9.99999e-01
4.692172475e-01,3.40773e-03,9.99999e-01,9.99940e-01,3.40793e-03,9.99999e-01
4.715633337e-01,3.81253e-03,9.99999e-01,9.99960e-01,3.81268e-03,9.99999e-01
4.739211504e-01,4.25589e-03,9.99999e-01,9.99962e-01,4.25605e-03,9.99999e-01
4.762907561e-01,4.74058e-03,9.99999e-01,9.99980e-01,4.74067e-03,9.99999e-01
4.786722099e-01,5.26919e-03,9.99999e-01,9.99991e-01,5.26923e-03,9.99999e-01
4.810655710e-01,5.84450e-03,9.99999e-01,9.99997e-01,5.84452e-03,9.99999e-01
4.834708988e-01,6.46921e-03,9.99999e-01,9.99976e-01,6.46935e-03,9.99999e-01
4.858882533e-01,7.14634e-03,9.99999e-01,9.99957e-01,7.14664e-03,9.99999e-01
4.883176946e-01,7.87904e-03,9.99999e-01,9.99964e-01,7.87932e-03,9.99999e-01
4.907592831e-01,8.67011e-03,9.99999e-01,9.99967e-01,8.67038e-03,9.99999e-01
4.932130795e-01,9.52264e-03,9.99999e-01,9.99976e-01,9.52285e-03,9.99999e-01
4.956791449e-01,1.04397e-02,9.99999e-01,9.99987e-01,1.04398e-02,9.99999e-01
4.981575406e-01,1.14236e-02,9.99999e-01,9.99939e-01,1.14242e-02,9.99999e-01
5.006483283e-01,1.24774e-02,9.99999e-01,9.99845e-01,1.24793e-02,9.99999e-01
5.031515699e-01,1.35974e-02,9.99999e-01,9.99216e-01,1.36080e-02,9.99999e-01
5.056673278e-01,1.48074e-02,9.99999e-01,9.99586e-01,1.48135e-02,9.99999e-01
5.081956644e-01,1.60903e-02,9.99999e-01,9.99478e-01,1.60987e-02,9.99999e-01
5.107366428e-01,1.74606e-02,9.99999e-01,9.99647e-01,1.74667e-02,9.99999e-01
5.132903260e-01,1.89167e-02,9.99999e-01,9.99798e-01,1.89205e-02,9.99999e-01
5.158567776e-01,2.04611e-02,9.99999e-01,9.99914e-01,2.04629e-02,9.99999e-01
5.184360615e-01,2.20961e-02,9.99999e-01,9.99965e-01,2.20968e-02,9.99999e-01
5.210282418e-01,2.38247e-02,9.99999e-01,9.99986e-01,2.38250e-02,9.99999e-01
5.236333830e-01,2.56489e-02,9.99999e-01,9.99948e-01,2.56502e-02,9.99999e-01
5.262515499e-01,2.75741e-02,9.99999e-01,9.99967e-01,2.75750e-02,9.99999e-01
5.288828077e-01,2.96010e-02,9.99999e-01,9.99970e-01,2.96018e-02,9.99999e-01
5.315272217e-01,3.17324e-02,9.99999e-01,9.99973e-01,3.17332e-02,9.99999e-01
5.341848578e-01,3.39708e-02,9.99999e-01,9.99982e-01,3.39713e-02,9.99999e-01
5.368557821e-01,3.63163e-02,9.99999e-01,9.99940e-01,3.63184e-02,9.99999e-01
5.395400610e-01,3.87681e-02,9.99999e-01,9.99785e-01,3.87764e-02,9.99999e-01
5.422377613e-01,4.13358e-02,9.99999e-01,9.99722e-01,4.13473e-02,9.99999e-01
5.449489501e-01,4.40214e-02,9.99999e-01,9.99742e-01,4.40327e-02,9.99999e-01
5.476736949e-01,4.68237e-02,9.99999e-01,9.99771e-01,4.68344e-02,9.99999e-01
5.504120634e-01,4.97453e-02,9.99999e-01,9.99833e-01,4.97536e-02,9.99999e-01
5.531641237e-01,5.27872e-02,9.99999e-01,9.99916e-01,5.27916e-02,9.99999e-01
5.559299443e-01,5.59474e-02,9.99999e-01,9.99959e-01,5.59497e-02,9.99999e-01
5.587095940e-01,5.92271e-02,9.99999e-01,9.99974e-01,5.92286e-02,9.99999e-01
5.615031420e-01,6.26275e-02,9.99999e-01,9.99971e-01,6.26293e-02,9.99999e-01
5.643106577e-01,6.61500e-02,9.99999e-01,9.99967e-01,6.61521e-02,9.99999e-01
5.671322110e-01,6.97708e-02,9.99999e-01,9.99613e-01,6.97977e-02,9.99999e-01
5.699678720e-01,7.35358e-02,9.99999e-01,9.99587e-01,7.35662e-02,9.99999e-01
5.728177114e-01,7.74244e-02,9.99999e-01,9.99571e-01,7.74576e-02,9.99999e-01
5.756818000e-01,8.14398e-02,9.99999e-01,9.99606e-01,8.14719e-02,9.99999e-01
5.785602090e-01,8.55794e-02,9.99999e-01,9.99656e-01,8.56087e-02,9.99999e-01
5.814530100e-01,8.98367e-02,9.99999e-01,9.99655e-01,8.98677e-02,9.99999e-01
5.843602750e-01,9.42094e-02,9.99999e-01,9.99589e-01,9.42480e-02,9.99999e-01
5.872820764e-01,9.84001e-02,9.99999e-01,9.96465e-01,9.87491e-02,9.99999e-01
5.902184868e-01,1.02927e-01,9.99999e-01,9.95712e-01,1.03370e-01,9.99999e-01
5.931695792e-01,1.07782e-01,9.99999e-01,9.96971e-01,1.08109e-01,9.99999e-01
5.961354271e-01,1.12590e-01,9.99999e-01,9.96679e-01,1.12965e-01,9.99999e-01
5.991161043e-01,1.17652e-01,9.99999e-01,9.97577e-01,1.17937e-01,9.99999e-01
6.021116848e-01,1.22855e-01,9.99999e-01,9.98624e-01,1.23024e-01,9.99999e-01
6.051222432e-01,1.28133e-01,9.99999e-01,9.99303e-01,1.28222e-01,9.99999e-01
6.081478544e-01,1.33491e-01,9.99999e-01,9.99699e-01,1.33532e-01,9.99999e-01
6.111885937e-01,1.38931e-01,9.99999e-01,9.99872e-01,1.38949e-01,9.99999e-01
6.142445367e-01,1.44465e-01,9.99999e-01,9.99942e-01,1.44473e-01,9.99999e-01
6.173157594e-01,1.50096e-01,9.99999e-01,9.99968e-01,1.50101e-01,9.99999e-01
6.204023382e-01,1.55826e-01,9.99999e-01,9.99973e-01,1.55830e-01,9.99999e-01
6.235043498e-01,1.61640e-01,9.99999e-01,9.99883e-01,1.61658e-01,9.99999e-01
6.266218716e-01,1.67480e-01,9.99999e-01,9.99382e-01,1.67583e-01,9.99999e-01
6.297549810e-01,1.73562e-01,9.99999e-01,9.99773e-01,1.73602e-01,9.99999e-01
6.329037559e-01,1.79631e-01,9.99999e-01,9.99552e-01,1.79711e-01,9.99999e-01
6.360682746e-01,1.85837e-01,9.99999e-01,9.99618e-01,1.85908e-01,9.99999e-01
6.392486160e-01,1.92096e-01,9.99999e-01,9.99506e-01,1.92190e-01,9.99999e-01
6.424448591e-01,1.98424e-01,9.99999e-01,9.99340e-01,1.98555e-01,9.99999e-01
6.456570834e-01,2.04370e-01,9.99999e-01,9.96938e-01,2.04997e-01,9.99999e-01
6.488853688e-01,2.11041e-01,9.99999e-01,9.97753e-01,2.11516e-01,9.99999e-01
6.521297956e-01,2.17607e-01,9.99999e-01,9.97710e-01,2.18107e-01,9.99999e-01
6.553904446e-01,2.24255e-01,9.99999e-01,9.97723e-01,2.24767e-01,9.99999e-01
6.586673968e-01,2.31041e-01,9.99999e-01,9.98048e-01,2.31493e-01,9.99999e-01
6.619607338e-01,2.38012e-01,9.99999e-01,9.98871e-01,2.38281e-01,9.99999e-01
6.652705375e-01,2.44968e-01,9.99999e-01,9.99346e-01,2.45128e-01,9.99999e-01
6.685968902e-01,2.51955e-01,9.99999e-01,9.99696e-01,2.52031e-01,9.99999e-01
6.719398746e-01,2.58950e-01,9.99999e-01,9.99858e-01,2.58986e-01,9.99999e-01
6.752995740e-01,2.65970e-01,9.99999e-01,9.99923e-01,2.65990e-01,9.99999e-01
6.786760719e-01,2.73010e-01,9.99999e-01,9.99889e-01,2.73040e-01,9.99999e-01
6.820694522e-01,2.80079e-01,9.99999e-01,9.99811e-01,2.80132e-01,9.99999e-01
6.854797995e-01,2.87192e-01,9.99999e-01,9.99757e-01,2.87262e-01,9.99999e-01
6.889071985e-01,2.94255e-01,9.99999e-01,9.99413e-01,2.94428e-01,9.99999e-01
6.923517345e-01,2.98742e-01,9.99999e-01,9.90439e-01,3.01625e-01,9.99999e-01
6.958134932e-01,3.07308e-01,9.99999e-01,9.95003e-01,3.08851e-01,9.99999e-01
6.992925606e-01,3.14607e-01,9.99999e-01,9.95267e-01,3.16103e-01,9.99999e-01
7.027890234e-01,3.21485e-01,9.99999e-01,9.94151e-01,3.23376e-01,9.99999e-01
7.063029686e-01,3.29042e-01,9.99999e-01,9.95082e-01,3.30668e-01,9.99999e-01
7.098344834e-01,3.36381e-01,9.99999e-01,9.95281e-01,3.37976e-01,9.99999e-01
7.133836558e-01,3.43129e-01,9.99999e-01,9.93726e-01,3.45296e-01,9.99999e-01
7.169505741e-01,3.35167e-01,9.99999e-01,9.50493e-01,3.52625e-01,9.99998e-01
7.205353270e-01,3.51108e-01,9.99999e-01,9.75408e-01,3.59960e-01,9.99998e-01
7.241380036e-01,3.55891e-01,9.99999e-01,9.68941e-01,3.67299e-01,9.99998e-01
7.277586936e-01,3.64120e-01,9.99999e-01,9.71926e-01,3.74638e-01,9.99998e-01
7.313974871e-01,3.70572e-01,9.99999e-01,9.70149e-01,3.81974e-01,9.99999e-01
7.350544745e-01,3.82919e-01,9.99999e-01,9.83597e-01,3.89305e-01,9.99999e-01
7.387297469e-01,3.91831e-01,9.99999e-01,9.87906e-01,3.96627e-01,9.99999e-01
7.424233956e-01,4.01542e-01,9.99999e-01,9.94065e-01,4.03939e-01,9.99999e-01
7.461355126e-01,4.09757e-01,9.99999e-01,9.96401e-01,4.11236e-01,9.99999e-01
7.498661902e-01,4.17816e-01,9.99999e-01,9.98322e-01,4.18518e-01,9.99999e-01
7.536155211e-01,4.25431e-01,9.99999e-01,9.99177e-01,4.25781e-01,9.99999e-01
7.573835987e-01,4.32840e-01,9.99999e-01,9.99576e-01,4.33023e-01,9.99999e-01
7.611705167e-01,4.40125e-01,9.99999e-01,9.99736e-01,4.40241e-01,9.99999e-01
7.649763693e-01,4.47360e-01,9.99999e-01,9.99834e-01,4.47434e-01,9.99999e-01
7.688012511e-01,4.54546e-01,9.99999e-01,9.99884e-01,4.54598e-01,9.99999e-01
7.726452574e-01,4.61689e-01,9.99999e-01,9.99905e-01,4.61732e-01,9.99999e-01
7.765084837e-01,4.68771e-01,9.99999e-01,9.99865e-01,4.68834e-01,9.99999e-01
7.803910261e-01,4.59160e-01,9.65361e-01,9.99420e-01,4.75902e-01,9.99999e-01
7.842929812e-01,4.12034e-01,8.54831e-01,9.97979e-01,4.82933e-01,9.99999e-01
7.882144461e-01,4.12599e-01,8.45541e-01,9.95834e-01,4.89927e-01,9.99999e-01
7.921555184e-01,4.49519e-01,9.06705e-01,9.97712e-01,4.96881e-01,9.99999e-01
7.961162960e-01,4.69898e-01,9.36461e-01,9.95966e-01,5.03793e-01,9.99999e-01
8.000968774e-01,4.90526e-01,9.65055e-01,9.95337e-01,5.10661e-01,9.99999e-01
8.040973618e-01,5.05670e-01,9.81734e-01,9.95337e-01,5.17485e-01,9.99999e-01
8.081178486e-01,5.14410e-01,9.91579e-01,9.89522e-01,5.24263e-01,9.99999e-01
8.121584379e-01,5.06838e-01,9.97389e-01,9.56982e-01,5.30993e-01,9.99998e-01
8.162192301e-01,5.09988e-01,9.99422e-01,9.49044e-01,5.37674e-01,9.99998e-01
8.203003262e-01,5.30334e-01,9.99990e-01,9.74341e-01,5.44305e-01,9.99998e-01
8.244018279e-01,5.31137e-01,9.99999e-01,9.64154e-01,5.50883e-01,9.99998e-01
8.285238370e-01,5.40311e-01,9.99999e-01,9.69324e-01,5.57410e-01,9.99998e-01
8.326664562e-01,5.46385e-01,9.99999e-01,9.68970e-01,5.63882e-01,9.99999e-01
8.368297885e-01,5.57607e-01,9.99999e-01,9.77744e-01,5.70299e-01,9.99999e-01
8.410139374e-01,5.69004e-01,9.99999e-01,9.86721e-01,5.76661e-01,9.99999e-01
8.452190071e-01,5.79158e-01,9.99999e-01,9.93468e-01,5.82965e-01,9.99999e-01
8.494451021e-01,5.86979e-01,9.99999e-01,9.96209e-01,5.89212e-01,9.99999e-01
8.536923276e-01,5.94065e-01,9.99999e-01,9.97755e-01,5.95401e-01,9.99999e-01
8.579607893e-01,6.00700e-01,9.99999e-01,9.98618e-01,6.01530e-01,9.99999e-01
8.622505932e-01,6.07067e-01,9.99999e-01,9.99121e-01,6.07600e-01,9.99999e-01
8.665618462e-01,5.66778e-01,9.24160e-01,9.99456e-01,6.13609e-01,9.99999e-01
8.708946554e-01,4.15949e-01,6.71765e-01,9.99378e-01,6.19557e-01,9.99999e-01
8.752491287e-01,4.53366e-01,7.25454e-01,9.99168e-01,6.25444e-01,9.99999e-01
8.796253743e-01,5.28565e-01,8.38240e-01,9.98849e-01,6.31269e-01,9.99999e-01
8.840235012e-01,5.80567e-01,9.12545e-01,9.98685e-01,6.37031e-01,9.99999e-01
8.884436187e-01,6.17019e-01,9.64559e-01,9.95221e-01,6.42730e-01,9.99999e-01
8.928858368e-01,6.07483e-01,9.85498e-01,9.50607e-01,6.48367e-01,9.99998e-01
8.973502660e-01,5.95711e-01,9.96456e-01,9.14128e-01,6.53940e-01,9.99998e-01
9.018370173e-01,6.29637e-01,9.99608e-01,9.55154e-01,6.59449e-01,9.99998e-01
9.063462024e-01,6.32503e-01,9.90049e-01,9.60535e-01,6.64895e-01,9.99998e-01
9.108779334e-01,6.15285e-01,9.77222e-01,9.39080e-01,6.70276e-01,9.99997e-01
9.154323231e-01,6.25704e-01,9.94600e-01,9.31070e-01,6.75594e-01,9.99997e-01
9.200094847e-01,5.97139e-01,9.24736e-01,9.45575e-01,6.80848e-01,9.99997e-01
9.246095321e-01,5.62836e-01,8.93366e-01,9.16436e-01,6.86037e-01,9.99995e-01
9.292325798e-01,3.56678e-01,9.15570e-01,5.58286e-01,6.91162e-01,9.99991e-01
9.338787427e-01,3.04061e-01,9.18139e-01,4.71263e-01,6.96224e-01,9.99988e-01
9.385481364e-01,4.87863e-01,9.39166e-01,7.38032e-01,7.01221e-01,9.99988e-01
9.432408771e-01,4.47122e-01,9.62291e-01,6.56560e-01,7.06154e-01,9.99987e-01
9.479570815e-01,3.91273e-01,9.80481e-01,5.60637e-01,7.11024e-01,9.99988e-01
9.526968669e-01,4.58917e-01,9.90540e-01,6.46665e-01,7.15830e-01,9.99991e-01
9.574603512e-01,4.80026e-01,9.95944e-01,6.68703e-01,7.20573e-01,9.99993e-01
9.622476530e-01,5.21825e-01,9.98733e-01,7.20367e-01,7.25252e-01,9.99995e-01
9.670588912e-01,6.03908e-01,9.99620e-01,8.27719e-01,7.29869e-01,9.99996e-01
9.718941857e-01,6.52472e-01,9.99972e-01,8.88437e-01,7.34422e-01,9.99997e-01
9.767536566e-01,6.69810e-01,9.99999e-01,9.06479e-01,7.38914e-01,9.99998e-01
9.816374249e-01,6.91156e-01,9.99999e-01,9.29794e-01,7.43343e-01,9.99998e-01
9.865456120e-01,7.14469e-01,9.99999e-01,9.55542e-01,7.47711e-01,9.99999e-01
9.914783401e-01,7.31178e-01,9.99999e-01,9.72288e-01,7.52017e-01,9.99999e-01
9.964357318e-01,7.44779e-01,9.99999e-01,9.84814e-01,7.56262e-01,9.99999e-01
1.001417910e+00,7.53507e-01,9.99999e-01,9.90872e-01,7.60447e-01,9.99999e-01
1.006425000e+00,7.60588e-01,9.99999e-01,9.94789e-01,7.64572e-01,9.99999e-01
1.011457125e+00,7.66148e-01,9.99999e-01,9.96762e-01,7.68637e-01,9.99999e-01
1.016514411e+00,7.70944e-01,9.99999e-01,9.97801e-01,7.72642e-01,9.99999e-01
1.021596983e+00,7.75188e-01,9.99947e-01,9.98247e-01,7.76589e-01,9.99999e-01
1.026704968e+00,7.76383e-01,9.96113e-01,9.98633e-01,7.80477e-01,9.99999e-01
1.031838492e+00,7.48294e-01,9.55001e-01,9.99006e-01,7.84307e-01,9.99999e-01
1.036997685e+00,1.16424e-01,1.47800e-01,9.99409e-01,7.88080e-01,9.99999e-01
1.042182673e+00,8.79739e-02,1.11176e-01,9.99296e-01,7.91796e-01,9.99999e-01
1.047393587e+00,1.06660e-01,1.34196e-01,9.99067e-01,7.95456e-01,9.99999e-01
1.052630555e+00,2.64365e-03,3.31154e-03,9.98720e-01,7.99059e-01,9.99999e-01
1.057893707e+00,6.84567e-03,8.54145e-03,9.97865e-01,8.02608e-01,9.99999e-01
1.063183176e+00,2.38963e-02,2.97185e-02,9.96488e-01,8.06101e-01,9.99999e-01
1.068499092e+00,6.95150e-02,8.62934e-02,9.94123e-01,8.09541e-01,9.99999e-01
1.073841587e+00,1.71576e-01,2.12297e-01,9.93127e-01,8.12926e-01,9.99999e-01
1.079210795e+00,3.03472e-01,3.74781e-01,9.91196e-01,8.16259e-01,9.99999e-01
1.084606849e+00,4.71165e-01,5.82290e-01,9.86703e-01,8.19539e-01,9.99999e-01
1.090029883e+00,6.09850e-01,7.55191e-01,9.80965e-01,8.22767e-01,9.99998e-01
1.095480033e+00,6.82891e-01,8.70760e-01,9.48959e-01,8.25943e-01,9.99998e-01
1.100957433e+00,6.79422e-01,9.35502e-01,8.75373e-01,8.29069e-01,9.99997e-01
1.106462220e+00,5.78363e-01,9.72802e-01,7.13734e-01,8.32144e-01,9.99994e-01
1.111994531e+00,4.07752e-01,9.89832e-01,4.92874e-01,8.35170e-01,9.99989e-01
1.117554504e+00,2.67299e-01,9.97507e-01,3.19566e-01,8.38147e-01,9.99985e-01
1.123142276e+00,3.66227e-01,9.99835e-01,4.35468e-01,8.41075e-01,9.99982e-01
1.128757988e+00,4.93359e-01,9.99999e-01,5.84590e-01,8.43955e-01,9.99981e-01
1.134401778e+00,2.75896e-01,9.99999e-01,3.25821e-01,8.46788e-01,9.99979e-01
1.140073787e+00,6.15615e-01,9.99999e-01,7.24627e-01,8.49574e-01,9.99983e-01
1.145774156e+00,4.37108e-01,9.99999e-01,5.12855e-01,8.52314e-01,9.99985e-01
1.151503026e+00,4.07148e-01,9.99999e-01,4.76197e-01,8.55009e-01,9.99987e-01
1.157260541e+00,4.59325e-01,9.99999e-01,5.35562e-01,8.57658e-01,9.99990e-01
1.163046844e+00,5.41800e-01,9.99999e-01,6.29810e-01,8.60263e-01,9.99993e-01
1.168862078e+00,6.25249e-01,9.99999e-01,7.24655e-01,8.62825e-01,9.99996e-01
1.174706389e+00,7.09356e-01,9.99999e-01,8.19741e-01,8.65343e-01,9.99998e-01
1.180579921e+00,7.68848e-01,9.99999e-01,8.85955e-01,8.67819e-01,9.99998e-01
1.186482820e+00,8.12690e-01,9.99992e-01,9.33861e-01,8.70252e-01,9.99998e-01
1.192415234e+00,8.27061e-01,9.86206e-01,9.60863e-01,8.72644e-01,9.99998e-01
1.198377311e+00,4.76908e-01,5.60580e-01,9.66923e-01,8.74996e-01,9.99998e-01
1.204369197e+00,1.38081e-11,1.60311e-11,9.68671e-01,8.77307e-01,9.99999e-01
1.210391043e+00,2.46445e-42,2.84958e-42,9.70018e-01,8.79578e-01,9.99999e-01
1.216442998e+00,7.76640e-37,8.94946e-37,9.74430e-01,8.81810e-01,9.99999e-01
1.222525213e+00,2.65186e-36,3.03110e-36,9.80041e-01,8.84004e-01,9.99999e-01
1.228637839e+00,4.03718e-28,4.60010e-28,9.86102e-01,8.86159e-01,9.99999e-01
1.234781029e+00,3.37191e-18,3.81307e-18,9.89660e-01,8.88277e-01,9.99999e-01
1.240954934e+00,2.72994e-12,3.07914e-12,9.93451e-01,8.90358e-01,9.99999e-01
1.247159708e+00,8.38650e-07,9.42652e-07,9.94897e-01,8.92403e-01,9.99999e-01
1.253395507e+00,2.09498e-04,2.35025e-04,9.95469e-01,8.94412e-01,9.99999e-01
1.259662485e+00,7.39708e-03,8.28062e-03,9.95698e-01,8.96385e-01,9.99999e-01
1.265960797e+00,5.57938e-02,6.24486e-02,9.93130e-01,8.98324e-01,9.99999e-01
1.272290601e+00,2.74926e-01,3.08420e-01,9.89233e-01,9.00229e-01,9.99999e-01
1.278652054e+00,2.33627e-01,2.63426e-01,9.78695e-01,9.02100e-01,9.99999e-01
1.285045314e+00,5.89659e-03,6.63604e-03,9.66684e-01,9.03937e-01,9.99998e-01
1.291470541e+00,1.15476e-05,1.33146e-05,9.34231e-01,9.05742e-01,9.99998e-01
1.297927893e+00,3.58439e-03,4.12627e-03,9.15038e-01,9.07515e-01,9.99997e-01
1.304417533e+00,9.64231e-02,1.17419e-01,8.92014e-01,9.09257e-01,9.99995e-01
1.310939621e+00,2.39568e-02,2.84330e-02,8.77378e-01,9.10967e-01,9.99992e-01
1.317494319e+00,4.78942e-15,5.69705e-15,8.67666e-01,9.12646e-01,9.99987e-01
1.324081790e+00,2.01845e-10,2.44126e-10,8.08829e-01,9.14295e-01,9.99979e-01
1.330702199e+00,2.57814e-06,4.23718e-06,4.41341e-01,9.15915e-01,9.99965e-01
1.337355710e+00,1.33491e-06,5.80122e-06,1.19770e-01,9.17505e-01,9.99934e-01
1.344042489e+00,2.10672e-07,1.78186e-06,6.85920e-03,9.19067e-01,9.99861e-01
1.350762701e+00,2.50530e-10,2.59273e-06,2.50382e-05,9.20600e-01,9.99778e-01
1.357516515e+00,3.79477e-10,2.69029e-04,3.15749e-07,9.22106e-01,9.99725e-01
1.364304097e+00,6.22300e-07,4.62526e-03,6.76846e-05,9.23584e-01,9.99706e-01
1.371125618e+00,1.49171e-04,6.07819e-02,1.57938e-03,9.25035e-01,9.99703e-01
1.377981246e+00,4.91443e-04,1.00012e-01,4.02722e-03,9.26460e-01,9.99681e-01
1.384871152e+00,3.18162e-05,2.61881e-01,1.02570e-04,9.27859e-01,9.99690e-01
1.391795508e+00,3.11161e-05,2.89877e-01,9.05285e-05,9.29232e-01,9.99737e-01
1.398754485e+00,2.10342e-04,4.65466e-01,4.50426e-04,9.30581e-01,9.99774e-01
1.405748258e+00,2.41996e-04,5.69550e-01,4.12584e-04,9.31904e-01,9.99797e-01
1.412776999e+00,2.92098e-04,7.00654e-01,4.13425e-04,9.33203e-01,9.99837e-01
1.419840884e+00,5.24235e-04,6.30090e-01,7.21754e-04,9.34478e-01,9.99878e-01
1.426940089e+00,1.05438e-03,5.66235e-02,3.42245e-03,9.35730e-01,9.99924e-01
1.434074789e+00,0.00000e+00,0.00000e+00,1.31124e-02,9.36958e-01,9.99952e-01
1.441245163e+00,0.00000e+00,0.00000e+00,3.40710e-02,9.38164e-01,9.99963e-01
1.448451389e+00,0.00000e+00,0.00000e+00,9.17667e-02,9.39348e-01,9.99969e-01
1.455693646e+00,0.00000e+00,0.00000e+00,2.02411e-01,9.40510e-01,9.99974e-01
1.462972114e+00,2.71880e-165,6.69118e-165,2.51467e-01,9.41650e-01,9.99978e-01
1.470286975e+00,1.39581e-69,3.66744e-69,2.00266e-01,9.42769e-01,9.99980e-01
