#,Wave/freq,Total,CO2,H2O,Rayleigh,CIA
4.000000000e-01,1.15345e-07,9.99999e-01,9.99968e-01,1.15348e-07,9.99999e-01
4.020000000e-01,1.58193e-07,9.99999e-01,9.99980e-01,1.58196e-07,9.99999e-01
4.040100000e-01,2.15538e-07,9.99999e-01,9.99991e-01,2.15540e-07,9.99999e-01
4.060300500e-01,2.91882e-07,9.99999e-01,9.99997e-01,2.91882e-07,9.99999e-01
4.080602003e-01,3.92903e-07,9.99999e-01,9.99998e-01,3.92904e-07,9.99999e-01
4.101005013e-01,5.25793e-07,9.99999e-01,9.99999e-01,5.25793e-07,9.99999e-01
4.121510038e-01,6.99590e-07,9.99999e-01,9.99998e-01,6.99591e-07,9.99999e-01
4.142117588e-01,9.25593e-07,9.99999e-01,9.99990e-01,9.25601e-07,9.99999e-01
4.162828176e-01,1.21783e-06,9.99999e-01,9.99960e-01,1.21787e-06,9.99999e-01
4.183642317e-01,1.59373e-06,9.99999e-01,9.99976e-01,1.59377e-06,9.99999e-01
4.204560528e-01,2.07461e-06,9.99999e-01,9.99985e-01,2.07464e-06,9.99999e-01
4.225583331e-01,2.68655e-06,9.99999e-01,9.99994e-01,2.68656e-06,9.99999e-01
4.246711247e-01,3.46124e-06,9.99999e-01,9.99995e-01,3.46126e-06,9.99999e-01
4.267944804e-01,4.43706e-06,9.99999e-01,9.99993e-01,4.43708e-06,9.99999e-01
4.289284528e-01,5.66016e-06,9.99999e-01,9.99994e-01,5.66019e-06,9.99999e-01
4.310730950e-01,7.18579e-06,9.99999e-01,9.99997e-01,7.18580e-06,9.99999e-01
4.332284605e-01,9.07972e-06,9.99999e-01,9.99998e-01,9.07972e-06,9.99999e-01
4.353946028e-01,1.14199e-05,9.99999e-01,9.99999e-01,1.14199e-05,9.99999e-01
4.375715758e-01,1.42983e-05,9.99999e-01,9.99995e-01,1.42984e-05,9.99999e-01
4.397594337e-01,1.78224e-05,9.99999e-01,9.99965e-01,1.78230e-05,9.99999e-01
4.419582309e-01,2.21163e-05,9.99999e-01,9.99827e-01,2.21201e-05,9.99999e-01
4.441680220e-01,2.73325e-05,9.99999e-01,9.99864e-01,2.73362e-05,9.99999e-01
4.463888621e-01,3.36367e-05,9.99999e-01,9.99859e-01,3.36414e-05,9.99999e-01
4.486208064e-01,4.12279e-05,9.99999e-01,9.99912e-01,4.12315e-05,9.99999e-01
4.508639105e-01,5.03294e-05,9.99999e-01,9.99958e-01,5.03315e-05,9.99999e-01
4.531182300e-01,6.11973e-05,9.99999e-01,9.99983e-01,6.11982e-05,9.99999e-01
4.553838212e-01,7.41236e-05,9.99999e-01,9.99988e-01,7.41244e-05,9.99999e-01
4.576607403e-01,8.94412e-05,9.99999e-01,9.99994e-01,8.94416e-05,9.99999e-01
4.599490440e-01,1.07524e-04,9.99999e-01,9.99995e-01,1.07524e-04,9.99999e-01
4.622487892e-01,1.28794e-04,9.99999e-01,9.99998e-01,1.28794e-04,9.99999e-01
4.645600332e-01,1.53721e-04,9.99999e-01,9.99997e-01,1.53721e-04,9.99999e-01
4.668828333e-01,1.82826e-04,9.99999e-01,9.99958e-01,1.82833e-04,9.99999e-01
4.692172475e-01,2.16696e-04,9.99999e-01,9.99911e-01,2.16715e-04,9.99999e-01
4.715633337e-01,2.56000e-04,9.99999e-01,9.99942e-01,2.56014e-04,9.99999e-01
4.739211504e-01,3.01430e-04,9.99999e-01,9.99944e-01,3.01446e-04,9.99999e-01
4.762907561e-01,3.53787e-04,9.99999e-01,9.99970e-01,3.53797e-04,9.99999e-01
4.786722099e-01,4.13923e-04,9.99999e-01,9.99987e-01,4.13928e-04,9.99999e-01
4.810655710e-01,4.82778e-04,9.99999e-01,9.99996e-01,4.82780e-04,9.99999e-01
4.834708988e-01,5.61356e-04,9.99999e-01,9.99966e-01,5.61375e-04,9.99999e-01
4.858882533e-01,6.50783e-04,9.99999e-01,9.99937e-01,6.50824e-04,9.99999e-01
4.883176946e-01,7.52286e-04,9.99999e-01,9.99947e-01,7.52325e-04,9.99999e-01
4.907592831e-01,8.67129e-04,9.99999e-01,9.99952e-01,8.67170e-04,9.99999e-01
4.932130795e-01,9.96712e-04,9.99999e-01,9.99966e-01,9.96745e-04,9.99999e-01
4.956791449e-01,1.14251e-03,9.99999e-01,9.99981e-01,1.14253e-03,9.99999e-01
4.981575406e-01,1.30601e-03,9.99999e-01,9.99911e-01,1.30612e-03,9.99999e-01
5.006483283e-01,1.48885e-03,9.99999e-01,9.99770e-01,1.48919e-03,9.99999e-01
5.031515699e-01,1.69156e-03,9.99999e-01,9.98837e-01,1.69352e-03,9.99999e-01
5.056673278e-01,1.91983e-03,9.99999e-01,9.99385e-01,1.92101e-03,9.99999e-01
5.081956644e-01,2.17195e-03,9.99999e-01,9.99225e-01,2.17364e-03,9.99999e-01
5.107366428e-01,2.45221e-03,9.99999e-01,9.99476e-01,2.45349e-03,9.99999e-01
5.132903260e-01,2.76193e-03,9.99999e-01,9.99700e-01,2.76275e-03,9.99999e-01
5.158567776e-01,3.10332e-03,9.99999e-01,9.99873e-01,3.10372e-03,9.99999e-01
5.184360615e-01,3.47858e-03,9.99999e-01,9.99948e-01,3.47875e-03,9.99999e-01
5.210282418e-01,3.89026e-03,9.99999e-01,9.99980e-01,3.89033e-03,9.99999e-01
5.236333830e-01,4.34068e-03,9.99999e-01,9.99923e-01,4.34100e-03,9.99999e-01
5.262515499e-01,4.83318e-03,9.99999e-01,9.99952e-01,4.83341e-03,9.99999e-01
5.288828077e-01,5.37003e-03,9.99999e-01,9.99956e-01,5.37026e-03,9.99999e-01
5.315272217e-01,5.95411e-03,9.99999e-01,9.99961e-01,5.95434e-03,9.99999e-01
5.341848578e-01,6.58833e-03,9.99999e-01,9.99974e-01,6.58849e-03,9.99999e-01
5.368557821e-01,7.27499e-03,9.99999e-01,9.99911e-01,7.27563e-03,9.99999e-01
5.395400610e-01,8.01615e-03,9.99999e-01,9.99682e-01,8.01870e-03,9.99999e-01
5.422377613e-01,8.81707e-03,9.99999e-01,9.99587e-01,8.82070e-03,9.99999e-01
5.449489501e-01,9.68096e-03,9.99999e-01,9.99617e-01,9.68466e-03,9.99999e-01
5.476736949e-01,1.06100e-02,9.99999e-01,9.99660e-01,1.06136e-02,9.99999e-01
5.504120634e-01,1.16078e-02,9.99999e-01,9.99753e-01,1.16107e-02,9.99999e-01
5.531641237e-01,1.26773e-02,9.99999e-01,9.99875e-01,1.26789e-02,9.99999e-01
5.559299443e-01,1.38205e-02,9.99999e-01,9.99939e-01,1.38214e-02,9.99999e-01
5.587095940e-01,1.50405e-02,9.99999e-01,9.99962e-01,1.50411e-02,9.99999e-01
5.615031420e-01,1.63405e-02,9.99999e-01,9.99957e-01,1.63412e-02,9.99999e-01
5.643106577e-01,1.77237e-02,9.99999e-01,9.99952e-01,1.77245e-02,9.99999e-01
5.671322110e-01,1.91832e-02,9.99999e-01,9.99427e-01,1.91942e-02,9.99999e-01
5.699678720e-01,2.07403e-02,9.99999e-01,9.99386e-01,2.07530e-02,9.99999e-01
5.728177114e-01,2.23896e-02,9.99999e-01,9.99363e-01,2.24039e-02,9.99999e-01
5.756818000e-01,2.41354e-02,9.99999e-01,9.99415e-01,2.41495e-02,9.99999e-01
5.785602090e-01,2.59794e-02,9.99999e-01,9.99490e-01,2.59926e-02,9.99999e-01
5.814530100e-01,2.79215e-02,9.99999e-01,9.99488e-01,2.79358e-02,9.99999e-01
5.843602750e-01,2.99632e-02,9.99999e-01,9.99391e-01,2.99815e-02,9.99999e-01
5.872820764e-01,3.19638e-02,9.99999e-01,9.94760e-01,3.21321e-02,9.99999e-01
5.902184868e-01,3.41712e-02,9.99999e-01,9.93640e-01,3.43899e-02,9.99999e-01
5.931695792e-01,3.65919e-02,9.99999e-01,9.95508e-01,3.67570e-02,9.99999e-01
5.961354271e-01,3.90421e-02,9.99999e-01,9.95073e-01,3.92354e-02,9.99999e-01
5.991161043e-01,4.16766e-02,9.99999e-01,9.96404e-01,4.18269e-02,9.99999e-01
6.021116848e-01,4.44425e-02,9.99999e-01,9.97957e-01,4.45334e-02,9.99999e-01
6.051222432e-01,4.73073e-02,9.99999e-01,9.98965e-01,4.73563e-02,9.99999e-01
6.081478544e-01,5.02746e-02,9.99999e-01,9.99553e-01,5.02970e-02,9.99999e-01
6.111885937e-01,5.33467e-02,9.99999e-01,9.99810e-01,5.33568e-02,9.99999e-01
6.142445367e-01,5.65320e-02,9.99999e-01,9.99915e-01,5.65368e-02,9.99999e-01
6.173157594e-01,5.98350e-02,9.99999e-01,9.99953e-01,5.98378e-02,9.99999e-01
6.204023382e-01,6.32581e-02,9.99999e-01,9.99960e-01,6.32606e-02,9.99999e-01
6.235043498e-01,6.67942e-02,9.99999e-01,9.99827e-01,6.68057e-02,9.99999e-01
6.266218716e-01,7.04091e-02,9.99999e-01,9.99083e-01,7.04736e-02,9.99999e-01
6.297549810e-01,7.42395e-02,9.99999e-01,9.99663e-01,7.42645e-02,9.99999e-01
6.329037559e-01,7.81263e-02,9.99999e-01,9.99335e-01,7.81782e-02,9.99999e-01
6.360682746e-01,8.21684e-02,9.99999e-01,9.99434e-01,8.22148e-02,9.99999e-01
6.392486160e-01,8.63106e-02,9.99999e-01,9.99266e-01,8.63739e-02,9.99999e-01
6.424448591e-01,9.05663e-02,9.99999e-01,9.99021e-01,9.06550e-02,9.99999e-01
6.456570834e-01,9.46259e-02,9.99999e-01,9.95460e-01,9.50574e-02,9.99999e-01
6.488853688e-01,9.92483e-02,9.99999e-01,9.96666e-01,9.95802e-02,9.99999e-01
6.521297956e-01,1.03868e-01,9.99999e-01,9.96602e-01,1.04223e-01,9.99999e-01
6.553904446e-01,1.08615e-01,9.99999e-01,9.96621e-01,1.08983e-01,9.99999e-01
6.586673968e-01,1.13531e-01,9.99999e-01,9.97103e-01,1.13861e-01,9.99999e-01
6.619607338e-01,1.18655e-01,9.99999e-01,9.98324e-01,1.18854e-01,9.99999e-01
6.652705375e-01,1.23840e-01,9.99999e-01,9.99029e-01,1.23961e-01,9.99999e-01
6.685968902e-01,1.29121e-01,9.99999e-01,9.99548e-01,1.29179e-01,9.99999e-01
6.719398746e-01,1.34480e-01,9.99999e-01,9.99790e-01,1.34508e-01,9.99999e-01
6.752995740e-01,1.39930e-01,9.99999e-01,9.99886e-01,1.39945e-01,9.99999e-01
6.786760719e-01,1.45465e-01,9.99999e-01,9.99836e-01,1.45488e-01,9.99999e-01
6.820694522e-01,1.51093e-01,9.99999e-01,9.99720e-01,1.51135e-01,9.99999e-01
6.854797995e-01,1.56826e-01,9.99999e-01,9.99639e-01,1.56882e-01,9.99999e-01
6.889071985e-01,1.62587e-01,9.99999e-01,9.99130e-01,1.62728e-01,9.99999e-01
6.923517345e-01,1.66284e-01,9.99999e-01,9.85851e-01,1.68670e-01,9.99999e-01
6.958134932e-01,1.73411e-01,9.99999e-01,9.92588e-01,1.74706e-01,9.99999e-01
6.992925606e-01,1.79563e-01,9.99999e-01,9.92986e-01,1.80831e-01,9.99999e-01
7.027890234e-01,1.85422e-01,9.99999e-01,9.91330e-01,1.87044e-01,9.99999e-01
7.063029686e-01,1.91932e-01,9.99999e-01,9.92707e-01,1.93341e-01,9.99999e-01
7.098344834e-01,1.98323e-01,9.99999e-01,9.93002e-01,1.99720e-01,9.99999e-01
7.133836558e-01,2.04262e-01,9.99999e-01,9.90710e-01,2.06177e-01,9.99999e-01
7.169505741e-01,1.97317e-01,9.99999e-01,9.27640e-01,2.12709e-01,9.99998e-01
7.205353270e-01,2.11365e-01,9.99999e-01,9.63762e-01,2.19313e-01,9.99998e-01
7.241380036e-01,2.15664e-01,9.99999e-01,9.54329e-01,2.25985e-01,9.99998e-01
7.277586936e-01,2.23108e-01,9.99999e-01,9.58688e-01,2.32722e-01,9.99998e-01
7.313974871e-01,2.28992e-01,9.99999e-01,9.56042e-01,2.39521e-01,9.99998e-01
7.350544745e-01,2.40406e-01,9.99999e-01,9.75756e-01,2.46379e-01,9.99999e-01
7.387297469e-01,2.48758e-01,9.99999e-01,9.82099e-01,2.53292e-01,9.99999e-01
7.424233956e-01,2.57966e-01,9.99999e-01,9.91199e-01,2.60256e-01,9.99999e-01
7.461355126e-01,2.65842e-01,9.99999e-01,9.94660e-01,2.67269e-01,9.99999e-01
7.498661902e-01,2.73643e-01,9.99999e-01,9.97509e-01,2.74326e-01,9.99999e-01
7.536155211e-01,2.81081e-01,9.99999e-01,9.98778e-01,2.81425e-01,9.99999e-01
7.573835987e-01,2.88381e-01,9.99999e-01,9.99370e-01,2.88562e-01,9.99999e-01
7.611705167e-01,2.95618e-01,9.99999e-01,9.99608e-01,2.95734e-01,9.99999e-01
7.649763693e-01,3.02863e-01,9.99999e-01,9.99754e-01,3.02937e-01,9.99999e-01
7.688012511e-01,3.10115e-01,9.99999e-01,9.99829e-01,3.10168e-01,9.99999e-01
7.726452574e-01,3.17379e-01,9.99999e-01,9.99859e-01,3.17423e-01,9.99999e-01
7.765084837e-01,3.24636e-01,9.99999e-01,9.99800e-01,3.24700e-01,9.99999e-01
7.803910261e-01,3.15553e-01,9.51254e-01,9.99140e-01,3.31995e-01,9.99999e-01
7.842929812e-01,2.68964e-01,7.94904e-01,9.97003e-01,3.39305e-01,9.99999e-01
7.882144461e-01,2.69844e-01,7.83045e-01,9.93821e-01,3.46627e-01,9.99999e-01
7.921555184e-01,3.05244e-01,8.65209e-01,9.96604e-01,3.53958e-01,9.99999e-01
7.961162960e-01,3.25841e-01,9.07220e-01,9.94020e-01,3.61294e-01,9.99999e-01
8.000968774e-01,3.47275e-01,9.48591e-01,9.93085e-01,3.68633e-01,9.99999e-01
8.040973618e-01,3.63298e-01,9.72997e-01,9.93086e-01,3.75972e-01,9.99999e-01
8.081178486e-01,3.72670e-01,9.87522e-01,9.84500e-01,3.83307e-01,9.99999e-01
8.121584379e-01,3.64611e-01,9.96123e-01,9.36953e-01,3.90637e-01,9.99998e-01
8.162192301e-01,3.67986e-01,9.99142e-01,9.25457e-01,3.97957e-01,9.99998e-01
8.203003262e-01,3.90033e-01,9.99986e-01,9.62423e-01,4.05266e-01,9.99998e-01
8.244018279e-01,3.90966e-01,9.99999e-01,9.47654e-01,4.12561e-01,9.99998e-01
8.285238370e-01,4.00892e-01,9.99999e-01,9.54868e-01,4.19840e-01,9.99998e-01
8.326664562e-01,4.07605e-01,9.99999e-01,9.54356e-01,4.27099e-01,9.99998e-01
8.368297885e-01,4.20069e-01,9.99999e-01,9.67150e-01,4.34337e-01,9.99999e-01
8.410139374e-01,4.32875e-01,9.99999e-01,9.80351e-01,4.41551e-01,9.99999e-01
8.452190071e-01,4.44393e-01,9.99999e-01,9.90315e-01,4.48738e-01,9.99999e-01
8.494451021e-01,4.53334e-01,9.99999e-01,9.94376e-01,4.55897e-01,9.99999e-01
8.536923276e-01,4.61484e-01,9.99999e-01,9.96668e-01,4.63026e-01,9.99999e-01
8.579607893e-01,4.69158e-01,9.99999e-01,9.97948e-01,4.70122e-01,9.99999e-01
8.622505932e-01,4.76561e-01,9.99999e-01,9.98695e-01,4.77183e-01,9.99999e-01
8.665618462e-01,4.38305e-01,9.05894e-01,9.99193e-01,4.84208e-01,9.99999e-01
8.708946554e-01,2.75912e-01,5.62209e-01,9.99077e-01,4.91194e-01,9.99999e-01
8.752491287e-01,3.11210e-01,6.25482e-01,9.98765e-01,4.98140e-01,9.99999e-01
8.796253743e-01,3.88734e-01,7.70962e-01,9.98292e-01,5.05045e-01,9.99999e-01
8.840235012e-01,4.46160e-01,8.73233e-01,9.98049e-01,5.11905e-01,9.99999e-01
8.884436187e-01,4.88248e-01,9.47857e-01,9.92928e-01,5.18721e-01,9.99999e-01
8.928858368e-01,4.77232e-01,9.78542e-01,9.27815e-01,5.25490e-01,9.99998e-01
8.973502660e-01,4.63682e-01,9.94740e-01,8.75702e-01,5.32211e-01,9.99997e-01
9.018370173e-01,5.03252e-01,9.99418e-01,9.34399e-01,5.38883e-01,9.99997e-01
9.063462024e-01,5.06796e-01,9.85348e-01,9.42198e-01,5.45504e-01,9.99997e-01
9.108779334e-01,4.86467e-01,9.66387e-01,9.11236e-01,5.52074e-01,9.99997e-01
9.154323231e-01,4.98656e-01,9.91991e-01,8.99680e-01,5.58590e-01,9.99996e-01
9.200094847e-01,4.67879e-01,8.93866e-01,9.20547e-01,5.65053e-01,9.99996e-01
9.246095321e-01,4.27338e-01,8.46159e-01,8.80021e-01,5.71460e-01,9.99993e-01
9.292325798e-01,2.22356e-01,8.78101e-01,4.30181e-01,5.77811e-01,9.99987e-01
9.338787427e-01,1.76732e-01,8.81329e-01,3.37215e-01,5.84105e-01,9.99983e-01
9.385481364e-01,3.48964e-01,9.11165e-01,6.43815e-01,5.90342e-01,9.99983e-01
9.432408771e-01,3.09776e-01,9.44532e-01,5.47393e-01,5.96520e-01,9.99981e-01
9.479570815e-01,2.56882e-01,9.71157e-01,4.37971e-01,6.02638e-01,9.99983e-01
9.526968669e-01,3.20571e-01,9.85987e-01,5.33234e-01,6.08697e-01,9.99987e-01
9.574603512e-01,3.39544e-01,9.93982e-01,5.55400e-01,6.14695e-01,9.99990e-01
9.622476530e-01,3.82765e-01,9.98119e-01,6.17796e-01,6.20632e-01,9.99993e-01
9.670588912e-01,4.74078e-01,9.99435e-01,7.57096e-01,6.26508e-01,9.99995e-01
9.718941857e-01,5.30738e-01,9.99959e-01,8.39380e-01,6.32321e-01,9.99997e-01
9.767536566e-01,5.51729e-01,9.99999e-01,8.64683e-01,6.38072e-01,9.99997e-01
9.816374249e-01,5.77898e-01,9.99999e-01,8.97693e-01,6.43760e-01,9.99998e-01
9.865456120e-01,6.07011e-01,9.99999e-01,9.34748e-01,6.49385e-01,9.99998e-01
9.914783401e-01,6.28184e-01,9.99999e-01,9.59139e-01,6.54946e-01,9.99999e-01
9.964357318e-01,6.45609e-01,9.99999e-01,9.77537e-01,6.60444e-01,9.99999e-01
1.001417910e+00,6.56873e-01,9.99999e-01,9.86476e-01,6.65878e-01,9.99999e-01
1.006425000e+00,6.66061e-01,9.99999e-01,9.92272e-01,6.71248e-01,9.99999e-01
1.011457125e+00,6.73304e-01,9.99999e-01,9.95195e-01,6.76554e-01,9.99999e-01
1.016514411e+00,6.79571e-01,9.99999e-01,9.96736e-01,6.81796e-01,9.99999e-01
1.021596983e+00,6.85135e-01,9.99923e-01,9.97399e-01,6.86974e-01,9.99999e-01
1.026704968e+00,6.86717e-01,9.94251e-01,9.97971e-01,6.92087e-01,9.99999e-01
1.031838492e+00,6.55361e-01,9.41410e-01,9.98524e-01,6.97137e-01,9.99999e-01
1.036997685e+00,7.22693e-02,1.02999e-01,9.99123e-01,7.02123e-01,9.99999e-01
1.042182673e+00,3.07680e-02,4.35548e-02,9.98956e-01,7.07044e-01,9.99999e-01
1.047393587e+00,4.74170e-02,6.66859e-02,9.98615e-01,7.11902e-01,9.99999e-01
1.052630555e+00,2.78990e-04,3.89784e-04,9.98101e-01,7.16697e-01,9.99999e-01
1.057893707e+00,8.71416e-04,1.21024e-03,9.96833e-01,7.21428e-01,9.99999e-01
1.063183176e+00,4.89548e-03,6.76544e-03,9.94791e-01,7.26096e-01,9.99999e-01
1.068499092e+00,2.03680e-02,2.80664e-02,9.91289e-01,7.30701e-01,9.99999e-01
1.073841587e+00,7.53603e-02,1.03347e-01,9.89819e-01,7.35244e-01,9.99999e-01
1.079210795e+00,1.73788e-01,2.37639e-01,9.86959e-01,7.39724e-01,9.99999e-01
1.084606849e+00,3.28761e-01,4.50054e-01,9.80333e-01,7.44142e-01,9.99998e-01
1.090029883e+00,4.80666e-01,6.59958e-01,9.71909e-01,7.48498e-01,9.99998e-01
1.095480033e+00,5.68132e-01,8.14609e-01,9.25273e-01,7.52793e-01,9.99997e-01
1.100957433e+00,5.64072e-01,9.05816e-01,8.21306e-01,7.57028e-01,9.99996e-01
1.106462220e+00,4.46548e-01,9.59893e-01,6.09835e-01,7.61201e-01,9.99992e-01
1.111994531e+00,2.69251e-01,9.84938e-01,3.56646e-01,7.65315e-01,9.99984e-01
1.117554504e+00,1.47370e-01,9.96299e-01,1.92079e-01,7.69369e-01,9.99978e-01
1.123142276e+00,2.37638e-01,9.99756e-01,3.07311e-01,7.73364e-01,9.99974e-01
1.128757988e+00,3.57452e-01,9.99999e-01,4.59875e-01,7.77300e-01,9.99972e-01
1.134401778e+00,1.78990e-01,9.99999e-01,2.29135e-01,7.81177e-01,9.99969e-01
1.140073787e+00,4.89798e-01,9.99999e-01,6.23963e-01,7.84997e-01,9.99975e-01
1.145774156e+00,3.00862e-01,9.99999e-01,3.81445e-01,7.88760e-01,9.99978e-01
1.151503026e+00,2.72920e-01,9.99999e-01,3.44399e-01,7.92465e-01,9.99981e-01
1.157260541e+00,3.19206e-01,9.99999e-01,4.00959e-01,7.96115e-01,9.99986e-01
1.163046844e+00,4.05652e-01,9.99999e-01,5.07254e-01,7.99708e-01,9.99991e-01
1.168862078e+00,4.98938e-01,9.99999e-01,6.21154e-01,8.03247e-01,9.99995e-01
1.174706389e+00,6.01212e-01,9.99999e-01,7.45246e-01,8.06730e-01,9.99997e-01
1.180579921e+00,6.77130e-01,9.99999e-01,8.35798e-01,8.10160e-01,9.99998e-01
1.186482820e+00,7.34997e-01,9.99989e-01,9.03468e-01,8.13536e-01,9.99998e-01
1.192415234e+00,7.54584e-01,9.79818e-01,9.42460e-01,8.16859e-01,9.99998e-01
1.198377311e+00,4.32037e-01,5.49207e-01,9.51307e-01,8.20129e-01,9.99998e-01
1.204369197e+00,4.10107e-16,5.11874e-16,9.53888e-01,8.23348e-01,9.99998e-01
1.210391043e+00,9.01193e-62,1.11805e-61,9.55837e-01,8.26515e-01,9.99998e-01
1.216442998e+00,1.31695e-53,1.62558e-53,9.62289e-01,8.29632e-01,9.99999e-01
1.222525213e+00,8.14995e-53,9.93928e-53,9.70514e-01,8.32698e-01,9.99999e-01
1.228637839e+00,6.90564e-41,8.38106e-41,9.79436e-01,8.35715e-01,9.99999e-01
1.234781029e+00,6.22620e-26,7.47338e-26,9.84687e-01,8.38682e-01,9.99999e-01
1.240954934e+00,2.10485e-17,2.51650e-17,9.90293e-01,8.41602e-01,9.99999e-01
1.247159708e+00,4.71698e-09,5.61078e-09,9.92432e-01,8.44473e-01,9.99999e-01
1.253395507e+00,5.15021e-06,6.10810e-06,9.93281e-01,8.47298e-01,9.99999e-01
1.259662485e+00,8.62467e-04,1.01955e-03,9.93620e-01,8.50076e-01,9.99999e-01
1.265960797e+00,1.64179e-02,1.93955e-02,9.89817e-01,8.52807e-01,9.99999e-01
1.272290601e+00,1.50708e-01,1.78664e-01,9.84062e-01,8.55494e-01,9.99999e-01
1.278652054e+00,1.27932e-01,1.52656e-01,9.68560e-01,8.58135e-01,9.99998e-01
1.285045314e+00,1.45615e-03,1.73408e-03,9.51035e-01,8.60732e-01,9.99998e-01
1.291470541e+00,7.36037e-08,9.05450e-08,9.04118e-01,8.63286e-01,9.99997e-01
1.297927893e+00,5.35032e-04,6.57098e-04,8.76860e-01,8.65796e-01,9.99996e-01
1.304417533e+00,3.22804e-02,4.29376e-02,8.44516e-01,8.68264e-01,9.99993e-01
1.310939621e+00,7.88947e-03,1.01413e-02,8.24196e-01,8.70690e-01,9.99988e-01
1.317494319e+00,1.30101e-21,1.67471e-21,8.10732e-01,8.73075e-01,9.99981e-01
1.324081790e+00,1.32134e-14,1.74331e-14,7.31699e-01,8.75419e-01,9.99969e-01
1.330702199e+00,7.55941e-09,1.45132e-08,3.27302e-01,8.77723e-01,9.99949e-01
1.337355710e+00,4.58006e-09,3.90539e-08,4.95083e-02,8.79987e-01,9.99903e-01
1.344042489e+00,6.59097e-10,1.41774e-08,1.87309e-03,8.82212e-01,9.99794e-01
1.350762701e+00,1.62612e-14,8.09101e-09,3.87589e-07,8.84398e-01,9.99671e-01
1.357516515e+00,3.47177e-14,9.00900e-06,4.83829e-10,8.86547e-01,9.99593e-01
1.364304097e+00,1.52928e-09,3.87627e-04,1.45116e-06,8.88658e-01,9.99563e-01
1.371125618e+00,4.60540e-06,1.73724e-02,1.42801e-04,8.90733e-01,9.99560e-01
1.377981246e+00,2.08747e-05,3.34394e-02,4.38160e-04,8.92771e-01,9.99527e-01
1.384871152e+00,9.23131e-07,1.38415e-01,5.19784e-06,8.94773e-01,9.99540e-01
1.391795508e+00,3.80866e-07,1.60741e-01,1.76203e-06,8.96740e-01,9.99610e-01
1.398754485e+00,7.15588e-06,3.21634e-01,2.18366e-05,8.98673e-01,9.99665e-01
1.405748258e+00,9.69682e-06,4.34882e-01,2.12517e-05,9.00571e-01,9.99699e-01
1.412776999e+00,1.23051e-05,5.90130e-01,2.01038e-05,9.02436e-01,9.99758e-01
1.419840884e+00,2.56005e-05,5.29830e-01,4.09607e-05,9.04268e-01,9.99819e-01
1.426940089e+00,1.45001e-04,3.50038e-02,4.27975e-04,9.06067e-01,9.99888e-01
1.434074789e+00,0.00000e+00,0.00000e+00,2.44788e-03,9.07834e-01,9.99930e-01
1.441245163e+00,0.00000e+00,0.00000e+00,8.18065e-03,9.09570e-01,9.99945e-01
1.448451389e+00,0.00000e+00,0.00000e+00,3.47560e-02,9.11274e-01,9.99954e-01
1.455693646e+00,0.00000e+00,0.00000e+00,1.02067e-01,9.12948e-01,9.99962e-01
1.462972114e+00,2.39925e-244,9.13794e-244,1.35865e-01,9.14592e-01,9.99967e-01
1.470286975e+00,3.14478e-102,1.31994e-101,9.85067e-02,9.16206e-01,9.99971e-01
