#,Wave/freq,Total,CO2,H2O,Rayleigh,CIA
4.000000000e-01,1.58415e-07,9.99999e-01,9.99968e-01,1.58420e-07,9.99999e-01
4.020000000e-01,2.15903e-07,9.99999e-01,9.99980e-01,2.15907e-07,9.99999e-01
4.040100000e-01,2.92366e-07,9.99999e-01,9.99991e-01,2.92369e-07,9.99999e-01
4.060300500e-01,3.93545e-07,9.99999e-01,9.99997e-01,3.93546e-07,9.99999e-01
4.080602003e-01,5.26635e-07,9.99999e-01,9.99998e-01,5.26635e-07,9.99999e-01
4.101005013e-01,7.00689e-07,9.99999e-01,9.99999e-01,7.00689e-07,9.99999e-01
4.121510038e-01,9.27024e-07,9.99999e-01,9.99998e-01,9.27025e-07,9.99999e-01
4.142117588e-01,1.21970e-06,9.99999e-01,9.99991e-01,1.21971e-06,9.99999e-01
4.162828176e-01,1.59607e-06,9.99999e-01,9.99961e-01,1.59613e-06,9.99999e-01
4.183642317e-01,2.07760e-06,9.99999e-01,9.99976e-01,2.07765e-06,9.99999e-01
4.204560528e-01,2.69034e-06,9.99999e-01,9.99985e-01,2.69038e-06,9.99999e-01
4.225583331e-01,3.46606e-06,9.99999e-01,9.99994e-01,3.46608e-06,9.99999e-01
4.246711247e-01,4.44312e-06,9.99999e-01,9.99995e-01,4.44314e-06,9.99999e-01
4.267944804e-01,5.66773e-06,9.99999e-01,9.99993e-01,5.66776e-06,9.99999e-01
4.289284528e-01,7.19519e-06,9.99999e-01,9.99994e-01,7.19523e-06,9.99999e-01
4.310730950e-01,9.09138e-06,9.99999e-01,9.99997e-01,9.09140e-06,9.99999e-01
4.332284605e-01,1.14343e-05,9.99999e-01,9.99998e-01,1.14343e-05,9.99999e-01
4.353946028e-01,1.43160e-05,9.99999e-01,9.99999e-01,1.43160e-05,9.99999e-01
4.375715758e-01,1.78446e-05,9.99999e-01,9.99995e-01,1.78446e-05,9.99999e-01
4.397594337e-01,2.21456e-05,9.99999e-01,9.99965e-01,2.21463e-05,9.99999e-01
4.419582309e-01,2.73634e-05,9.99999e-01,9.99828e-01,2.73680e-05,9.99999e-01
4.441680220e-01,3.36754e-05,9.99999e-01,9.99867e-01,3.36798e-05,9.99999e-01
4.463888621e-01,4.12720e-05,9.99999e-01,9.99862e-01,4.12776e-05,9.99999e-01
4.486208064e-01,5.03823e-05,9.99999e-01,9.99914e-01,5.03866e-05,9.99999e-01
4.508639105e-01,6.12615e-05,9.99999e-01,9.99959e-01,6.12640e-05,9.99999e-01
4.531182300e-01,7.42013e-05,9.99999e-01,9.99983e-01,7.42025e-05,9.99999e-01
4.553838212e-01,8.95330e-05,9.99999e-01,9.99988e-01,8.95340e-05,9.99999e-01
4.576607403e-01,1.07633e-04,9.99999e-01,9.99994e-01,1.07633e-04,9.99999e-01
4.599490440e-01,1.28921e-04,9.99999e-01,9.99996e-01,1.28921e-04,9.99999e-01
4.622487892e-01,1.53871e-04,9.99999e-01,9.99998e-01,1.53871e-04,9.99999e-01
4.645600332e-01,1.83007e-04,9.99999e-01,9.99997e-01,1.83007e-04,9.99999e-01
4.668828333e-01,2.16909e-04,9.99999e-01,9.99958e-01,2.16917e-04,9.99999e-01
4.692172475e-01,2.56227e-04,9.99999e-01,9.99913e-01,2.56249e-04,9.99999e-01
4.715633337e-01,3.01700e-04,9.99999e-01,9.99943e-01,3.01717e-04,9.99999e-01
4.739211504e-01,3.54089e-04,9.99999e-01,9.99945e-01,3.54108e-04,9.99999e-01
4.762907561e-01,4.14273e-04,9.99999e-01,9.99971e-01,4.14285e-04,9.99999e-01
4.786722099e-01,4.83182e-04,9.99999e-01,9.99988e-01,4.83188e-04,9.99999e-01
4.810655710e-01,5.61838e-04,9.99999e-01,9.99996e-01,5.61840e-04,9.99999e-01
4.834708988e-01,6.51331e-04,9.99999e-01,9.99966e-01,6.51352e-04,9.99999e-01
4.858882533e-01,7.52878e-04,9.99999e-01,9.99938e-01,7.52924e-04,9.99999e-01
4.883176946e-01,8.67802e-04,9.99999e-01,9.99948e-01,8.67846e-04,9.99999e-01
4.907592831e-01,9.97462e-04,9.99999e-01,9.99953e-01,9.97508e-04,9.99999e-01
4.932130795e-01,1.14335e-03,9.99999e-01,9.99966e-01,1.14339e-03,9.99999e-01
4.956791449e-01,1.30706e-03,9.99999e-01,9.99982e-01,1.30708e-03,9.99999e-01
4.981575406e-01,1.49013e-03,9.99999e-01,9.99912e-01,1.49026e-03,9.99999e-01
5.006483283e-01,1.69434e-03,9.99999e-01,9.99773e-01,1.69472e-03,9.99999e-01
5.031515699e-01,1.92015e-03,9.99999e-01,9.98858e-01,1.92234e-03,9.99999e-01
5.056673278e-01,2.17380e-03,9.99999e-01,9.99398e-01,2.17511e-03,9.99999e-01
5.081956644e-01,2.45326e-03,9.99999e-01,9.99241e-01,2.45512e-03,9.99999e-01
5.107366428e-01,2.76314e-03,9.99999e-01,9.99488e-01,2.76456e-03,9.99999e-01
5.132903260e-01,3.10479e-03,9.99999e-01,9.99707e-01,3.10570e-03,9.99999e-01
5.158567776e-01,3.48050e-03,9.99999e-01,9.99876e-01,3.48093e-03,9.99999e-01
5.184360615e-01,3.89253e-03,9.99999e-01,9.99950e-01,3.89272e-03,9.99999e-01
5.210282418e-01,4.34354e-03,9.99999e-01,9.99981e-01,4.34362e-03,9.99999e-01
5.236333830e-01,4.83590e-03,9.99999e-01,9.99925e-01,4.83626e-03,9.99999e-01
5.262515499e-01,5.37312e-03,9.99999e-01,9.99953e-01,5.37337e-03,9.99999e-01
5.288828077e-01,5.95746e-03,9.99999e-01,9.99956e-01,5.95772e-03,9.99999e-01
5.315272217e-01,6.59191e-03,9.99999e-01,9.99962e-01,6.59216e-03,9.99999e-01
5.341848578e-01,7.27941e-03,9.99999e-01,9.99974e-01,7.27959e-03,9.99999e-01
5.368557821e-01,8.02229e-03,9.99999e-01,9.99912e-01,8.02298e-03,9.99999e-01
5.395400610e-01,8.82255e-03,9.99999e-01,9.99685e-01,8.82532e-03,9.99999e-01
5.422377613e-01,9.68573e-03,9.99999e-01,9.99596e-01,9.68963e-03,9.99999e-01
5.449489501e-01,1.06150e-02,9.99999e-01,9.99623e-01,1.06190e-02,9.99999e-01
5.476736949e-01,1.16126e-02,9.99999e-01,9.99668e-01,1.16164e-02,9.99999e-01
5.504120634e-01,1.26820e-02,9.99999e-01,9.99758e-01,1.26850e-02,9.99999e-01
5.531641237e-01,1.38262e-02,9.99999e-01,9.99878e-01,1.38279e-02,9.99999e-01
5.559299443e-01,1.50472e-02,9.99999e-01,9.99941e-01,1.50481e-02,9.99999e-01
5.587095940e-01,1.63480e-02,9.99999e-01,9.99962e-01,1.63486e-02,9.99999e-01
5.615031420e-01,1.77317e-02,9.99999e-01,9.99958e-01,1.77325e-02,9.99999e-01
5.643106577e-01,1.92017e-02,9.99999e-01,9.99952e-01,1.92026e-02,9.99999e-01
5.671322110e-01,2.07501e-02,9.99999e-01,9.99430e-01,2.07619e-02,9.99999e-01
5.699678720e-01,2.23999e-02,9.99999e-01,9.99403e-01,2.24133e-02,9.99999e-01
5.728177114e-01,2.41444e-02,9.99999e-01,9.99374e-01,2.41595e-02,9.99999e-01
5.756818000e-01,2.59882e-02,9.99999e-01,9.99426e-01,2.60031e-02,9.99999e-01
5.785602090e-01,2.79329e-02,9.99999e-01,9.99500e-01,2.79468e-02,9.99999e-01
5.814530100e-01,2.99781e-02,9.99999e-01,9.99498e-01,2.99931e-02,9.99999e-01
5.843602750e-01,3.21250e-02,9.99999e-01,9.99399e-01,3.21443e-02,9.99999e-01
5.872820764e-01,3.42251e-02,9.99999e-01,9.94836e-01,3.44027e-02,9.99999e-01
5.902184868e-01,3.65416e-02,9.99999e-01,9.93775e-01,3.67704e-02,9.99999e-01
5.931695792e-01,3.90765e-02,9.99999e-01,9.95593e-01,3.92494e-02,9.99999e-01
5.961354271e-01,4.16398e-02,9.99999e-01,9.95175e-01,4.18416e-02,9.99999e-01
5.991161043e-01,4.43920e-02,9.99999e-01,9.96481e-01,4.45487e-02,9.99999e-01
6.021116848e-01,4.72777e-02,9.99999e-01,9.98003e-01,4.73723e-02,9.99999e-01
6.051222432e-01,5.02628e-02,9.99999e-01,9.98989e-01,5.03136e-02,9.99999e-01
6.081478544e-01,5.33508e-02,9.99999e-01,9.99563e-01,5.33741e-02,9.99999e-01
6.111885937e-01,5.65443e-02,9.99999e-01,9.99815e-01,5.65547e-02,9.99999e-01
6.142445367e-01,5.98515e-02,9.99999e-01,9.99917e-01,5.98564e-02,9.99999e-01
6.173157594e-01,6.32770e-02,9.99999e-01,9.99954e-01,6.32799e-02,9.99999e-01
6.204023382e-01,6.68232e-02,9.99999e-01,9.99960e-01,6.68258e-02,9.99999e-01
6.235043498e-01,7.04823e-02,9.99999e-01,9.99828e-01,7.04943e-02,9.99999e-01
6.266218716e-01,7.42191e-02,9.99999e-01,9.99101e-01,7.42858e-02,9.99999e-01
6.297549810e-01,7.81745e-02,9.99999e-01,9.99670e-01,7.82003e-02,9.99999e-01
6.329037559e-01,8.21841e-02,9.99999e-01,9.99349e-01,8.22376e-02,9.99999e-01
6.360682746e-01,8.63494e-02,9.99999e-01,9.99444e-01,8.63973e-02,9.99999e-01
6.392486160e-01,9.06139e-02,9.99999e-01,9.99281e-01,9.06791e-02,9.99999e-01
6.424448591e-01,9.49903e-02,9.99999e-01,9.99033e-01,9.50821e-02,9.99999e-01
6.456570834e-01,9.91597e-02,9.99999e-01,9.95522e-01,9.96056e-02,9.99999e-01
6.488853688e-01,1.03909e-01,9.99999e-01,9.96739e-01,1.04249e-01,9.99999e-01
6.521297956e-01,1.08648e-01,9.99999e-01,9.96677e-01,1.09010e-01,9.99999e-01
6.553904446e-01,1.13510e-01,9.99999e-01,9.96683e-01,1.13888e-01,9.99999e-01
6.586673968e-01,1.18545e-01,9.99999e-01,9.97166e-01,1.18882e-01,9.99999e-01
6.619607338e-01,1.23793e-01,9.99999e-01,9.98420e-01,1.23989e-01,9.99999e-01
6.652705375e-01,1.29086e-01,9.99999e-01,9.99051e-01,1.29209e-01,9.99999e-01
6.685968902e-01,1.34484e-01,9.99999e-01,9.99596e-01,1.34538e-01,9.99999e-01
6.719398746e-01,1.39947e-01,9.99999e-01,9.99795e-01,1.39976e-01,9.99999e-01
6.752995740e-01,1.45503e-01,9.99999e-01,9.99888e-01,1.45519e-01,9.99999e-01
6.786760719e-01,1.51142e-01,9.99999e-01,9.99839e-01,1.51166e-01,9.99999e-01
6.820694522e-01,1.56872e-01,9.99999e-01,9.99725e-01,1.56915e-01,9.99999e-01
6.854797995e-01,1.62704e-01,9.99999e-01,9.99645e-01,1.62761e-01,9.99999e-01
6.889071985e-01,1.68558e-01,9.99999e-01,9.99136e-01,1.68704e-01,9.99999e-01
6.923517345e-01,1.72303e-01,9.99999e-01,9.86057e-01,1.74739e-01,9.99999e-01
6.958134932e-01,1.79565e-01,9.99999e-01,9.92811e-01,1.80865e-01,9.99999e-01
6.992925606e-01,1.85786e-01,9.99999e-01,9.93091e-01,1.87079e-01,9.99999e-01
7.027890234e-01,1.91735e-01,9.99999e-01,9.91512e-01,1.93377e-01,9.99999e-01
7.063029686e-01,1.98329e-01,9.99999e-01,9.92856e-01,1.99756e-01,9.99999e-01
7.098344834e-01,2.04799e-01,9.99999e-01,9.93144e-01,2.06213e-01,9.99999e-01
7.133836558e-01,2.10791e-01,9.99999e-01,9.90812e-01,2.12745e-01,9.99999e-01
7.169505741e-01,2.03713e-01,9.99999e-01,9.28716e-01,2.19349e-01,9.99998e-01
7.205353270e-01,2.18066e-01,9.99999e-01,9.64800e-01,2.26022e-01,9.99998e-01
7.241380036e-01,2.22311e-01,9.99999e-01,9.55112e-01,2.32760e-01,9.99998e-01
7.277586936e-01,2.29840e-01,9.99999e-01,9.59428e-01,2.39559e-01,9.99998e-01
7.313974871e-01,2.35831e-01,9.99999e-01,9.57040e-01,2.46417e-01,9.99998e-01
7.350544745e-01,2.47321e-01,9.99999e-01,9.76280e-01,2.53330e-01,9.99999e-01
7.387297469e-01,2.55739e-01,9.99999e-01,9.82497e-01,2.60295e-01,9.99999e-01
7.424233956e-01,2.65012e-01,9.99999e-01,9.91409e-01,2.67308e-01,9.99999e-01
7.461355126e-01,2.72934e-01,9.99999e-01,9.94782e-01,2.74365e-01,9.99999e-01
7.498661902e-01,2.80781e-01,9.99999e-01,9.97571e-01,2.81465e-01,9.99999e-01
7.536155211e-01,2.88257e-01,9.99999e-01,9.98806e-01,2.88602e-01,9.99999e-01
7.573835987e-01,2.95592e-01,9.99999e-01,9.99385e-01,2.95774e-01,9.99999e-01
7.611705167e-01,3.02861e-01,9.99999e-01,9.99617e-01,3.02977e-01,9.99999e-01
7.649763693e-01,3.10134e-01,9.99999e-01,9.99760e-01,3.10208e-01,9.99999e-01
7.688012511e-01,3.17411e-01,9.99999e-01,9.99832e-01,3.17464e-01,9.99999e-01
7.726452574e-01,3.24696e-01,9.99999e-01,9.99862e-01,3.24741e-01,9.99999e-01
7.765084837e-01,3.31971e-01,9.99999e-01,9.99803e-01,3.32036e-01,9.99999e-01
7.803910261e-01,3.22320e-01,9.50594e-01,9.99152e-01,3.39346e-01,9.99999e-01
7.842929812e-01,2.76261e-01,7.99105e-01,9.97042e-01,3.46668e-01,9.99999e-01
7.882144461e-01,2.76813e-01,7.86453e-01,9.93944e-01,3.53999e-01,9.99999e-01
7.921555184e-01,3.12452e-01,8.67493e-01,9.96684e-01,3.61335e-01,9.99999e-01
7.961162960e-01,3.33307e-01,9.09354e-01,9.94110e-01,3.68674e-01,9.99999e-01
8.000968774e-01,3.54698e-01,9.49726e-01,9.93220e-01,3.76012e-01,9.99999e-01
8.040973618e-01,3.70735e-01,9.73687e-01,9.93213e-01,3.83348e-01,9.99999e-01
8.081178486e-01,3.80025e-01,9.87803e-01,9.84711e-01,3.90677e-01,9.99999e-01
8.121584379e-01,3.71888e-01,9.96238e-01,9.37873e-01,3.97998e-01,9.99998e-01
8.162192301e-01,3.75447e-01,9.99168e-01,9.27077e-01,4.05307e-01,9.99998e-01
8.203003262e-01,3.97235e-01,9.99987e-01,9.62765e-01,4.12602e-01,9.99998e-01
8.244018279e-01,3.98501e-01,9.99999e-01,9.49082e-01,4.19880e-01,9.99998e-01
8.285238370e-01,4.08199e-01,9.99999e-01,9.55657e-01,4.27139e-01,9.99998e-01
8.326664562e-01,4.14957e-01,9.99999e-01,9.55292e-01,4.34377e-01,9.99998e-01
8.368297885e-01,4.27404e-01,9.99999e-01,9.67874e-01,4.41591e-01,9.99999e-01
8.410139374e-01,4.40159e-01,9.99999e-01,9.80793e-01,4.48778e-01,9.99999e-01
8.452190071e-01,4.51626e-01,9.99999e-01,9.90543e-01,4.55937e-01,9.99999e-01
8.494451021e-01,4.60516e-01,9.99999e-01,9.94493e-01,4.63065e-01,9.99999e-01
8.536923276e-01,4.68632e-01,9.99999e-01,9.96746e-01,4.70161e-01,9.99999e-01
8.579607893e-01,4.76264e-01,9.99999e-01,9.97992e-01,4.77222e-01,9.99999e-01
8.622505932e-01,4.83630e-01,9.99999e-01,9.98725e-01,4.84247e-01,9.99999e-01
8.665618462e-01,4.43925e-01,9.04373e-01,9.99210e-01,4.91233e-01,9.99999e-01
8.708946554e-01,2.82776e-01,5.68108e-01,9.99094e-01,4.98179e-01,9.99999e-01
8.752491287e-01,3.18810e-01,6.31937e-01,9.98789e-01,5.05083e-01,9.99999e-01
8.796253743e-01,3.96465e-01,7.75677e-01,9.98321e-01,5.11943e-01,9.99999e-01
8.840235012e-01,4.53593e-01,8.76023e-01,9.98083e-01,5.18759e-01,9.99999e-01
8.884436187e-01,4.95370e-01,9.49201e-01,9.92958e-01,5.25528e-01,9.99999e-01
8.928858368e-01,4.84114e-01,9.79076e-01,9.28746e-01,5.32249e-01,9.99998e-01
8.973502660e-01,4.70873e-01,9.94895e-01,8.78082e-01,5.38920e-01,9.99997e-01
9.018370173e-01,5.10375e-01,9.99436e-01,9.36043e-01,5.45541e-01,9.99997e-01
9.063462024e-01,5.13397e-01,9.85425e-01,9.42995e-01,5.52110e-01,9.99997e-01
9.108779334e-01,4.93446e-01,9.67156e-01,9.12766e-01,5.58626e-01,9.99997e-01
9.154323231e-01,5.05623e-01,9.92238e-01,9.01547e-01,5.65088e-01,9.99996e-01
9.200094847e-01,4.74377e-01,8.94675e-01,9.22183e-01,5.71495e-01,9.99996e-01
9.246095321e-01,4.34026e-01,8.49318e-01,8.80708e-01,5.77846e-01,9.99993e-01
9.292325798e-01,2.27815e-01,8.79732e-01,4.35279e-01,5.84140e-01,9.99987e-01
9.338787427e-01,1.83121e-01,8.83776e-01,3.44983e-01,5.90376e-01,9.99983e-01
9.385481364e-01,3.56683e-01,9.13009e-01,6.50099e-01,5.96554e-01,9.99983e-01
9.432408771e-01,3.16003e-01,9.45822e-01,5.52026e-01,6.02672e-01,9.99981e-01
9.479570815e-01,2.62799e-01,9.71789e-01,4.43307e-01,6.08730e-01,9.99983e-01
9.526968669e-01,3.27865e-01,9.86318e-01,5.39874e-01,6.14728e-01,9.99987e-01
9.574603512e-01,3.46866e-01,9.94128e-01,5.61851e-01,6.20665e-01,9.99990e-01
9.622476530e-01,3.90552e-01,9.98166e-01,6.24397e-01,6.26540e-01,9.99993e-01
9.670588912e-01,4.81307e-01,9.99450e-01,7.61526e-01,6.32353e-01,9.99995e-01
9.718941857e-01,5.37489e-01,9.99961e-01,8.42352e-01,6.38103e-01,9.99997e-01
9.767536566e-01,5.58292e-01,9.99999e-01,8.67194e-01,6.43791e-01,9.99997e-01
9.816374249e-01,5.84355e-01,9.99999e-01,8.99816e-01,6.49416e-01,9.99998e-01
9.865456120e-01,6.13155e-01,9.99999e-01,9.36148e-01,6.54977e-01,9.99999e-01
9.914783401e-01,6.34062e-01,9.99999e-01,9.60010e-01,6.60474e-01,9.99999e-01
9.964357318e-01,6.51275e-01,9.99999e-01,9.78025e-01,6.65908e-01,9.99999e-01
1.001417910e+00,6.62400e-01,9.99999e-01,9.86774e-01,6.71278e-01,9.99999e-01
1.006425000e+00,6.71463e-01,9.99999e-01,9.92431e-01,6.76583e-01,9.99999e-01
1.011457125e+00,6.78623e-01,9.99999e-01,9.95303e-01,6.81825e-01,9.99999e-01
1.016514411e+00,6.84809e-01,9.99999e-01,9.96806e-01,6.87002e-01,9.99999e-01
1.021596983e+00,6.90296e-01,9.99915e-01,9.97454e-01,6.92116e-01,9.99999e-01
1.026704968e+00,6.91792e-01,9.94264e-01,9.98013e-01,6.97165e-01,9.99999e-01
1.031838492e+00,6.58589e-01,9.39261e-01,9.98557e-01,7.02150e-01,9.99999e-01
1.036997685e+00,7.31189e-02,1.03480e-01,9.99141e-01,7.07072e-01,9.99999e-01
1.042182673e+00,3.29474e-02,4.63193e-02,9.98974e-01,7.11929e-01,9.99999e-01
1.047393587e+00,4.92553e-02,6.88038e-02,9.98642e-01,7.16723e-01,9.99999e-01
1.052630555e+00,3.16361e-04,4.39072e-04,9.98135e-01,7.21454e-01,9.99999e-01
1.057893707e+00,9.96314e-04,1.37473e-03,9.96887e-01,7.26122e-01,9.99999e-01
1.063183176e+00,5.41522e-03,7.43593e-03,9.94884e-01,7.30726e-01,9.99999e-01
1.068499092e+00,2.19081e-02,2.99978e-02,9.91454e-01,7.35269e-01,9.99999e-01
1.073841587e+00,7.94669e-02,1.08303e-01,9.89996e-01,7.39748e-01,9.99999e-01
1.079210795e+00,1.80122e-01,2.44784e-01,9.87218e-01,7.44166e-01,9.99999e-01
1.084606849e+00,3.36736e-01,4.58132e-01,9.80697e-01,7.48522e-01,9.99998e-01
1.090029883e+00,4.88005e-01,6.65942e-01,9.72305e-01,7.52817e-01,9.99998e-01
1.095480033e+00,5.74706e-01,8.18439e-01,9.26406e-01,7.57051e-01,9.99997e-01
1.100957433e+00,5.70192e-01,9.07848e-01,8.23837e-01,7.61224e-01,9.99996e-01
1.106462220e+00,4.52431e-01,9.60828e-01,6.13971e-01,7.65338e-01,9.99992e-01
1.111994531e+00,2.75629e-01,9.85294e-01,3.63047e-01,7.69391e-01,9.99985e-01
1.117554504e+00,1.52502e-01,9.96400e-01,1.97723e-01,7.73386e-01,9.99979e-01
1.123142276e+00,2.44466e-01,9.99764e-01,3.14530e-01,7.77321e-01,9.99975e-01
1.128757988e+00,3.64178e-01,9.99999e-01,4.66190e-01,7.81199e-01,9.99973e-01
1.134401778e+00,1.85037e-01,9.99999e-01,2.35717e-01,7.85018e-01,9.99970e-01
1.140073787e+00,4.96134e-01,9.99999e-01,6.29003e-01,7.88780e-01,9.99975e-01
1.145774156e+00,3.07775e-01,9.99999e-01,3.88373e-01,7.92486e-01,9.99979e-01
1.151503026e+00,2.79365e-01,9.99999e-01,3.50907e-01,7.96135e-01,9.99982e-01
1.157260541e+00,3.26295e-01,9.99999e-01,4.08012e-01,7.99728e-01,9.99986e-01
1.163046844e+00,4.13276e-01,9.99999e-01,5.14499e-01,8.03266e-01,9.99991e-01
1.168862078e+00,5.06275e-01,9.99999e-01,6.27551e-01,8.06750e-01,9.99995e-01
1.174706389e+00,6.07574e-01,9.99999e-01,7.49926e-01,8.10179e-01,9.99997e-01
1.180579921e+00,6.82623e-01,9.99999e-01,8.39063e-01,8.13555e-01,9.99998e-01
1.186482820e+00,7.39603e-01,9.99987e-01,9.05413e-01,8.16877e-01,9.99998e-01
1.192415234e+00,7.58518e-01,9.79791e-01,9.43607e-01,8.20147e-01,9.99998e-01
1.198377311e+00,4.33887e-01,5.48938e-01,9.52219e-01,8.23366e-01,9.99998e-01
1.204369197e+00,7.69584e-16,9.56340e-16,9.54781e-01,8.26532e-01,9.99998e-01
1.210391043e+00,1.34411e-60,1.66043e-60,9.56701e-01,8.29649e-01,9.99998e-01
1.216442998e+00,1.35579e-52,1.66654e-52,9.63089e-01,8.32715e-01,9.99999e-01
1.222525213e+00,8.09426e-52,9.83255e-52,9.71123e-01,8.35731e-01,9.99999e-01
1.228637839e+00,4.04937e-40,4.89570e-40,9.79853e-01,8.38699e-01,9.99999e-01
1.234781029e+00,1.82468e-25,2.18225e-25,9.85011e-01,8.41618e-01,9.99999e-01
1.240954934e+00,4.38873e-17,5.22853e-17,9.90492e-01,8.44489e-01,9.99999e-01
1.247159708e+00,6.43253e-09,7.62509e-09,9.92592e-01,8.47313e-01,9.99999e-01
1.253395507e+00,6.54166e-06,7.73218e-06,9.93416e-01,8.50091e-01,9.99999e-01
1.259662485e+00,9.90643e-04,1.16721e-03,9.93737e-01,8.52822e-01,9.99999e-01
1.265960797e+00,1.79544e-02,2.11413e-02,9.90022e-01,8.55508e-01,9.99999e-01
1.272290601e+00,1.56866e-01,1.85351e-01,9.84341e-01,8.58150e-01,9.99999e-01
1.278652054e+00,1.31533e-01,1.56414e-01,9.69118e-01,8.60747e-01,9.99998e-01
1.285045314e+00,1.18597e-03,1.40672e-03,9.44676e-01,8.63300e-01,9.99998e-01
1.291470541e+00,9.95914e-08,1.22147e-07,9.05603e-01,8.65810e-01,9.99997e-01
1.297927893e+00,1.61183e-03,1.97999e-03,8.68517e-01,8.68278e-01,9.99996e-01
1.304417533e+00,3.46011e-02,4.57959e-02,8.47255e-01,8.70704e-01,9.99993e-01
1.310939621e+00,5.81852e-03,7.43057e-03,8.10996e-01,8.73088e-01,9.99988e-01
1.317494319e+00,2.08099e-21,2.67203e-21,8.14276e-01,8.75432e-01,9.99981e-01
1.324081790e+00,2.37942e-14,3.12401e-14,7.35848e-01,8.77735e-01,9.99970e-01
1.330702199e+00,1.06650e-08,2.04355e-08,3.29023e-01,8.79999e-01,9.99950e-01
1.337355710e+00,6.51131e-09,5.34786e-08,5.18045e-02,8.82224e-01,9.99905e-01
1.344042489e+00,9.33165e-10,1.88979e-08,1.99078e-03,8.84410e-01,9.99798e-01
1.350762701e+00,2.89096e-14,1.16543e-08,4.91982e-07,8.86559e-01,9.99677e-01
1.357516515e+00,6.07658e-14,1.12783e-05,7.06503e-10,8.88670e-01,9.99601e-01
1.364304097e+00,2.22287e-09,4.54672e-04,1.85215e-06,8.90744e-01,9.99572e-01
1.371125618e+00,5.74384e-06,1.89014e-02,1.66927e-04,8.92782e-01,9.99568e-01
1.377981246e+00,2.50809e-05,3.58551e-02,4.94940e-04,8.94784e-01,9.99536e-01
1.384871152e+00,1.13854e-06,1.44186e-01,6.19750e-06,8.96751e-01,9.99549e-01
1.391795508e+00,4.99468e-07,1.67192e-01,2.24166e-06,8.98684e-01,9.99618e-01
1.398754485e+00,9.01560e-06,3.29457e-01,2.69573e-05,9.00582e-01,9.99672e-01
1.405748258e+00,1.15289e-05,4.42972e-01,2.48753e-05,9.02446e-01,9.99705e-01
1.412776999e+00,1.49851e-05,5.97226e-01,2.42629e-05,9.04278e-01,9.99763e-01
1.419840884e+00,3.07230e-05,5.31932e-01,4.87225e-05,9.06077e-01,9.99823e-01
1.426940089e+00,1.63588e-04,3.53602e-02,4.92173e-04,9.07844e-01,9.99890e-01
1.434074789e+00,0.00000e+00,0.00000e+00,2.73347e-03,9.09579e-01,9.99931e-01
1.441245163e+00,0.00000e+00,0.00000e+00,8.91357e-03,9.11284e-01,9.99946e-01
1.448451389e+00,0.00000e+00,0.00000e+00,3.69274e-02,9.12957e-01,9.99955e-01
1.455693646e+00,0.00000e+00,0.00000e+00,1.07002e-01,9.14601e-01,9.99963e-01
1.462972114e+00,1.42314e-239,5.27916e-239,1.40859e-01,9.16215e-01,9.99968e-01
1.470286975e+00,2.94291e-100,1.20075e-99,1.02897e-01,9.17800e-01,9.99971e-01
