#,Wave/freq,Total,CO2,H2O,Rayleigh,CIA
4.000000000e-01,7.30374e-05,9.99999e-01,9.99980e-01,7.30388e-05,9.99999e-01
4.020000000e-01,8.81738e-05,9.99999e-01,9.99987e-01,8.81748e-05,9.99999e-01
4.040100000e-01,1.06031e-04,9.99999e-01,9.99994e-01,1.06031e-04,9.99999e-01
4.060300500e-01,1.27040e-04,9.99999e-01,9.99998e-01,1.27040e-04,9.99999e-01
4.080602003e-01,1.51670e-04,9.99999e-01,9.99999e-01,1.51670e-04,9.99999e-01
4.101005013e-01,1.80441e-04,9.99999e-01,9.99999e-01,1.80441e-04,9.99999e-01
4.121510038e-01,2.13935e-04,9.99999e-01,9.99998e-01,2.13935e-04,9.99999e-01
4.142117588e-01,2.52793e-04,9.99999e-01,9.99994e-01,2.52795e-04,9.99999e-01
4.162828176e-01,2.97723e-04,9.99999e-01,9.99976e-01,2.97730e-04,9.99999e-01
4.183642317e-01,3.49516e-04,9.99999e-01,9.99985e-01,3.49521e-04,9.99999e-01
4.204560528e-01,4.09020e-04,9.99999e-01,9.99991e-01,4.09023e-04,9.99999e-01
4.225583331e-01,4.77170e-04,9.99999e-01,9.99996e-01,4.77171e-04,9.99999e-01
4.246711247e-01,5.54980e-04,9.99999e-01,9.99997e-01,5.54982e-04,9.99999e-01
4.267944804e-01,6.43555e-04,9.99999e-01,9.99995e-01,6.43557e-04,9.99999e-01
4.289284528e-01,7.44088e-04,9.99999e-01,9.99996e-01,7.44090e-04,9.99999e-01
4.310730950e-01,8.57863e-04,9.99999e-01,9.99998e-01,8.57864e-04,9.99999e-01
4.332284605e-01,9.86259e-04,9.99999e-01,9.99999e-01,9.86259e-04,9.99999e-01
4.353946028e-01,1.13075e-03,9.99999e-01,9.99999e-01,1.13075e-03,9.99999e-01
4.375715758e-01,1.29291e-03,9.99999e-01,9.99997e-01,1.29292e-03,9.99999e-01
4.397594337e-01,1.47440e-03,9.99999e-01,9.99979e-01,1.47443e-03,9.99999e-01
4.419582309e-01,1.67690e-03,9.99999e-01,9.99898e-01,1.67707e-03,9.99999e-01
4.441680220e-01,1.90256e-03,9.99999e-01,9.99918e-01,1.90271e-03,9.99999e-01
4.463888621e-01,2.15316e-03,9.99999e-01,9.99915e-01,2.15334e-03,9.99999e-01
4.486208064e-01,2.43090e-03,9.99999e-01,9.99947e-01,2.43103e-03,9.99999e-01
4.508639105e-01,2.73789e-03,9.99999e-01,9.99975e-01,2.73796e-03,9.99999e-01
4.531182300e-01,3.07638e-03,9.99999e-01,9.99989e-01,3.07641e-03,9.99999e-01
4.553838212e-01,3.44872e-03,9.99999e-01,9.99992e-01,3.44875e-03,9.99999e-01
4.576607403e-01,3.85742e-03,9.99999e-01,9.99996e-01,3.85743e-03,9.99999e-01
4.599490440e-01,4.30501e-03,9.99999e-01,9.99997e-01,4.30502e-03,9.99999e-01
4.622487892e-01,4.79413e-03,9.99999e-01,9.99999e-01,4.79413e-03,9.99999e-01
4.645600332e-01,5.32747e-03,9.99999e-01,9.99998e-01,5.32748e-03,9.99999e-01
4.668828333e-01,5.90769e-03,9.99999e-01,9.99975e-01,5.90784e-03,9.99999e-01
4.692172475e-01,6.53771e-03,9.99999e-01,9.99947e-01,6.53805e-03,9.99999e-01
4.715633337e-01,7.22077e-03,9.99999e-01,9.99965e-01,7.22102e-03,9.99999e-01
4.739211504e-01,7.95944e-03,9.99999e-01,9.99966e-01,7.95970e-03,9.99999e-01
4.762907561e-01,8.75693e-03,9.99999e-01,9.99982e-01,8.75708e-03,9.99999e-01
4.786722099e-01,9.61611e-03,9.99999e-01,9.99992e-01,9.61618e-03,9.99999e-01
4.810655710e-01,1.05400e-02,9.99999e-01,9.99997e-01,1.05401e-02,9.99999e-01
4.834708988e-01,1.15316e-02,9.99999e-01,9.99979e-01,1.15318e-02,9.99999e-01
4.858882533e-01,1.25940e-02,9.99999e-01,9.99962e-01,1.25945e-02,9.99999e-01
4.883176946e-01,1.37307e-02,9.99999e-01,9.99968e-01,1.37311e-02,9.99999e-01
4.907592831e-01,1.49444e-02,9.99999e-01,9.99971e-01,1.49448e-02,9.99999e-01
4.932130795e-01,1.62383e-02,9.99999e-01,9.99979e-01,1.62386e-02,9.99999e-01
4.956791449e-01,1.76153e-02,9.99999e-01,9.99988e-01,1.76155e-02,9.99999e-01
4.981575406e-01,1.90774e-02,9.99999e-01,9.99947e-01,1.90784e-02,9.99999e-01
5.006483283e-01,2.06275e-02,9.99999e-01,9.99864e-01,2.06303e-02,9.99999e-01
5.031515699e-01,2.22586e-02,9.99999e-01,9.99308e-01,2.22740e-02,9.99999e-01
5.056673278e-01,2.40035e-02,9.99999e-01,9.99633e-01,2.40123e-02,9.99999e-01
5.081956644e-01,2.58359e-02,9.99999e-01,9.99537e-01,2.58479e-02,9.99999e-01
5.107366428e-01,2.77746e-02,9.99999e-01,9.99687e-01,2.77832e-02,9.99999e-01
5.132903260e-01,2.98157e-02,9.99999e-01,9.99820e-01,2.98210e-02,9.99999e-01
5.158567776e-01,3.19611e-02,9.99999e-01,9.99923e-01,3.19635e-02,9.99999e-01
5.184360615e-01,3.42119e-02,9.99999e-01,9.99969e-01,3.42130e-02,9.99999e-01
5.210282418e-01,3.65712e-02,9.99999e-01,9.99988e-01,3.65716e-02,9.99999e-01
5.236333830e-01,3.90397e-02,9.99999e-01,9.99954e-01,3.90414e-02,9.99999e-01
5.262515499e-01,4.16231e-02,9.99999e-01,9.99971e-01,4.16243e-02,9.99999e-01
5.288828077e-01,4.43207e-02,9.99999e-01,9.99973e-01,4.43218e-02,9.99999e-01
5.315272217e-01,4.71347e-02,9.99999e-01,9.99976e-01,4.71358e-02,9.99999e-01
5.341848578e-01,5.00667e-02,9.99999e-01,9.99984e-01,5.00674e-02,9.99999e-01
5.368557821e-01,5.31153e-02,9.99999e-01,9.99947e-01,5.31180e-02,9.99999e-01
5.395400610e-01,5.62782e-02,9.99999e-01,9.99812e-01,5.62888e-02,9.99999e-01
5.422377613e-01,5.95658e-02,9.99999e-01,9.99753e-01,5.95805e-02,9.99999e-01
5.449489501e-01,6.29796e-02,9.99999e-01,9.99772e-01,6.29939e-02,9.99999e-01
5.476736949e-01,6.65162e-02,9.99999e-01,9.99796e-01,6.65297e-02,9.99999e-01
5.504120634e-01,7.01778e-02,9.99999e-01,9.99852e-01,7.01882e-02,9.99999e-01
5.531641237e-01,7.39641e-02,9.99999e-01,9.99925e-01,7.39696e-02,9.99999e-01
5.559299443e-01,7.78711e-02,9.99999e-01,9.99963e-01,7.78739e-02,9.99999e-01
5.587095940e-01,8.18993e-02,9.99999e-01,9.99977e-01,8.19011e-02,9.99999e-01
5.615031420e-01,8.60487e-02,9.99999e-01,9.99974e-01,8.60508e-02,9.99999e-01
5.643106577e-01,9.03200e-02,9.99999e-01,9.99971e-01,9.03225e-02,9.99999e-01
5.671322110e-01,9.46839e-02,9.99999e-01,9.99664e-01,9.47157e-02,9.99999e-01
5.699678720e-01,9.91928e-02,9.99999e-01,9.99631e-01,9.92293e-02,9.99999e-01
5.728177114e-01,1.03823e-01,9.99999e-01,9.99621e-01,1.03863e-01,9.99999e-01
5.756818000e-01,1.08576e-01,9.99999e-01,9.99651e-01,1.08614e-01,9.99999e-01
5.785602090e-01,1.13448e-01,9.99999e-01,9.99695e-01,1.13483e-01,9.99999e-01
5.814530100e-01,1.18431e-01,9.99999e-01,9.99694e-01,1.18467e-01,9.99999e-01
5.843602750e-01,1.23521e-01,9.99999e-01,9.99639e-01,1.23565e-01,9.99999e-01
5.872820764e-01,1.28375e-01,9.99999e-01,9.96891e-01,1.28776e-01,9.99999e-01
5.902184868e-01,1.33586e-01,9.99999e-01,9.96196e-01,1.34096e-01,9.99999e-01
5.931695792e-01,1.39151e-01,9.99999e-01,9.97320e-01,1.39525e-01,9.99999e-01
5.961354271e-01,1.44633e-01,9.99999e-01,9.97056e-01,1.45060e-01,9.99999e-01
5.991161043e-01,1.50374e-01,9.99999e-01,9.97849e-01,1.50698e-01,9.99999e-01
6.021116848e-01,1.56247e-01,9.99999e-01,9.98777e-01,1.56438e-01,9.99999e-01
6.051222432e-01,1.62177e-01,9.99999e-01,9.99380e-01,1.62277e-01,9.99999e-01
6.081478544e-01,1.68167e-01,9.99999e-01,9.99733e-01,1.68212e-01,9.99999e-01
6.111885937e-01,1.74220e-01,9.99999e-01,9.99886e-01,1.74240e-01,9.99999e-01
6.142445367e-01,1.80349e-01,9.99999e-01,9.99949e-01,1.80359e-01,9.99999e-01
6.173157594e-01,1.86560e-01,9.99999e-01,9.99971e-01,1.86565e-01,9.99999e-01
6.204023382e-01,1.92851e-01,9.99999e-01,9.99976e-01,1.92856e-01,9.99999e-01
6.235043498e-01,1.99208e-01,9.99999e-01,9.99898e-01,1.99228e-01,9.99999e-01
6.266218716e-01,2.05567e-01,9.99999e-01,9.99453e-01,2.05679e-01,9.99999e-01
6.297549810e-01,2.12163e-01,9.99999e-01,9.99799e-01,2.12206e-01,9.99999e-01
6.329037559e-01,2.18717e-01,9.99999e-01,9.99602e-01,2.18804e-01,9.99999e-01
6.360682746e-01,2.25395e-01,9.99999e-01,9.99663e-01,2.25471e-01,9.99999e-01
6.392486160e-01,2.32102e-01,9.99999e-01,9.99562e-01,2.32203e-01,9.99999e-01
6.424448591e-01,2.38873e-01,9.99999e-01,9.99476e-01,2.38998e-01,9.99999e-01
6.456570834e-01,2.45195e-01,9.99999e-01,9.97331e-01,2.45851e-01,9.99999e-01
6.488853688e-01,2.52168e-01,9.99999e-01,9.97657e-01,2.52760e-01,9.99999e-01
6.521297956e-01,2.59193e-01,9.99999e-01,9.97968e-01,2.59721e-01,9.99999e-01
6.553904446e-01,2.66195e-01,9.99999e-01,9.97995e-01,2.66730e-01,9.99999e-01
6.586673968e-01,2.73309e-01,9.99999e-01,9.98265e-01,2.73784e-01,9.99999e-01
6.619607338e-01,2.80598e-01,9.99999e-01,9.98997e-01,2.80880e-01,9.99999e-01
6.652705375e-01,2.87846e-01,9.99999e-01,9.99417e-01,2.88014e-01,9.99999e-01
6.685968902e-01,2.95103e-01,9.99999e-01,9.99729e-01,2.95183e-01,9.99999e-01
6.719398746e-01,3.02346e-01,9.99999e-01,9.99874e-01,3.02384e-01,9.99999e-01
6.752995740e-01,3.09592e-01,9.99999e-01,9.99932e-01,3.09613e-01,9.99999e-01
6.786760719e-01,3.16836e-01,9.99999e-01,9.99902e-01,3.16866e-01,9.99999e-01
6.820694522e-01,3.24088e-01,9.99999e-01,9.99833e-01,3.24142e-01,9.99999e-01
6.854797995e-01,3.31365e-01,9.99999e-01,9.99785e-01,3.31436e-01,9.99999e-01
6.889071985e-01,3.38572e-01,9.99999e-01,9.99489e-01,3.38745e-01,9.99999e-01
6.923517345e-01,3.43153e-01,9.99999e-01,9.91582e-01,3.46066e-01,9.99999e-01
6.958134932e-01,3.51812e-01,9.99999e-01,9.95518e-01,3.53396e-01,9.99999e-01
6.992925606e-01,3.59229e-01,9.99999e-01,9.95834e-01,3.60732e-01,9.99999e-01
7.027890234e-01,3.66161e-01,9.99999e-01,9.94812e-01,3.68071e-01,9.99999e-01
7.063029686e-01,3.73774e-01,9.99999e-01,9.95642e-01,3.75409e-01,9.99999e-01
7.098344834e-01,3.81145e-01,9.99999e-01,9.95818e-01,3.82745e-01,9.99999e-01
7.133836558e-01,3.87933e-01,9.99999e-01,9.94509e-01,3.90075e-01,9.99999e-01
7.169505741e-01,3.80010e-01,9.99999e-01,9.56249e-01,3.97396e-01,9.99998e-01
7.205353270e-01,3.95771e-01,9.99999e-01,9.77920e-01,4.04707e-01,9.99998e-01
7.241380036e-01,4.00679e-01,9.99999e-01,9.72514e-01,4.12003e-01,9.99998e-01
7.277586936e-01,4.08859e-01,9.99999e-01,9.75138e-01,4.19283e-01,9.99998e-01
7.313974871e-01,4.15201e-01,9.99999e-01,9.73407e-01,4.26544e-01,9.99999e-01
7.350544745e-01,4.27461e-01,9.99999e-01,9.85424e-01,4.33783e-01,9.99999e-01
7.387297469e-01,4.36258e-01,9.99999e-01,9.89250e-01,4.40999e-01,9.99999e-01
7.424233956e-01,4.45819e-01,9.99999e-01,9.94714e-01,4.48188e-01,9.99999e-01
7.461355126e-01,4.53893e-01,9.99999e-01,9.96800e-01,4.55350e-01,9.99999e-01
7.498661902e-01,4.61789e-01,9.99999e-01,9.98504e-01,4.62481e-01,9.99999e-01
7.536155211e-01,4.69236e-01,9.99999e-01,9.99268e-01,4.69579e-01,9.99999e-01
7.573835987e-01,4.76464e-01,9.99999e-01,9.99623e-01,4.76643e-01,9.99999e-01
7.611705167e-01,4.83558e-01,9.99999e-01,9.99765e-01,4.83671e-01,9.99999e-01
7.649763693e-01,4.90588e-01,9.99999e-01,9.99853e-01,4.90660e-01,9.99999e-01
7.688012511e-01,4.97559e-01,9.99999e-01,9.99897e-01,4.97609e-01,9.99999e-01
7.726452574e-01,5.04475e-01,9.99999e-01,9.99915e-01,5.04517e-01,9.99999e-01
7.765084837e-01,5.11321e-01,9.99999e-01,9.99881e-01,5.11381e-01,9.99999e-01
7.803910261e-01,5.02489e-01,9.70159e-01,9.99491e-01,5.18200e-01,9.99999e-01
7.842929812e-01,4.55569e-01,8.69267e-01,9.98225e-01,5.24973e-01,9.99999e-01
7.882144461e-01,4.56456e-01,8.61548e-01,9.96311e-01,5.31698e-01,9.99999e-01
7.921555184e-01,4.92711e-01,9.17011e-01,9.97964e-01,5.38374e-01,9.99999e-01
7.961162960e-01,5.12245e-01,9.43220e-01,9.96448e-01,5.44999e-01,9.99999e-01
8.000968774e-01,5.32204e-01,9.68872e-01,9.95872e-01,5.51572e-01,9.99999e-01
8.040973618e-01,5.46727e-01,9.83681e-01,9.95877e-01,5.58093e-01,9.99999e-01
8.081178486e-01,5.55180e-01,9.92513e-01,9.90791e-01,5.64559e-01,9.99999e-01
8.121584379e-01,5.48011e-01,9.97660e-01,9.62018e-01,5.70971e-01,9.99999e-01
8.162192301e-01,5.50811e-01,9.99482e-01,9.54558e-01,5.77326e-01,9.99998e-01
8.203003262e-01,5.70491e-01,9.99990e-01,9.77504e-01,5.83625e-01,9.99998e-01
8.244018279e-01,5.70866e-01,9.99999e-01,9.67789e-01,5.89866e-01,9.99998e-01
8.285238370e-01,5.79864e-01,9.99999e-01,9.72847e-01,5.96048e-01,9.99999e-01
8.326664562e-01,5.85566e-01,9.99999e-01,9.72423e-01,6.02171e-01,9.99999e-01
8.368297885e-01,5.96195e-01,9.99999e-01,9.80204e-01,6.08235e-01,9.99999e-01
8.410139374e-01,6.06984e-01,9.99999e-01,9.88191e-01,6.14238e-01,9.99999e-01
8.452190071e-01,6.16575e-01,9.99999e-01,9.94187e-01,6.20179e-01,9.99999e-01
8.494451021e-01,6.23955e-01,9.99999e-01,9.96638e-01,6.26059e-01,9.99999e-01
8.536923276e-01,6.30616e-01,9.99999e-01,9.98003e-01,6.31877e-01,9.99999e-01
8.579607893e-01,6.36852e-01,9.99999e-01,9.98774e-01,6.37633e-01,9.99999e-01
8.622505932e-01,6.42824e-01,9.99999e-01,9.99219e-01,6.43326e-01,9.99999e-01
8.665618462e-01,6.04450e-01,9.31850e-01,9.99518e-01,6.48956e-01,9.99999e-01
8.708946554e-01,4.58878e-01,7.01460e-01,9.99450e-01,6.54522e-01,9.99999e-01
8.752491287e-01,4.95289e-01,7.50945e-01,9.99264e-01,6.60025e-01,9.99999e-01
8.796253743e-01,5.68039e-01,8.54442e-01,9.98985e-01,6.65464e-01,9.99999e-01
8.840235012e-01,6.17662e-01,9.21785e-01,9.98839e-01,6.70839e-01,9.99999e-01
8.884436187e-01,6.52006e-01,9.68271e-01,9.95853e-01,6.76150e-01,9.99999e-01
8.928858368e-01,6.43364e-01,9.87072e-01,9.56454e-01,6.81396e-01,9.99998e-01
8.973502660e-01,6.32032e-01,9.96822e-01,9.23432e-01,6.86579e-01,9.99998e-01
9.018370173e-01,6.63690e-01,9.99648e-01,9.59837e-01,6.91698e-01,9.99998e-01
9.063462024e-01,6.66844e-01,9.91343e-01,9.65191e-01,6.96752e-01,9.99998e-01
9.108779334e-01,6.50483e-01,9.79714e-01,9.45928e-01,7.01743e-01,9.99998e-01
9.154323231e-01,6.60187e-01,9.95151e-01,9.38686e-01,7.06669e-01,9.99997e-01
9.200094847e-01,6.33377e-01,9.33279e-01,9.51508e-01,7.11532e-01,9.99997e-01
9.246095321e-01,6.01470e-01,9.04630e-01,9.26661e-01,7.16332e-01,9.99996e-01
9.292325798e-01,4.01111e-01,9.25241e-01,5.96702e-01,7.21068e-01,9.99992e-01
9.338787427e-01,3.45719e-01,9.26902e-01,5.10036e-01,7.25740e-01,9.99989e-01
9.385481364e-01,5.27970e-01,9.45786e-01,7.62035e-01,7.30350e-01,9.99989e-01
9.432408771e-01,4.89309e-01,9.66331e-01,6.87823e-01,7.34898e-01,9.99988e-01
9.479570815e-01,4.34271e-01,9.82645e-01,5.97201e-01,7.39382e-01,9.99989e-01
9.526968669e-01,4.99647e-01,9.91578e-01,6.76972e-01,7.43805e-01,9.99992e-01
9.574603512e-01,5.21244e-01,9.96388e-01,6.99068e-01,7.48167e-01,9.99994e-01
9.622476530e-01,5.61195e-01,9.98870e-01,7.46606e-01,7.52466e-01,9.99995e-01
9.670588912e-01,6.39403e-01,9.99660e-01,8.45258e-01,7.56705e-01,9.99997e-01
9.718941857e-01,6.85109e-01,9.99975e-01,9.00433e-01,7.60884e-01,9.99998e-01
9.767536566e-01,7.01249e-01,9.99999e-01,9.16664e-01,7.65002e-01,9.99998e-01
9.816374249e-01,7.20920e-01,9.99999e-01,9.37403e-01,7.69060e-01,9.99998e-01
9.865456120e-01,7.42458e-01,9.99999e-01,9.60414e-01,7.73060e-01,9.99999e-01
9.914783401e-01,7.57861e-01,9.99999e-01,9.75367e-01,7.77000e-01,9.99999e-01
9.964357318e-01,7.70346e-01,9.99999e-01,9.86506e-01,7.80882e-01,9.99999e-01
1.001417910e+00,7.78344e-01,9.99999e-01,9.91890e-01,7.84706e-01,9.99999e-01
1.006425000e+00,7.84832e-01,9.99999e-01,9.95380e-01,7.88473e-01,9.99999e-01
1.011457125e+00,7.89904e-01,9.99999e-01,9.97122e-01,7.92183e-01,9.99999e-01
1.016514411e+00,7.94285e-01,9.99999e-01,9.98049e-01,7.95837e-01,9.99999e-01
1.021596983e+00,7.98161e-01,9.99958e-01,9.98446e-01,7.99435e-01,9.99999e-01
1.026704968e+00,7.99305e-01,9.96630e-01,9.98789e-01,8.02978e-01,9.99999e-01
1.031838492e+00,7.74821e-01,9.61587e-01,9.99117e-01,8.06465e-01,9.99999e-01
1.036997685e+00,1.35164e-01,1.66960e-01,9.99476e-01,8.09899e-01,9.99999e-01
1.042182673e+00,1.13298e-01,1.39387e-01,9.99378e-01,8.13279e-01,9.99999e-01
1.047393587e+00,1.31691e-01,1.61384e-01,9.99174e-01,8.16606e-01,9.99999e-01
1.052630555e+00,4.66700e-03,5.69706e-03,9.98869e-01,8.19880e-01,9.99999e-01
1.057893707e+00,1.12205e-02,1.36495e-02,9.98116e-01,8.23103e-01,9.99999e-01
1.063183176e+00,3.50533e-02,4.25191e-02,9.96897e-01,8.26274e-01,9.99999e-01
1.068499092e+00,9.35046e-02,1.13239e-01,9.94801e-01,8.29394e-01,9.99999e-01
1.073841587e+00,2.08204e-01,2.51414e-01,9.93930e-01,8.32465e-01,9.99999e-01
1.079210795e+00,3.46254e-01,4.17421e-01,9.92199e-01,8.35485e-01,9.99999e-01
1.084606849e+00,5.12366e-01,6.18040e-01,9.88234e-01,8.38457e-01,9.99999e-01
1.090029883e+00,6.44927e-01,7.79245e-01,9.83242e-01,8.41380e-01,9.99998e-01
1.095480033e+00,7.13143e-01,8.84199e-01,9.54888e-01,8.44255e-01,9.99998e-01
1.100957433e+00,7.10367e-01,9.42456e-01,8.89309e-01,8.47083e-01,9.99997e-01
1.106462220e+00,6.16437e-01,9.75762e-01,7.42761e-01,8.49864e-01,9.99995e-01
1.111994531e+00,4.51158e-01,9.90948e-01,5.33674e-01,8.52600e-01,9.99990e-01
1.117554504e+00,3.09201e-01,9.97771e-01,3.62187e-01,8.55289e-01,9.99987e-01
1.123142276e+00,4.06474e-01,9.99852e-01,4.73824e-01,8.57934e-01,9.99984e-01
1.128757988e+00,5.33612e-01,9.99999e-01,6.20103e-01,8.60535e-01,9.99983e-01
1.134401778e+00,3.07130e-01,9.99999e-01,3.55855e-01,8.63092e-01,9.99981e-01
1.140073787e+00,6.50694e-01,9.99999e-01,7.51732e-01,8.65605e-01,9.99984e-01
1.145774156e+00,4.78431e-01,9.99999e-01,5.51145e-01,8.68077e-01,9.99987e-01
1.151503026e+00,4.48938e-01,9.99999e-01,5.15726e-01,8.70506e-01,9.99988e-01
1.157260541e+00,5.01140e-01,9.99999e-01,5.74117e-01,8.72894e-01,9.99991e-01
1.163046844e+00,5.80050e-01,9.99999e-01,6.62735e-01,8.75241e-01,9.99994e-01
1.168862078e+00,6.59195e-01,9.99999e-01,7.51180e-01,8.77547e-01,9.99996e-01
1.174706389e+00,7.37458e-01,9.99999e-01,8.38198e-01,8.79815e-01,9.99998e-01
1.180579921e+00,7.92098e-01,9.99999e-01,8.98027e-01,8.82043e-01,9.99998e-01
1.186482820e+00,8.32154e-01,9.99995e-01,9.41107e-01,8.84232e-01,9.99998e-01
1.192415234e+00,8.45487e-01,9.88089e-01,9.65239e-01,8.86384e-01,9.99998e-01
1.198377311e+00,4.89427e-01,5.64739e-01,9.70683e-01,8.88498e-01,9.99998e-01
1.204369197e+00,1.63064e-10,1.86102e-10,9.72205e-01,8.90575e-01,9.99999e-01
1.210391043e+00,9.88398e-38,1.12399e-37,9.73399e-01,8.92616e-01,9.99999e-01
1.216442998e+00,7.27836e-33,8.25179e-33,9.77272e-01,8.94621e-01,9.99999e-01
1.222525213e+00,2.16012e-32,2.43149e-32,9.82282e-01,8.96591e-01,9.99999e-01
1.228637839e+00,4.40736e-25,4.94751e-25,9.87675e-01,8.98526e-01,9.99999e-01
1.234781029e+00,2.28876e-16,2.55197e-16,9.90822e-01,9.00427e-01,9.99999e-01
1.240954934e+00,4.31303e-11,4.79810e-11,9.94194e-01,9.02294e-01,9.99999e-01
1.247159708e+00,2.72288e-07,3.02142e-07,9.95472e-01,9.04129e-01,9.99999e-01
1.253395507e+00,5.04262e-04,5.58315e-04,9.95986e-01,9.05930e-01,9.99999e-01
1.259662485e+00,8.90768e-03,9.84336e-03,9.96226e-01,9.07700e-01,9.99999e-01
1.265960797e+00,7.44807e-02,8.22983e-02,9.93938e-01,9.09438e-01,9.99999e-01
1.272290601e+00,2.91332e-01,3.22346e-01,9.91093e-01,9.11145e-01,9.99999e-01
1.278652054e+00,2.73628e-01,3.04358e-01,9.81246e-01,9.12821e-01,9.99999e-01
1.285045314e+00,8.67248e-03,9.63082e-03,9.70695e-01,9.14467e-01,9.99998e-01
1.291470541e+00,3.88096e-05,4.40492e-05,9.41799e-01,9.16084e-01,9.99998e-01
1.297927893e+00,5.66531e-03,6.42271e-03,9.24617e-01,9.17671e-01,9.99997e-01
1.304417533e+00,1.24567e-01,1.48411e-01,9.03737e-01,9.19230e-01,9.99995e-01
1.310939621e+00,3.25723e-02,3.79376e-02,8.91141e-01,9.20760e-01,9.99993e-01
1.317494319e+00,1.79305e-13,2.09323e-13,8.81604e-01,9.22263e-01,9.99988e-01
1.324081790e+00,1.99566e-09,2.36304e-09,8.28665e-01,9.23738e-01,9.99981e-01
1.330702199e+00,1.04800e-05,1.64298e-05,4.81991e-01,9.25187e-01,9.99969e-01
1.337355710e+00,5.12794e-06,1.89212e-05,1.49906e-01,9.26609e-01,9.99942e-01
1.344042489e+00,8.33744e-07,5.83315e-06,1.02346e-02,9.28005e-01,9.99877e-01
1.350762701e+00,2.53002e-09,1.02055e-05,7.00035e-05,9.29375e-01,9.99803e-01
1.357516515e+00,3.56783e-09,6.09328e-04,1.53237e-06,9.30721e-01,9.99757e-01
1.364304097e+00,2.60624e-06,8.31704e-03,1.69383e-04,9.32042e-01,9.99739e-01
1.371125618e+00,3.46825e-04,8.15671e-02,2.85215e-03,9.33338e-01,9.99737e-01
1.377981246e+00,1.06846e-03,1.29507e-01,7.01043e-03,9.34611e-01,9.99718e-01
1.384871152e+00,7.68263e-05,3.04128e-01,2.17323e-04,9.35860e-01,9.99721e-01
1.391795508e+00,8.94560e-05,3.32680e-01,2.33370e-04,9.37086e-01,9.99761e-01
1.398754485e+00,4.66849e-04,5.07296e-01,9.18052e-04,9.38290e-01,9.99800e-01
1.405748258e+00,5.43549e-04,6.06293e-01,8.73633e-04,9.39471e-01,9.99820e-01
1.412776999e+00,6.36841e-04,7.28888e-01,8.70771e-04,9.40630e-01,9.99856e-01
1.419840884e+00,1.09162e-03,6.62463e-01,1.45010e-03,9.41768e-01,9.99892e-01
1.426940089e+00,1.73153e-03,6.52610e-02,5.74177e-03,9.42885e-01,9.99933e-01
1.434074789e+00,0.00000e+00,0.00000e+00,1.96371e-02,9.43981e-01,9.99958e-01
1.441245163e+00,0.00000e+00,0.00000e+00,4.83460e-02,9.45056e-01,9.99967e-01
1.448451389e+00,0.00000e+00,0.00000e+00,1.16453e-01,9.46112e-01,9.99972e-01
1.455693646e+00,5.80604e-302,1.28992e-301,2.38291e-01,9.47148e-01,9.99977e-01
1.462972114e+00,1.43746e-146,3.19015e-146,2.92211e-01,9.48164e-01,9.99980e-01
1.470286975e+00,7.53389e-62,1.77167e-61,2.37962e-01,9.49161e-01,9.99982e-01
