#,Wave/freq,Total,CO2,H2O,Rayleigh,CIA
4.000000000e-01,1.96174e-25,9.99999e-01,9.99888e-01,1.96196e-25,9.99999e-01
4.020000000e-01,6.04231e-25,9.99999e-01,9.99930e-01,6.04273e-25,9.99999e-01
4.040100000e-01,1.81803e-24,9.99999e-01,9.99970e-01,1.81808e-24,9.99999e-01
4.060300500e-01,5.35233e-24,9.99999e-01,9.99992e-01,5.35236e-24,9.99999e-01
4.080602003e-01,1.54246e-23,9.99999e-01,9.99997e-01,1.54246e-23,9.99999e-01
4.101005013e-01,4.35315e-23,9.99999e-01,9.99999e-01,4.35315e-23,9.99999e-01
4.121510038e-01,1.20362e-22,9.99999e-01,9.99995e-01,1.20363e-22,9.99999e-01
4.142117588e-01,3.26170e-22,9.99999e-01,9.99969e-01,3.26180e-22,9.99999e-01
4.162828176e-01,8.66582e-22,9.99999e-01,9.99861e-01,8.66702e-22,9.99999e-01
4.183642317e-01,2.25873e-21,9.99999e-01,9.99917e-01,2.25891e-21,9.99999e-01
4.204560528e-01,5.77682e-21,9.99999e-01,9.99949e-01,5.77711e-21,9.99999e-01
4.225583331e-01,1.45030e-20,9.99999e-01,9.99980e-01,1.45033e-20,9.99999e-01
4.246711247e-01,3.57537e-20,9.99999e-01,9.99984e-01,3.57542e-20,9.99999e-01
4.267944804e-01,8.65840e-20,9.99999e-01,9.99977e-01,8.65859e-20,9.99999e-01
4.289284528e-01,2.06050e-19,9.99999e-01,9.99982e-01,2.06053e-19,9.99999e-01
4.310730950e-01,4.82028e-19,9.99999e-01,9.99992e-01,4.82031e-19,9.99999e-01
4.332284605e-01,1.10887e-18,9.99999e-01,9.99997e-01,1.10887e-18,9.99999e-01
4.353946028e-01,2.50921e-18,9.99999e-01,9.99998e-01,2.50921e-18,9.99999e-01
4.375715758e-01,5.58708e-18,9.99999e-01,9.99986e-01,5.58715e-18,9.99999e-01
4.397594337e-01,1.22440e-17,9.99999e-01,9.99879e-01,1.22455e-17,9.99999e-01
4.419582309e-01,2.64099e-17,9.99999e-01,9.99393e-01,2.64260e-17,9.99999e-01
4.441680220e-01,5.61406e-17,9.99999e-01,9.99516e-01,5.61677e-17,9.99999e-01
4.463888621e-01,1.17559e-16,9.99999e-01,9.99499e-01,1.17618e-16,9.99999e-01
4.486208064e-01,2.42654e-16,9.99999e-01,9.99687e-01,2.42729e-16,9.99999e-01
4.508639105e-01,4.93732e-16,9.99999e-01,9.99853e-01,4.93804e-16,9.99999e-01
4.531182300e-01,9.90535e-16,9.99999e-01,9.99941e-01,9.90592e-16,9.99999e-01
4.553838212e-01,1.95996e-15,9.99999e-01,9.99960e-01,1.96003e-15,9.99999e-01
4.576607403e-01,3.82622e-15,9.99999e-01,9.99981e-01,3.82629e-15,9.99999e-01
4.599490440e-01,7.37136e-15,9.99999e-01,9.99986e-01,7.37146e-15,9.99999e-01
4.622487892e-01,1.40186e-14,9.99999e-01,9.99997e-01,1.40186e-14,9.99999e-01
4.645600332e-01,2.63231e-14,9.99999e-01,9.99990e-01,2.63233e-14,9.99999e-01
4.668828333e-01,4.88101e-14,9.99999e-01,9.99853e-01,4.88172e-14,9.99999e-01
4.692172475e-01,8.94068e-14,9.99999e-01,9.99685e-01,8.94348e-14,9.99999e-01
4.715633337e-01,1.61867e-13,9.99999e-01,9.99795e-01,1.61900e-13,9.99999e-01
4.739211504e-01,2.89608e-13,9.99999e-01,9.99802e-01,2.89665e-13,9.99999e-01
4.762907561e-01,5.12283e-13,9.99999e-01,9.99897e-01,5.12335e-13,9.99999e-01
4.786722099e-01,8.95990e-13,9.99999e-01,9.99957e-01,8.96027e-13,9.99999e-01
4.810655710e-01,1.54984e-12,9.99999e-01,9.99987e-01,1.54986e-12,9.99999e-01
4.834708988e-01,2.65163e-12,9.99999e-01,9.99882e-01,2.65194e-12,9.99999e-01
4.858882533e-01,4.48880e-12,9.99999e-01,9.99777e-01,4.48980e-12,9.99999e-01
4.883176946e-01,7.52131e-12,9.99999e-01,9.99814e-01,7.52270e-12,9.99999e-01
4.907592831e-01,1.24744e-11,9.99999e-01,9.99831e-01,1.24765e-11,9.99999e-01
4.932130795e-01,2.04843e-11,9.99999e-01,9.99880e-01,2.04867e-11,9.99999e-01
4.956791449e-01,3.33096e-11,9.99999e-01,9.99936e-01,3.33117e-11,9.99999e-01
4.981575406e-01,5.36309e-11,9.99999e-01,9.99685e-01,5.36477e-11,9.99999e-01
5.006483283e-01,8.55199e-11,9.99999e-01,9.99191e-01,8.55891e-11,9.99999e-01
5.031515699e-01,1.34736e-10,9.99999e-01,9.95877e-01,1.35294e-10,9.99999e-01
5.056673278e-01,2.11475e-10,9.99999e-01,9.97814e-01,2.11938e-10,9.99999e-01
5.081956644e-01,3.28165e-10,9.99999e-01,9.97242e-01,3.29072e-10,9.99999e-01
5.107366428e-01,5.05578e-10,9.99999e-01,9.98136e-01,5.06522e-10,9.99999e-01
5.132903260e-01,7.72221e-10,9.99999e-01,9.98932e-01,7.73046e-10,9.99999e-01
5.158567776e-01,1.16947e-09,9.99999e-01,9.99548e-01,1.17000e-09,9.99999e-01
5.184360615e-01,1.75603e-09,9.99999e-01,9.99819e-01,1.75635e-09,9.99999e-01
5.210282418e-01,2.61531e-09,9.99999e-01,9.99932e-01,2.61548e-09,9.99999e-01
5.236333830e-01,3.86331e-09,9.99999e-01,9.99730e-01,3.86435e-09,9.99999e-01
5.262515499e-01,5.66473e-09,9.99999e-01,9.99830e-01,5.66569e-09,9.99999e-01
5.288828077e-01,8.24289e-09,9.99999e-01,9.99845e-01,8.24416e-09,9.99999e-01
5.315272217e-01,1.19059e-08,9.99999e-01,9.99862e-01,1.19075e-08,9.99999e-01
5.341848578e-01,1.70729e-08,9.99999e-01,9.99911e-01,1.70744e-08,9.99999e-01
5.368557821e-01,2.43018e-08,9.99999e-01,9.99687e-01,2.43094e-08,9.99999e-01
5.395400610e-01,3.43311e-08,9.99999e-01,9.98878e-01,3.43696e-08,9.99999e-01
5.422377613e-01,4.81910e-08,9.99999e-01,9.98531e-01,4.82618e-08,9.99999e-01
5.449489501e-01,6.72251e-08,9.99999e-01,9.98643e-01,6.73164e-08,9.99999e-01
5.476736949e-01,9.31659e-08,9.99999e-01,9.98789e-01,9.32788e-08,9.99999e-01
5.504120634e-01,1.28312e-07,9.99999e-01,9.99121e-01,1.28424e-07,9.99999e-01
5.531641237e-01,1.75621e-07,9.99999e-01,9.99557e-01,1.75699e-07,9.99999e-01
5.559299443e-01,2.38841e-07,9.99999e-01,9.99786e-01,2.38892e-07,9.99999e-01
5.587095940e-01,3.22805e-07,9.99999e-01,9.99866e-01,3.22848e-07,9.99999e-01
5.615031420e-01,4.33658e-07,9.99999e-01,9.99851e-01,4.33722e-07,9.99999e-01
5.643106577e-01,5.79189e-07,9.99999e-01,9.99833e-01,5.79285e-07,9.99999e-01
5.671322110e-01,7.67747e-07,9.99999e-01,9.97993e-01,7.69291e-07,9.99999e-01
5.699678720e-01,1.01368e-06,9.99999e-01,9.97807e-01,1.01591e-06,9.99999e-01
5.728177114e-01,1.33123e-06,9.99999e-01,9.97739e-01,1.33424e-06,9.99999e-01
5.756818000e-01,1.73929e-06,9.99999e-01,9.97921e-01,1.74291e-06,9.99999e-01
5.785602090e-01,2.26066e-06,9.99999e-01,9.98184e-01,2.26478e-06,9.99999e-01
5.814530100e-01,2.92238e-06,9.99999e-01,9.98180e-01,2.92771e-06,9.99999e-01
5.843602750e-01,3.75744e-06,9.99999e-01,9.97849e-01,3.76554e-06,9.99999e-01
5.872820764e-01,4.73055e-06,9.99999e-01,9.81620e-01,4.81912e-06,9.99999e-01
5.902184868e-01,5.99958e-06,9.99999e-01,9.77526e-01,6.13751e-06,9.99999e-01
5.931695792e-01,7.65599e-06,9.99999e-01,9.84144e-01,7.77934e-06,9.99999e-01
5.961354271e-01,9.64329e-06,9.99999e-01,9.82575e-01,9.81430e-06,9.99999e-01
5.991161043e-01,1.21676e-05,9.99999e-01,9.87242e-01,1.23249e-05,9.99999e-01
6.021116848e-01,1.52962e-05,9.99999e-01,9.92733e-01,1.54082e-05,9.99999e-01
6.051222432e-01,1.91074e-05,9.99999e-01,9.96315e-01,1.91781e-05,9.99999e-01
6.081478544e-01,2.37296e-05,9.99999e-01,9.98410e-01,2.37674e-05,9.99999e-01
6.111885937e-01,2.93106e-05,9.99999e-01,9.99325e-01,2.93304e-05,9.99999e-01
6.142445367e-01,3.60345e-05,9.99999e-01,9.99699e-01,3.60453e-05,9.99999e-01
6.173157594e-01,4.41103e-05,9.99999e-01,9.99834e-01,4.41176e-05,9.99999e-01
6.204023382e-01,5.37751e-05,9.99999e-01,9.99860e-01,5.37826e-05,9.99999e-01
6.235043498e-01,6.52694e-05,9.99999e-01,9.99394e-01,6.53089e-05,9.99999e-01
6.266218716e-01,7.87447e-05,9.99999e-01,9.96745e-01,7.90018e-05,9.99999e-01
6.297549810e-01,9.50933e-05,9.99999e-01,9.98805e-01,9.52070e-05,9.99999e-01
6.329037559e-01,1.14044e-04,9.99999e-01,9.97633e-01,1.14314e-04,9.99999e-01
6.360682746e-01,1.36487e-04,9.99999e-01,9.97992e-01,1.36761e-04,9.99999e-01
6.392486160e-01,1.62612e-04,9.99999e-01,9.97393e-01,1.63037e-04,9.99999e-01
6.424448591e-01,1.93018e-04,9.99999e-01,9.96540e-01,1.93688e-04,9.99999e-01
6.456570834e-01,2.25661e-04,9.99999e-01,9.84041e-01,2.29320e-04,9.99999e-01
6.488853688e-01,2.66855e-04,9.99999e-01,9.86149e-01,2.70603e-04,9.99999e-01
6.521297956e-01,3.14446e-04,9.99999e-01,9.87966e-01,3.18275e-04,9.99999e-01
6.553904446e-01,3.68706e-04,9.99999e-01,9.88095e-01,3.73148e-04,9.99999e-01
6.586673968e-01,4.31622e-04,9.99999e-01,9.89709e-01,4.36109e-04,9.99999e-01
6.619607338e-01,5.05097e-04,9.99999e-01,9.94037e-01,5.08126e-04,9.99999e-01
6.652705375e-01,5.88206e-04,9.99999e-01,9.96534e-01,5.90251e-04,9.99999e-01
6.685968902e-01,6.82523e-04,9.99999e-01,9.98390e-01,6.83623e-04,9.99999e-01
6.719398746e-01,7.88883e-04,9.99999e-01,9.99252e-01,7.89472e-04,9.99999e-01
6.752995740e-01,9.08756e-04,9.99999e-01,9.99596e-01,9.09122e-04,9.99999e-01
6.786760719e-01,1.04339e-03,9.99999e-01,9.99421e-01,1.04399e-03,9.99999e-01
6.820694522e-01,1.19441e-03,9.99999e-01,9.99007e-01,1.19560e-03,9.99999e-01
6.854797995e-01,1.36381e-03,9.99999e-01,9.98720e-01,1.36556e-03,9.99999e-01
6.889071985e-01,1.55085e-03,9.99999e-01,9.96951e-01,1.55559e-03,9.99999e-01
6.923517345e-01,1.68084e-03,9.99999e-01,9.50962e-01,1.76751e-03,9.99998e-01
6.958134932e-01,1.95064e-03,9.99999e-01,9.73744e-01,2.00324e-03,9.99998e-01
6.992925606e-01,2.20912e-03,9.99999e-01,9.75413e-01,2.26480e-03,9.99998e-01
7.027890234e-01,2.47642e-03,9.99999e-01,9.69501e-01,2.55432e-03,9.99998e-01
7.063029686e-01,2.80012e-03,9.99999e-01,9.74290e-01,2.87401e-03,9.99998e-01
7.098344834e-01,3.14653e-03,9.99999e-01,9.75309e-01,3.22618e-03,9.99998e-01
7.133836558e-01,3.49663e-03,9.99999e-01,9.67724e-01,3.61326e-03,9.99998e-01
7.169505741e-01,3.11579e-03,9.99999e-01,7.71673e-01,4.03772e-03,9.99996e-01
7.205353270e-01,3.95294e-03,9.99999e-01,8.78011e-01,4.50216e-03,9.99996e-01
7.241380036e-01,4.25348e-03,9.99999e-01,8.49130e-01,5.00924e-03,9.99995e-01
7.277586936e-01,4.79832e-03,9.99999e-01,8.62746e-01,5.56169e-03,9.99996e-01
7.313974871e-01,5.25680e-03,9.99999e-01,8.53056e-01,6.16233e-03,9.99997e-01
7.350544745e-01,6.24636e-03,9.99999e-01,9.16694e-01,6.81401e-03,9.99998e-01
7.387297469e-01,7.05167e-03,9.99999e-01,9.37764e-01,7.51966e-03,9.99998e-01
7.424233956e-01,8.02497e-03,9.99999e-01,9.68934e-01,8.28226e-03,9.99999e-01
7.461355126e-01,8.93255e-03,9.99999e-01,9.81080e-01,9.10480e-03,9.99999e-01
7.498661902e-01,9.90166e-03,9.99999e-01,9.91124e-01,9.99033e-03,9.99999e-01
7.536155211e-01,1.08943e-02,9.99999e-01,9.95648e-01,1.09419e-02,9.99999e-01
7.573835987e-01,1.19358e-02,9.99999e-01,9.97756e-01,1.19626e-02,9.99999e-01
7.611705167e-01,1.30373e-02,9.99999e-01,9.98605e-01,1.30555e-02,9.99999e-01
7.649763693e-01,1.42113e-02,9.99999e-01,9.99127e-01,1.42237e-02,9.99999e-01
7.688012511e-01,1.54607e-02,9.99999e-01,9.99392e-01,1.54701e-02,9.99999e-01
7.726452574e-01,1.67896e-02,9.99999e-01,9.99500e-01,1.67979e-02,9.99999e-01
7.765084837e-01,1.81972e-02,9.99999e-01,9.99295e-01,1.82101e-02,9.99999e-01
7.803910261e-01,1.72007e-02,8.75068e-01,9.96963e-01,1.97095e-02,9.99999e-01
7.842929812e-01,9.96392e-03,4.71911e-01,9.89446e-01,2.12990e-02,9.99999e-01
7.882144461e-01,1.03592e-02,4.59320e-01,9.78196e-01,2.29815e-02,9.99999e-01
7.921555184e-01,1.48624e-02,6.06834e-01,9.87935e-01,2.47597e-02,9.99999e-01
7.961162960e-01,1.85030e-02,7.08841e-01,9.78998e-01,2.66362e-02,9.99999e-01
8.000968774e-01,2.31641e-02,8.29477e-01,9.75614e-01,2.86136e-02,9.99999e-01
8.040973618e-01,2.71686e-02,9.06988e-01,9.75650e-01,3.06944e-02,9.99998e-01
8.081178486e-01,2.97721e-02,9.56249e-01,9.46488e-01,3.28809e-02,9.99998e-01
8.121584379e-01,2.76661e-02,9.86170e-01,7.96976e-01,3.51753e-02,9.99996e-01
8.162192301e-01,2.85817e-02,9.96927e-01,7.62691e-01,3.75797e-02,9.99995e-01
8.203003262e-01,3.52381e-02,9.99948e-01,8.78872e-01,4.00960e-02,9.99995e-01
8.244018279e-01,3.56454e-02,9.99999e-01,8.34278e-01,4.27262e-02,9.99995e-01
8.285238370e-01,3.86651e-02,9.99999e-01,8.50314e-01,4.54717e-02,9.99996e-01
8.326664562e-01,4.10207e-02,9.99999e-01,8.48691e-01,4.83341e-02,9.99997e-01
8.368297885e-01,4.55820e-02,9.99999e-01,8.88282e-01,5.13149e-02,9.99998e-01
8.410139374e-01,5.07064e-02,9.99999e-01,9.31844e-01,5.44150e-02,9.99999e-01
8.452190071e-01,5.56696e-02,9.99999e-01,9.65886e-01,5.76357e-02,9.99999e-01
8.494451021e-01,5.97652e-02,9.99999e-01,9.80114e-01,6.09777e-02,9.99999e-01
8.536923276e-01,6.36785e-02,9.99999e-01,9.88157e-01,6.44417e-02,9.99999e-01
8.579607893e-01,6.75324e-02,9.99999e-01,9.92711e-01,6.80282e-02,9.99999e-01
8.622505932e-01,7.14042e-02,9.99999e-01,9.95354e-01,7.17375e-02,9.99999e-01
8.665618462e-01,6.33944e-02,8.41112e-01,9.97133e-01,7.55698e-02,9.99999e-01
8.708946554e-01,1.32523e-02,1.67120e-01,9.96725e-01,7.95249e-02,9.99999e-01
8.752491287e-01,1.76729e-02,2.12228e-01,9.95617e-01,8.36029e-02,9.99999e-01
8.796253743e-01,3.61313e-02,4.13698e-01,9.93954e-01,8.78031e-02,9.99999e-01
8.840235012e-01,5.69969e-02,6.22669e-01,9.93091e-01,9.21252e-02,9.99999e-01
8.884436187e-01,7.79910e-02,8.26812e-01,9.75601e-01,9.65682e-02,9.99998e-01
8.928858368e-01,7.25564e-02,9.25620e-01,7.72374e-01,1.01131e-01,9.99995e-01
8.973502660e-01,6.58539e-02,9.81272e-01,6.33037e-01,1.05814e-01,9.99993e-01
9.018370173e-01,8.72992e-02,9.97913e-01,7.90635e-01,1.10614e-01,9.99992e-01
9.063462024e-01,9.02225e-02,9.51305e-01,8.14517e-01,1.15531e-01,9.99991e-01
9.108779334e-01,7.80228e-02,8.85820e-01,7.25486e-01,1.20562e-01,9.99990e-01
9.154323231e-01,8.48181e-02,9.71650e-01,6.92353e-01,1.25707e-01,9.99990e-01
9.200094847e-01,7.58070e-02,7.31999e-01,7.50632e-01,1.30963e-01,9.99987e-01
9.246095321e-01,5.16181e-02,5.56904e-01,6.57529e-01,1.36329e-01,9.99978e-01
9.292325798e-01,8.74404e-03,6.43993e-01,8.51833e-02,1.41802e-01,9.99955e-01
9.338787427e-01,3.80201e-03,6.45300e-01,3.58063e-02,1.47380e-01,9.99942e-01
9.385481364e-01,3.01574e-02,7.21085e-01,2.57336e-01,1.53061e-01,9.99941e-01
9.432408771e-01,2.28136e-02,8.16110e-01,1.69977e-01,1.58842e-01,9.99934e-01
9.479570815e-01,1.21235e-02,9.01047e-01,8.02307e-02,1.64720e-01,9.99942e-01
9.526968669e-01,2.27949e-02,9.51008e-01,1.38699e-01,1.70694e-01,9.99956e-01
9.574603512e-01,2.61442e-02,9.78691e-01,1.50324e-01,1.76760e-01,9.99967e-01
9.622476530e-01,3.72206e-02,9.93293e-01,2.04524e-01,1.82915e-01,9.99978e-01
9.670588912e-01,7.45742e-02,9.97981e-01,3.94866e-01,1.89157e-01,9.99985e-01
9.718941857e-01,1.06325e-01,9.99854e-01,5.43968e-01,1.95482e-01,9.99991e-01
9.767536566e-01,1.21627e-01,9.99999e-01,6.02450e-01,2.01888e-01,9.99993e-01
9.816374249e-01,1.42482e-01,9.99999e-01,6.83796e-01,2.08370e-01,9.99995e-01
9.865456120e-01,1.69235e-01,9.99999e-01,7.87408e-01,2.14927e-01,9.99997e-01
9.914783401e-01,1.91015e-01,9.99999e-01,8.62162e-01,2.21554e-01,9.99998e-01
9.964357318e-01,2.10524e-01,9.99999e-01,9.22345e-01,2.28248e-01,9.99999e-01
1.001417910e+00,2.23878e-01,9.99999e-01,9.52642e-01,2.35007e-01,9.99999e-01
1.006425000e+00,2.35238e-01,9.99999e-01,9.72757e-01,2.41826e-01,9.99999e-01
1.011457125e+00,2.44466e-01,9.99999e-01,9.82964e-01,2.48703e-01,9.99999e-01
1.016514411e+00,2.52673e-01,9.99999e-01,9.88418e-01,2.55633e-01,9.99999e-01
1.021596983e+00,2.60125e-01,9.99748e-01,9.90767e-01,2.62614e-01,9.99999e-01
1.026704968e+00,2.62423e-01,9.80240e-01,9.92796e-01,2.69642e-01,9.99999e-01
1.031838492e+00,2.39400e-01,8.69407e-01,9.94749e-01,2.76714e-01,9.99999e-01
1.036997685e+00,7.08447e-03,2.50188e-02,9.96884e-01,2.83826e-01,9.99999e-01
1.042182673e+00,6.17968e-05,2.12940e-04,9.96298e-01,2.90975e-01,9.99999e-01
1.047393587e+00,1.79279e-04,6.03658e-04,9.95085e-01,2.98158e-01,9.99999e-01
1.052630555e+00,1.02323e-10,3.36468e-10,9.93270e-01,3.05371e-01,9.99999e-01
1.057893707e+00,3.76227e-10,1.20974e-09,9.88806e-01,3.12610e-01,9.99999e-01
1.063183176e+00,1.30804e-07,4.12895e-07,9.81635e-01,3.19874e-01,9.99999e-01
1.068499092e+00,3.38086e-06,1.05028e-05,9.69417e-01,3.27157e-01,9.99999e-01
1.073841587e+00,1.66612e-04,5.09628e-04,9.64434e-01,3.34458e-01,9.99998e-01
1.079210795e+00,3.00115e-03,9.07519e-03,9.54459e-01,3.41772e-01,9.99998e-01
1.084606849e+00,2.12995e-02,6.46055e-02,9.32097e-01,3.49097e-01,9.99997e-01
1.090029883e+00,7.70188e-02,2.35805e-01,9.04745e-01,3.56430e-01,9.99995e-01
1.095480033e+00,1.36991e-01,4.87358e-01,7.61316e-01,3.63767e-01,9.99992e-01
1.100957433e+00,1.35099e-01,7.04555e-01,5.07355e-01,3.71107e-01,9.99987e-01
1.106462220e+00,6.63380e-02,8.64592e-01,1.98563e-01,3.78444e-01,9.99973e-01
1.111994531e+00,1.37116e-02,9.47353e-01,3.70161e-02,3.85778e-01,9.99947e-01
1.117554504e+00,2.50874e-03,9.86825e-01,6.42105e-03,3.93105e-01,9.99925e-01
1.123142276e+00,1.33990e-02,9.99124e-01,3.34669e-02,4.00422e-01,9.99911e-01
1.128757988e+00,3.48386e-02,9.99999e-01,8.54541e-02,4.07727e-01,9.99903e-01
1.134401778e+00,1.61057e-02,9.99999e-01,3.88115e-02,4.15016e-01,9.99892e-01
1.140073787e+00,8.84228e-02,9.99999e-01,2.09407e-01,4.22289e-01,9.99913e-01
1.145774156e+00,2.31073e-02,9.99999e-01,5.37992e-02,4.29541e-01,9.99926e-01
1.151503026e+00,1.68263e-02,9.99999e-01,3.85267e-02,4.36771e-01,9.99936e-01
1.157260541e+00,2.18566e-02,9.99999e-01,4.92315e-02,4.43976e-01,9.99951e-01
1.163046844e+00,4.73155e-02,9.99999e-01,1.04880e-01,4.51154e-01,9.99969e-01
1.168862078e+00,8.89779e-02,9.99999e-01,1.94149e-01,4.58303e-01,9.99984e-01
1.174706389e+00,1.68066e-01,9.99999e-01,3.61109e-01,4.65421e-01,9.99991e-01
1.180579921e+00,2.52305e-01,9.99999e-01,5.33974e-01,4.72505e-01,9.99994e-01
1.186482820e+00,3.34903e-01,9.99972e-01,6.98378e-01,4.79555e-01,9.99995e-01
1.192415234e+00,3.70382e-01,9.35952e-01,8.10204e-01,4.86567e-01,9.99995e-01
1.198377311e+00,2.03719e-01,4.78053e-01,8.37839e-01,4.93540e-01,9.99996e-01
1.204369197e+00,1.37583e-51,3.02943e-51,8.46557e-01,5.00472e-01,9.99996e-01
1.210391043e+00,4.15533e-214,8.95488e-214,8.52207e-01,5.07362e-01,9.99997e-01
1.216442998e+00,4.84440e-185,1.02528e-184,8.72574e-01,5.14207e-01,9.99998e-01
1.222525213e+00,3.15644e-182,6.39965e-182,8.99075e-01,5.21008e-01,9.99998e-01
1.228637839e+00,3.32247e-140,6.61563e-140,9.28777e-01,5.27761e-01,9.99999e-01
1.234781029e+00,1.53459e-86,2.94011e-86,9.46569e-01,5.34466e-01,9.99999e-01
1.240954934e+00,6.24823e-57,1.17897e-56,9.65895e-01,5.41120e-01,9.99999e-01
1.247159708e+00,1.80391e-26,3.34633e-26,9.73308e-01,5.47724e-01,9.99999e-01
1.253395507e+00,4.72454e-18,8.66385e-18,9.76298e-01,5.54276e-01,9.99999e-01
1.259662485e+00,5.72059e-11,1.03647e-10,9.77691e-01,5.60774e-01,9.99999e-01
1.265960797e+00,5.77311e-06,1.03734e-05,9.64403e-01,5.67218e-01,9.99998e-01
1.272290601e+00,1.30165e-03,2.35329e-03,9.48079e-01,5.73607e-01,9.99998e-01
1.278652054e+00,2.05082e-03,3.77171e-03,8.93836e-01,5.79939e-01,9.99997e-01
1.285045314e+00,9.72348e-08,1.80141e-07,8.39038e-01,5.86214e-01,9.99995e-01
1.291470541e+00,3.24712e-24,6.57152e-24,7.03118e-01,5.92430e-01,9.99992e-01
1.297927893e+00,1.15217e-09,2.37257e-09,6.34115e-01,5.98588e-01,9.99987e-01
1.304417533e+00,1.03584e-05,2.58189e-05,5.57825e-01,6.04687e-01,9.99976e-01
1.310939621e+00,3.53634e-06,8.44043e-06,5.14750e-01,6.10725e-01,9.99960e-01
1.317494319e+00,7.51795e-72,1.82043e-71,4.85708e-01,6.16703e-01,9.99934e-01
1.324081790e+00,1.20650e-46,3.18694e-46,3.50713e-01,6.22619e-01,9.99893e-01
1.330702199e+00,4.31252e-28,2.11917e-27,6.82249e-02,6.28474e-01,9.99821e-01
1.337355710e+00,8.75487e-28,1.28108e-24,1.39109e-04,6.34266e-01,9.99658e-01
1.344042489e+00,1.65445e-29,8.69863e-25,8.92296e-07,6.39996e-01,9.99268e-01
1.350762701e+00,1.10672e-46,8.58476e-28,1.13761e-20,6.45662e-01,9.98831e-01
1.357516515e+00,5.18957e-45,3.93274e-16,6.46960e-31,6.51266e-01,9.98553e-01
1.364304097e+00,3.69708e-29,5.39088e-12,7.09967e-19,6.56806e-01,9.98450e-01
1.371125618e+00,1.03376e-16,1.89155e-06,1.71758e-11,6.62282e-01,9.98437e-01
1.377981246e+00,2.17313e-15,1.00460e-05,5.28681e-11,6.67695e-01,9.98321e-01
1.384871152e+00,2.32650e-18,1.13474e-03,1.08393e-15,6.73043e-01,9.98338e-01
1.391795508e+00,2.48735e-21,2.07405e-03,3.74633e-19,6.78328e-01,9.98576e-01
1.398754485e+00,2.12120e-16,1.81672e-02,9.44469e-15,6.83548e-01,9.98811e-01
1.405748258e+00,6.72348e-16,5.56024e-02,1.05851e-14,6.88704e-01,9.98934e-01
1.412776999e+00,4.35086e-15,1.56413e-01,2.25550e-14,6.93796e-01,9.99143e-01
1.419840884e+00,6.68308e-15,1.67683e-01,3.44424e-14,6.98824e-01,9.99360e-01
1.426940089e+00,1.17648e-10,4.08484e-03,1.27714e-09,7.03789e-01,9.99603e-01
1.434074789e+00,0.00000e+00,0.00000e+00,1.92511e-08,7.08689e-01,9.99752e-01
1.441245163e+00,0.00000e+00,0.00000e+00,4.89508e-07,7.13525e-01,9.99807e-01
1.448451389e+00,0.00000e+00,0.00000e+00,5.96583e-05,7.18298e-01,9.99840e-01
1.455693646e+00,0.00000e+00,0.00000e+00,1.32872e-03,7.23008e-01,9.99867e-01
1.462972114e+00,0.00000e+00,0.00000e+00,1.99226e-03,7.27655e-01,9.99887e-01
1.470286975e+00,0.00000e+00,0.00000e+00,8.14420e-04,7.32239e-01,9.99898e-01
