#,Wave/freq,Total,CO2,H2O,Rayleigh,CIA
4.000000000e-01,2.88350e-14,9.99999e-01,9.99938e-01,2.88368e-14,9.99999e-01
4.020000000e-01,5.34146e-14,9.99999e-01,9.99961e-01,5.34166e-14,9.99999e-01
4.040100000e-01,9.76857e-14,9.99999e-01,9.99983e-01,9.76872e-14,9.99999e-01
4.060300500e-01,1.76530e-13,9.99999e-01,9.99995e-01,1.76531e-13,9.99999e-01
4.080602003e-01,3.15302e-13,9.99999e-01,9.99998e-01,3.15303e-13,9.99999e-01
4.101005013e-01,5.56748e-13,9.99999e-01,9.99999e-01,5.56748e-13,9.99999e-01
4.121510038e-01,9.72101e-13,9.99999e-01,9.99997e-01,9.72103e-13,9.99999e-01
4.142117588e-01,1.67872e-12,9.99999e-01,9.99982e-01,1.67874e-12,9.99999e-01
4.162828176e-01,2.86773e-12,9.99999e-01,9.99923e-01,2.86794e-12,9.99999e-01
4.183642317e-01,4.84778e-12,9.99999e-01,9.99954e-01,4.84799e-12,9.99999e-01
4.204560528e-01,8.11032e-12,9.99999e-01,9.99971e-01,8.11055e-12,9.99999e-01
4.225583331e-01,1.34313e-11,9.99999e-01,9.99989e-01,1.34315e-11,9.99999e-01
4.246711247e-01,2.20225e-11,9.99999e-01,9.99991e-01,2.20227e-11,9.99999e-01
4.267944804e-01,3.57577e-11,9.99999e-01,9.99987e-01,3.57582e-11,9.99999e-01
4.289284528e-01,5.75066e-11,9.99999e-01,9.99990e-01,5.75072e-11,9.99999e-01
4.310730950e-01,9.16202e-11,9.99999e-01,9.99995e-01,9.16205e-11,9.99999e-01
4.332284605e-01,1.44633e-10,9.99999e-01,9.99998e-01,1.44633e-10,9.99999e-01
4.353946028e-01,2.26270e-10,9.99999e-01,9.99999e-01,2.26270e-10,9.99999e-01
4.375715758e-01,3.50868e-10,9.99999e-01,9.99992e-01,3.50871e-10,9.99999e-01
4.397594337e-01,5.39356e-10,9.99999e-01,9.99933e-01,5.39392e-10,9.99999e-01
4.419582309e-01,8.21916e-10,9.99999e-01,9.99666e-01,8.22190e-10,9.99999e-01
4.441680220e-01,1.24254e-09,9.99999e-01,9.99735e-01,1.24286e-09,9.99999e-01
4.463888621e-01,1.86300e-09,9.99999e-01,9.99725e-01,1.86351e-09,9.99999e-01
4.486208064e-01,2.77134e-09,9.99999e-01,9.99828e-01,2.77181e-09,9.99999e-01
4.508639105e-01,4.09030e-09,9.99999e-01,9.99919e-01,4.09063e-09,9.99999e-01
4.531182300e-01,5.99052e-09,9.99999e-01,9.99967e-01,5.99071e-09,9.99999e-01
4.553838212e-01,8.70731e-09,9.99999e-01,9.99978e-01,8.70750e-09,9.99999e-01
4.576607403e-01,1.25631e-08,9.99999e-01,9.99989e-01,1.25632e-08,9.99999e-01
4.599490440e-01,1.79953e-08,9.99999e-01,9.99992e-01,1.79954e-08,9.99999e-01
4.622487892e-01,2.55942e-08,9.99999e-01,9.99998e-01,2.55942e-08,9.99999e-01
4.645600332e-01,3.61492e-08,9.99999e-01,9.99994e-01,3.61493e-08,9.99999e-01
4.668828333e-01,5.07063e-08,9.99999e-01,9.99919e-01,5.07103e-08,9.99999e-01
4.692172475e-01,7.06503e-08,9.99999e-01,9.99827e-01,7.06625e-08,9.99999e-01
4.715633337e-01,9.78107e-08,9.99999e-01,9.99887e-01,9.78217e-08,9.99999e-01
4.739211504e-01,1.34538e-07,9.99999e-01,9.99891e-01,1.34552e-07,9.99999e-01
4.762907561e-01,1.83903e-07,9.99999e-01,9.99943e-01,1.83913e-07,9.99999e-01
4.786722099e-01,2.49829e-07,9.99999e-01,9.99976e-01,2.49835e-07,9.99999e-01
4.810655710e-01,3.37336e-07,9.99999e-01,9.99992e-01,3.37339e-07,9.99999e-01
4.834708988e-01,4.52767e-07,9.99999e-01,9.99934e-01,4.52796e-07,9.99999e-01
4.858882533e-01,6.04173e-07,9.99999e-01,9.99877e-01,6.04247e-07,9.99999e-01
4.883176946e-01,8.01691e-07,9.99999e-01,9.99898e-01,8.01772e-07,9.99999e-01
4.907592831e-01,1.05784e-06,9.99999e-01,9.99907e-01,1.05794e-06,9.99999e-01
4.932130795e-01,1.38824e-06,9.99999e-01,9.99934e-01,1.38833e-06,9.99999e-01
4.956791449e-01,1.81208e-06,9.99999e-01,9.99964e-01,1.81214e-06,9.99999e-01
4.981575406e-01,2.35252e-06,9.99999e-01,9.99827e-01,2.35292e-06,9.99999e-01
5.006483283e-01,3.03801e-06,9.99999e-01,9.99555e-01,3.03936e-06,9.99999e-01
5.031515699e-01,3.89742e-06,9.99999e-01,9.97736e-01,3.90626e-06,9.99999e-01
5.056673278e-01,4.98961e-06,9.99999e-01,9.98801e-01,4.99560e-06,9.99999e-01
5.081956644e-01,6.34814e-06,9.99999e-01,9.98488e-01,6.35775e-06,9.99999e-01
5.107366428e-01,8.04465e-06,9.99999e-01,9.98978e-01,8.05287e-06,9.99999e-01
5.132903260e-01,1.01465e-05,9.99999e-01,9.99415e-01,1.01525e-05,9.99999e-01
5.158567776e-01,1.27379e-05,9.99999e-01,9.99752e-01,1.27410e-05,9.99999e-01
5.184360615e-01,1.59164e-05,9.99999e-01,9.99900e-01,1.59180e-05,9.99999e-01
5.210282418e-01,1.97992e-05,9.99999e-01,9.99962e-01,1.97999e-05,9.99999e-01
5.236333830e-01,2.45189e-05,9.99999e-01,9.99851e-01,2.45225e-05,9.99999e-01
5.262515499e-01,3.02407e-05,9.99999e-01,9.99907e-01,3.02435e-05,9.99999e-01
5.288828077e-01,3.71419e-05,9.99999e-01,9.99915e-01,3.71451e-05,9.99999e-01
5.315272217e-01,4.54333e-05,9.99999e-01,9.99924e-01,4.54367e-05,9.99999e-01
5.341848578e-01,5.53557e-05,9.99999e-01,9.99950e-01,5.53584e-05,9.99999e-01
5.368557821e-01,6.71726e-05,9.99999e-01,9.99828e-01,6.71841e-05,9.99999e-01
5.395400610e-01,8.11747e-05,9.99999e-01,9.99383e-01,8.12247e-05,9.99999e-01
5.422377613e-01,9.77535e-05,9.99999e-01,9.99195e-01,9.78322e-05,9.99999e-01
5.449489501e-01,1.17316e-04,9.99999e-01,9.99255e-01,1.17403e-04,9.99999e-01
5.476736949e-01,1.40290e-04,9.99999e-01,9.99336e-01,1.40383e-04,9.99999e-01
5.504120634e-01,1.67188e-04,9.99999e-01,9.99518e-01,1.67268e-04,9.99999e-01
5.531641237e-01,1.98566e-04,9.99999e-01,9.99757e-01,1.98614e-04,9.99999e-01
5.559299443e-01,2.35008e-04,9.99999e-01,9.99882e-01,2.35036e-04,9.99999e-01
5.587095940e-01,2.77192e-04,9.99999e-01,9.99926e-01,2.77213e-04,9.99999e-01
5.615031420e-01,3.25867e-04,9.99999e-01,9.99918e-01,3.25894e-04,9.99999e-01
5.643106577e-01,3.81867e-04,9.99999e-01,9.99908e-01,3.81902e-04,9.99999e-01
5.671322110e-01,4.45642e-04,9.99999e-01,9.98894e-01,4.46135e-04,9.99999e-01
5.699678720e-01,5.18951e-04,9.99999e-01,9.98799e-01,5.19575e-04,9.99999e-01
5.728177114e-01,6.02536e-04,9.99999e-01,9.98759e-01,6.03284e-04,9.99999e-01
5.756818000e-01,6.97621e-04,9.99999e-01,9.98859e-01,6.98417e-04,9.99999e-01
5.785602090e-01,8.05414e-04,9.99999e-01,9.99004e-01,8.06216e-04,9.99999e-01
5.814530100e-01,9.27092e-04,9.99999e-01,9.99002e-01,9.28018e-04,9.99999e-01
5.843602750e-01,1.06400e-03,9.99999e-01,9.98818e-01,1.06526e-03,9.99999e-01
5.872820764e-01,1.20709e-03,9.99999e-01,9.89851e-01,1.21947e-03,9.99999e-01
5.902184868e-01,1.37504e-03,9.99999e-01,9.87618e-01,1.39228e-03,9.99999e-01
5.931695792e-01,1.57157e-03,9.99999e-01,9.91265e-01,1.58542e-03,9.99999e-01
5.961354271e-01,1.78345e-03,9.99999e-01,9.90407e-01,1.80073e-03,9.99999e-01
5.991161043e-01,2.02583e-03,9.99999e-01,9.92988e-01,2.04014e-03,9.99999e-01
6.021116848e-01,2.29649e-03,9.99999e-01,9.96012e-01,2.30569e-03,9.99999e-01
6.051222432e-01,2.59426e-03,9.99999e-01,9.97979e-01,2.59951e-03,9.99999e-01
6.081478544e-01,2.92130e-03,9.99999e-01,9.99128e-01,2.92384e-03,9.99999e-01
6.111885937e-01,3.27980e-03,9.99999e-01,9.99630e-01,3.28101e-03,9.99999e-01
6.142445367e-01,3.67283e-03,9.99999e-01,9.99834e-01,3.67344e-03,9.99999e-01
6.173157594e-01,4.10326e-03,9.99999e-01,9.99908e-01,4.10363e-03,9.99999e-01
6.204023382e-01,4.57384e-03,9.99999e-01,9.99923e-01,4.57419e-03,9.99999e-01
6.235043498e-01,5.08609e-03,9.99999e-01,9.99666e-01,5.08779e-03,9.99999e-01
6.266218716e-01,5.63708e-03,9.99999e-01,9.98214e-01,5.64717e-03,9.99999e-01
6.297549810e-01,6.25105e-03,9.99999e-01,9.99344e-01,6.25515e-03,9.99999e-01
6.329037559e-01,6.90563e-03,9.99999e-01,9.98702e-01,6.91460e-03,9.99999e-01
6.360682746e-01,7.62007e-03,9.99999e-01,9.98898e-01,7.62846e-03,9.99999e-01
6.392486160e-01,8.38771e-03,9.99999e-01,9.98570e-01,8.39971e-03,9.99999e-01
6.424448591e-01,9.21381e-03,9.99999e-01,9.98099e-01,9.23135e-03,9.99999e-01
6.456570834e-01,1.00373e-02,9.99999e-01,9.91201e-01,1.01264e-02,9.99999e-01
6.488853688e-01,1.10036e-02,9.99999e-01,9.92391e-01,1.10880e-02,9.99999e-01
6.521297956e-01,1.20389e-02,9.99999e-01,9.93377e-01,1.21192e-02,9.99999e-01
6.553904446e-01,1.31364e-02,9.99999e-01,9.93453e-01,1.32230e-02,9.99999e-01
6.586673968e-01,1.43211e-02,9.99999e-01,9.94347e-01,1.44025e-02,9.99999e-01
6.619607338e-01,1.56095e-02,9.99999e-01,9.96728e-01,1.56607e-02,9.99999e-01
6.652705375e-01,1.69685e-02,9.99999e-01,9.98101e-01,1.70008e-02,9.99999e-01
6.685968902e-01,1.84094e-02,9.99999e-01,9.99117e-01,1.84256e-02,9.99999e-01
6.719398746e-01,1.99300e-02,9.99999e-01,9.99590e-01,1.99381e-02,9.99999e-01
6.752995740e-01,2.15364e-02,9.99999e-01,9.99778e-01,2.15412e-02,9.99999e-01
6.786760719e-01,2.32302e-02,9.99999e-01,9.99682e-01,2.32376e-02,9.99999e-01
6.820694522e-01,2.50165e-02,9.99999e-01,9.99455e-01,2.50301e-02,9.99999e-01
6.854797995e-01,2.69025e-02,9.99999e-01,9.99298e-01,2.69214e-02,9.99999e-01
6.889071985e-01,2.88654e-02,9.99999e-01,9.98320e-01,2.89139e-02,9.99999e-01
6.923517345e-01,3.01639e-02,9.99999e-01,9.72710e-01,3.10102e-02,9.99999e-01
6.958134932e-01,3.27313e-02,9.99999e-01,9.85513e-01,3.32124e-02,9.99999e-01
6.992925606e-01,3.50403e-02,9.99999e-01,9.86414e-01,3.55229e-02,9.99999e-01
7.027890234e-01,3.73044e-02,9.99999e-01,9.83150e-01,3.79437e-02,9.99999e-01
7.063029686e-01,3.99027e-02,9.99999e-01,9.85819e-01,4.04767e-02,9.99999e-01
7.098344834e-01,4.25367e-02,9.99999e-01,9.86388e-01,4.31237e-02,9.99999e-01
7.133836558e-01,4.50646e-02,9.99999e-01,9.82091e-01,4.58864e-02,9.99998e-01
7.169505741e-01,4.21971e-02,9.99999e-01,8.65295e-01,4.87662e-02,9.99997e-01
7.205353270e-01,4.81695e-02,9.99999e-01,9.30552e-01,5.17645e-02,9.99997e-01
7.241380036e-01,5.01307e-02,9.99999e-01,9.13422e-01,5.48824e-02,9.99997e-01
7.277586936e-01,5.35582e-02,9.99999e-01,9.21498e-01,5.81209e-02,9.99997e-01
7.313974871e-01,5.63249e-02,9.99999e-01,9.16137e-01,6.14808e-02,9.99998e-01
7.350544745e-01,6.19281e-02,9.99999e-01,9.53284e-01,6.49629e-02,9.99998e-01
7.387297469e-01,6.61914e-02,9.99999e-01,9.65347e-01,6.85674e-02,9.99999e-01
7.424233956e-01,7.10554e-02,9.99999e-01,9.82855e-01,7.22949e-02,9.99999e-01
7.461355126e-01,7.53525e-02,9.99999e-01,9.89587e-01,7.61453e-02,9.99999e-01
7.498661902e-01,7.97284e-02,9.99999e-01,9.95129e-01,8.01186e-02,9.99999e-01
7.536155211e-01,8.40136e-02,9.99999e-01,9.97613e-01,8.42146e-02,9.99999e-01
7.573835987e-01,8.83241e-02,9.99999e-01,9.98770e-01,8.84328e-02,9.99999e-01
7.611705167e-01,9.27019e-02,9.99999e-01,9.99235e-01,9.27728e-02,9.99999e-01
7.649763693e-01,9.71871e-02,9.99999e-01,9.99521e-01,9.72336e-02,9.99999e-01
7.688012511e-01,1.01781e-01,9.99999e-01,9.99666e-01,1.01814e-01,9.99999e-01
7.726452574e-01,1.06485e-01,9.99999e-01,9.99726e-01,1.06514e-01,9.99999e-01
7.765084837e-01,1.11289e-01,9.99999e-01,9.99613e-01,1.11332e-01,9.99999e-01
7.803910261e-01,1.06575e-01,9.18063e-01,9.98331e-01,1.16265e-01,9.99999e-01
7.842929812e-01,7.83240e-02,6.48955e-01,9.94188e-01,1.21314e-01,9.99999e-01
7.882144461e-01,7.93924e-02,6.34613e-01,9.87983e-01,1.26475e-01,9.99999e-01
7.921555184e-01,9.90606e-02,7.56596e-01,9.93371e-01,1.31748e-01,9.99999e-01
7.961162960e-01,1.12152e-01,8.27185e-01,9.88407e-01,1.37129e-01,9.99999e-01
8.000968774e-01,1.26957e-01,9.02216e-01,9.86556e-01,1.42618e-01,9.99999e-01
8.040973618e-01,1.38606e-01,9.47846e-01,9.86568e-01,1.48211e-01,9.99999e-01
8.081178486e-01,1.45715e-01,9.75765e-01,9.70163e-01,1.53907e-01,9.99998e-01
8.121584379e-01,1.39776e-01,9.92405e-01,8.81727e-01,1.59703e-01,9.99998e-01
8.162192301e-01,1.42261e-01,9.98317e-01,8.60457e-01,1.65595e-01,9.99997e-01
8.203003262e-01,1.59518e-01,9.99972e-01,9.29702e-01,1.71583e-01,9.99997e-01
8.244018279e-01,1.60281e-01,9.99999e-01,9.02169e-01,1.77662e-01,9.99997e-01
8.285238370e-01,1.68077e-01,9.99999e-01,9.14304e-01,1.83830e-01,9.99997e-01
8.326664562e-01,1.73598e-01,9.99999e-01,9.13266e-01,1.90085e-01,9.99998e-01
8.368297885e-01,1.84034e-01,9.99999e-01,9.36935e-01,1.96422e-01,9.99998e-01
8.410139374e-01,1.95129e-01,9.99999e-01,9.61991e-01,2.02839e-01,9.99999e-01
8.452190071e-01,2.05387e-01,9.99999e-01,9.81153e-01,2.09332e-01,9.99999e-01
8.494451021e-01,2.13535e-01,9.99999e-01,9.89050e-01,2.15899e-01,9.99999e-01
8.536923276e-01,2.21089e-01,9.99999e-01,9.93495e-01,2.22537e-01,9.99999e-01
8.579607893e-01,2.28324e-01,9.99999e-01,9.95998e-01,2.29241e-01,9.99999e-01
8.622505932e-01,2.35407e-01,9.99999e-01,9.97452e-01,2.36009e-01,9.99999e-01
8.665618462e-01,2.11906e-01,8.73915e-01,9.98427e-01,2.42837e-01,9.99999e-01
8.708946554e-01,8.64249e-02,3.46657e-01,9.98202e-01,2.49721e-01,9.99999e-01
8.752491287e-01,1.05729e-01,4.12865e-01,9.97594e-01,2.56660e-01,9.99999e-01
8.796253743e-01,1.59664e-01,6.07455e-01,9.96678e-01,2.63648e-01,9.99999e-01
8.840235012e-01,2.07327e-01,7.68733e-01,9.96204e-01,2.70683e-01,9.99999e-01
8.884436187e-01,2.46864e-01,9.00651e-01,9.86428e-01,2.77761e-01,9.99998e-01
8.928858368e-01,2.36646e-01,9.58477e-01,8.65749e-01,2.84878e-01,9.99997e-01
8.973502660e-01,2.23916e-01,9.89702e-01,7.74264e-01,2.92033e-01,9.99996e-01
9.018370173e-01,2.62139e-01,9.98858e-01,8.76994e-01,2.99220e-01,9.99995e-01
9.063462024e-01,2.66369e-01,9.72271e-01,8.91779e-01,3.06437e-01,9.99995e-01
9.108779334e-01,2.45866e-01,9.35481e-01,8.35959e-01,3.13680e-01,9.99994e-01
9.154323231e-01,2.57755e-01,9.84351e-01,8.15100e-01,3.20946e-01,9.99994e-01
9.200094847e-01,2.34186e-01,8.20459e-01,8.52171e-01,3.28233e-01,9.99992e-01
9.246095321e-01,1.93412e-01,7.23082e-01,7.86805e-01,3.35535e-01,9.99988e-01
9.292325798e-01,6.11795e-02,7.80300e-01,2.17166e-01,3.42852e-01,9.99975e-01
9.338787427e-01,3.95192e-02,7.83418e-01,1.37130e-01,3.50178e-01,9.99968e-01
9.385481364e-01,1.36066e-01,8.34617e-01,4.45232e-01,3.57512e-01,9.99967e-01
9.432408771e-01,1.12612e-01,8.94459e-01,3.40455e-01,3.64850e-01,9.99963e-01
9.479570815e-01,7.97132e-02,9.44444e-01,2.25270e-01,3.72189e-01,9.99968e-01
9.526968669e-01,1.16780e-01,9.72805e-01,3.14716e-01,3.79526e-01,9.99975e-01
9.574603512e-01,1.27399e-01,9.88264e-01,3.32582e-01,3.86859e-01,9.99981e-01
9.622476530e-01,1.57824e-01,9.96321e-01,4.01631e-01,3.94185e-01,9.99987e-01
9.670588912e-01,2.36118e-01,9.98894e-01,5.88655e-01,4.01500e-01,9.99992e-01
9.718941857e-01,2.91344e-01,9.99920e-01,7.12725e-01,4.08803e-01,9.99995e-01
9.767536566e-01,3.14009e-01,9.99999e-01,7.54667e-01,4.16090e-01,9.99996e-01
9.816374249e-01,3.43206e-01,9.99999e-01,8.10673e-01,4.23359e-01,9.99997e-01
9.865456120e-01,3.77539e-01,9.99999e-01,8.76757e-01,4.30609e-01,9.99998e-01
9.914783401e-01,4.03600e-01,9.99999e-01,9.21808e-01,4.37835e-01,9.99999e-01
9.964357318e-01,4.25728e-01,9.99999e-01,9.56614e-01,4.45036e-01,9.99999e-01
1.001417910e+00,4.40341e-01,9.99999e-01,9.73751e-01,4.52210e-01,9.99999e-01
1.006425000e+00,4.52452e-01,9.99999e-01,9.84971e-01,4.59355e-01,9.99999e-01
1.011457125e+00,4.62097e-01,9.99999e-01,9.90629e-01,4.66468e-01,9.99999e-01
1.016514411e+00,4.70534e-01,9.99999e-01,9.93636e-01,4.73547e-01,9.99999e-01
1.021596983e+00,4.78087e-01,9.99858e-01,9.94928e-01,4.80591e-01,9.99999e-01
1.026704968e+00,4.80329e-01,9.88990e-01,9.96044e-01,4.87597e-01,9.99999e-01
1.031838492e+00,4.49297e-01,9.10960e-01,9.97119e-01,4.94565e-01,9.99999e-01
1.036997685e+00,2.71039e-02,5.41164e-02,9.98290e-01,5.01491e-01,9.99999e-01
1.042182673e+00,2.08406e-03,4.10589e-03,9.97967e-01,5.08374e-01,9.99999e-01
1.047393587e+00,5.36844e-03,1.04433e-02,9.97302e-01,5.15213e-01,9.99999e-01
1.052630555e+00,8.39330e-07,1.61167e-06,9.96303e-01,5.22006e-01,9.99999e-01
1.057893707e+00,3.10353e-06,5.88840e-06,9.93842e-01,5.28753e-01,9.99999e-01
1.063183176e+00,7.10220e-05,1.33425e-04,9.89879e-01,5.35450e-01,9.99999e-01
1.068499092e+00,6.71965e-04,1.25382e-03,9.83095e-01,5.42098e-01,9.99999e-01
1.073841587e+00,7.29542e-03,1.34888e-02,9.80288e-01,5.48694e-01,9.99999e-01
1.079210795e+00,3.63780e-02,6.68549e-02,9.74733e-01,5.55238e-01,9.99998e-01
1.084606849e+00,1.16852e-01,2.15234e-01,9.62074e-01,5.61728e-01,9.99998e-01
1.090029883e+00,2.41599e-01,4.47483e-01,9.46268e-01,5.68164e-01,9.99997e-01
1.095480033e+00,3.33466e-01,6.71559e-01,8.60202e-01,5.74544e-01,9.99995e-01
1.100957433e+00,3.29789e-01,8.24636e-01,6.84532e-01,5.80868e-01,9.99992e-01
1.106462220e+00,2.15171e-01,9.23178e-01,3.94077e-01,5.87134e-01,9.99985e-01
1.111994531e+00,8.49126e-02,9.70772e-01,1.46680e-01,5.93342e-01,9.99970e-01
1.117554504e+00,2.92749e-02,9.92760e-01,4.90501e-02,5.99492e-01,9.99958e-01
1.123142276e+00,7.53122e-02,9.99520e-01,1.24378e-01,6.05581e-01,9.99951e-01
1.128757988e+00,1.45762e-01,9.99999e-01,2.38337e-01,6.11611e-01,9.99947e-01
1.134401778e+00,6.46277e-02,9.99999e-01,1.04653e-01,6.17579e-01,9.99940e-01
1.140073787e+00,2.55872e-01,9.99999e-01,4.10409e-01,6.23486e-01,9.99952e-01
1.145774156e+00,1.08824e-01,9.99999e-01,1.72926e-01,6.29332e-01,9.99959e-01
1.151503026e+00,9.17047e-02,9.99999e-01,1.44396e-01,6.35115e-01,9.99965e-01
1.157260541e+00,1.14494e-01,9.99999e-01,1.78668e-01,6.40835e-01,9.99973e-01
1.163046844e+00,1.78516e-01,9.99999e-01,2.76134e-01,6.46493e-01,9.99982e-01
1.168862078e+00,2.60298e-01,9.99999e-01,3.99180e-01,6.52087e-01,9.99991e-01
1.174706389e+00,3.72610e-01,9.99999e-01,5.66608e-01,6.57618e-01,9.99995e-01
1.180579921e+00,4.68243e-01,9.99999e-01,7.06160e-01,6.63084e-01,9.99996e-01
1.186482820e+00,5.48575e-01,9.99983e-01,8.20633e-01,6.68488e-01,9.99997e-01
1.192415234e+00,5.78547e-01,9.62577e-01,8.90862e-01,6.73827e-01,9.99997e-01
1.198377311e+00,3.26202e-01,5.20866e-01,9.07350e-01,6.79102e-01,9.99997e-01
1.204369197e+00,2.67486e-29,4.12257e-29,9.12275e-01,6.84312e-01,9.99998e-01
1.210391043e+00,2.18647e-118,3.33036e-118,9.15793e-01,6.89459e-01,9.99998e-01
1.216442998e+00,1.86830e-102,2.81766e-102,9.27797e-01,6.94542e-01,9.99998e-01
1.222525213e+00,6.53638e-101,9.62854e-101,9.43280e-01,6.99560e-01,9.99999e-01
1.228637839e+00,7.41968e-78,1.08228e-77,9.60274e-01,7.04515e-01,9.99999e-01
1.234781029e+00,1.85648e-48,2.65117e-48,9.70326e-01,7.09406e-01,9.99999e-01
1.240954934e+00,3.65170e-32,5.17257e-32,9.81146e-01,7.14233e-01,9.99999e-01
1.247159708e+00,1.57839e-15,2.21451e-15,9.85276e-01,7.18997e-01,9.99999e-01
1.253395507e+00,1.45746e-10,2.03247e-10,9.86932e-01,7.23697e-01,9.99999e-01
1.259662485e+00,2.42174e-06,3.35485e-06,9.87603e-01,7.28335e-01,9.99999e-01
1.265960797e+00,6.77160e-04,9.35709e-04,9.80233e-01,7.32910e-01,9.99999e-01
1.272290601e+00,2.21999e-02,3.07929e-02,9.71123e-01,7.37422e-01,9.99998e-01
1.278652054e+00,2.54615e-02,3.57249e-02,9.40022e-01,7.41872e-01,9.99998e-01
1.285045314e+00,3.54064e-05,4.96966e-05,9.07499e-01,7.46260e-01,9.99997e-01
1.291470541e+00,4.67755e-14,6.92775e-14,8.22765e-01,7.50587e-01,9.99995e-01
1.297927893e+00,3.44117e-06,5.11784e-06,7.75957e-01,7.54853e-01,9.99992e-01
1.304417533e+00,1.47996e-03,2.50637e-03,7.21868e-01,7.59057e-01,9.99987e-01
1.310939621e+00,4.07583e-04,6.59864e-04,6.89633e-01,7.63202e-01,9.99978e-01
1.317494319e+00,2.24847e-40,3.65327e-40,6.67410e-01,7.67287e-01,9.99963e-01
1.324081790e+00,1.43167e-26,2.44058e-26,5.51504e-01,7.71312e-01,9.99941e-01
1.330702199e+00,4.47952e-16,1.25257e-15,1.63784e-01,7.75278e-01,9.99901e-01
1.337355710e+00,4.26884e-16,2.51366e-14,4.84026e-03,7.79186e-01,9.99812e-01
1.344042489e+00,3.42262e-17,1.32568e-14,9.95689e-05,7.83035e-01,9.99598e-01
1.350762701e+00,1.53513e-26,6.08107e-16,3.10187e-12,7.86827e-01,9.99359e-01
1.357516515e+00,1.09996e-25,9.55269e-10,6.52014e-18,7.90562e-01,9.99206e-01
1.364304097e+00,6.37979e-17,3.75622e-07,3.14530e-11,7.94240e-01,9.99149e-01
1.371125618e+00,3.98186e-10,5.33056e-04,2.94465e-07,7.97863e-01,9.99142e-01
1.377981246e+00,3.31613e-09,1.48475e-03,9.87468e-07,8.01430e-01,9.99079e-01
1.384871152e+00,4.42439e-11,2.23808e-02,1.28431e-09,8.04941e-01,9.99088e-01
1.391795508e+00,1.60156e-12,3.00460e-02,2.73226e-11,8.08399e-01,9.99219e-01
1.398754485e+00,6.52463e-10,1.09891e-01,5.40016e-09,8.11802e-01,9.99347e-01
1.405748258e+00,1.38829e-09,1.99984e-01,6.33498e-09,8.15152e-01,9.99415e-01
1.412776999e+00,2.94614e-09,3.58561e-01,7.31020e-09,8.18450e-01,9.99530e-01
1.419840884e+00,5.76736e-09,3.39056e-01,1.42684e-08,8.21695e-01,9.99648e-01
1.426940089e+00,7.41455e-07,1.26341e-02,2.87645e-06,8.24889e-01,9.99782e-01
1.434074789e+00,0.00000e+00,0.00000e+00,2.63250e-05,8.28031e-01,9.99864e-01
1.441245163e+00,0.00000e+00,0.00000e+00,1.79665e-04,8.31123e-01,9.99894e-01
1.448451389e+00,0.00000e+00,0.00000e+00,2.68066e-03,8.34166e-01,9.99912e-01
1.455693646e+00,0.00000e+00,0.00000e+00,1.73324e-02,8.37159e-01,9.99927e-01
1.462972114e+00,0.00000e+00,0.00000e+00,2.57523e-02,8.40103e-01,9.99937e-01
1.470286975e+00,2.59130e-197,4.25591e-196,1.46198e-02,8.42999e-01,9.99944e-01
