#,Wave/freq,Total,CO2,H2O,Rayleigh,CIA
4.000000000e-01,2.12877e-09,9.99999e-01,9.99960e-01,2.12885e-09,9.99999e-01
4.020000000e-01,3.15934e-09,9.99999e-01,9.99975e-01,3.15941e-09,9.99999e-01
4.040100000e-01,4.65057e-09,9.99999e-01,9.99989e-01,4.65061e-09,9.99999e-01
4.060300500e-01,6.79355e-09,9.99999e-01,9.99997e-01,6.79356e-09,9.99999e-01
4.080602003e-01,9.84994e-09,9.99999e-01,9.99998e-01,9.84994e-09,9.99999e-01
4.101005013e-01,1.41770e-08,9.99999e-01,9.99999e-01,1.41770e-08,9.99999e-01
4.121510038e-01,2.02586e-08,9.99999e-01,9.99998e-01,2.02586e-08,9.99999e-01
4.142117588e-01,2.87454e-08,9.99999e-01,9.99988e-01,2.87457e-08,9.99999e-01
4.162828176e-01,4.05054e-08,9.99999e-01,9.99951e-01,4.05074e-08,9.99999e-01
4.183642317e-01,5.66946e-08,9.99999e-01,9.99970e-01,5.66962e-08,9.99999e-01
4.204560528e-01,7.88282e-08,9.99999e-01,9.99981e-01,7.88296e-08,9.99999e-01
4.225583331e-01,1.08892e-07,9.99999e-01,9.99993e-01,1.08892e-07,9.99999e-01
4.246711247e-01,1.49462e-07,9.99999e-01,9.99994e-01,1.49463e-07,9.99999e-01
4.267944804e-01,2.03869e-07,9.99999e-01,9.99991e-01,2.03870e-07,9.99999e-01
4.289284528e-01,2.76381e-07,9.99999e-01,9.99993e-01,2.76382e-07,9.99999e-01
4.310730950e-01,3.72440e-07,9.99999e-01,9.99996e-01,3.72440e-07,9.99999e-01
4.332284605e-01,4.98935e-07,9.99999e-01,9.99998e-01,4.98935e-07,9.99999e-01
4.353946028e-01,6.64544e-07,9.99999e-01,9.99999e-01,6.64544e-07,9.99999e-01
4.375715758e-01,8.80120e-07,9.99999e-01,9.99994e-01,8.80124e-07,9.99999e-01
4.397594337e-01,1.15914e-06,9.99999e-01,9.99956e-01,1.15919e-06,9.99999e-01
4.419582309e-01,1.51812e-06,9.99999e-01,9.99779e-01,1.51846e-06,9.99999e-01
4.441680220e-01,1.97816e-06,9.99999e-01,9.99832e-01,1.97849e-06,9.99999e-01
4.463888621e-01,2.56401e-06,9.99999e-01,9.99824e-01,2.56446e-06,9.99999e-01
4.486208064e-01,3.30662e-06,9.99999e-01,9.99891e-01,3.30698e-06,9.99999e-01
4.508639105e-01,4.24291e-06,9.99999e-01,9.99948e-01,4.24313e-06,9.99999e-01
4.531182300e-01,5.41744e-06,9.99999e-01,9.99979e-01,5.41755e-06,9.99999e-01
4.553838212e-01,6.88363e-06,9.99999e-01,9.99985e-01,6.88372e-06,9.99999e-01
4.576607403e-01,8.70535e-06,9.99999e-01,9.99993e-01,8.70540e-06,9.99999e-01
4.599490440e-01,1.09582e-05,9.99999e-01,9.99995e-01,1.09582e-05,9.99999e-01
4.622487892e-01,1.37315e-05,9.99999e-01,9.99998e-01,1.37315e-05,9.99999e-01
4.645600332e-01,1.71301e-05,9.99999e-01,9.99996e-01,1.71301e-05,9.99999e-01
4.668828333e-01,2.12756e-05,9.99999e-01,9.99947e-01,2.12767e-05,9.99999e-01
4.692172475e-01,2.63113e-05,9.99999e-01,9.99889e-01,2.63142e-05,9.99999e-01
4.715633337e-01,3.24057e-05,9.99999e-01,9.99927e-01,3.24081e-05,9.99999e-01
4.739211504e-01,3.97465e-05,9.99999e-01,9.99931e-01,3.97493e-05,9.99999e-01
4.762907561e-01,4.85554e-05,9.99999e-01,9.99964e-01,4.85571e-05,9.99999e-01
4.786722099e-01,5.90818e-05,9.99999e-01,9.99985e-01,5.90827e-05,9.99999e-01
4.810655710e-01,7.16115e-05,9.99999e-01,9.99995e-01,7.16118e-05,9.99999e-01
4.834708988e-01,8.64649e-05,9.99999e-01,9.99956e-01,8.64687e-05,9.99999e-01
4.858882533e-01,1.04012e-04,9.99999e-01,9.99922e-01,1.04020e-04,9.99999e-01
4.883176946e-01,1.24669e-04,9.99999e-01,9.99934e-01,1.24677e-04,9.99999e-01
4.907592831e-01,1.48895e-04,9.99999e-01,9.99940e-01,1.48904e-04,9.99999e-01
4.932130795e-01,1.77207e-04,9.99999e-01,9.99957e-01,1.77215e-04,9.99999e-01
4.956791449e-01,2.10180e-04,9.99999e-01,9.99977e-01,2.10185e-04,9.99999e-01
4.981575406e-01,2.48422e-04,9.99999e-01,9.99888e-01,2.48450e-04,9.99999e-01
5.006483283e-01,2.92628e-04,9.99999e-01,9.99708e-01,2.92713e-04,9.99999e-01
5.031515699e-01,3.43246e-04,9.99999e-01,9.98542e-01,3.43747e-04,9.99999e-01
5.056673278e-01,4.02091e-04,9.99999e-01,9.99234e-01,4.02399e-04,9.99999e-01
5.081956644e-01,4.69142e-04,9.99999e-01,9.99034e-01,4.69595e-04,9.99999e-01
5.107366428e-01,5.45987e-04,9.99999e-01,9.99348e-01,5.46342e-04,9.99999e-01
5.132903260e-01,6.33500e-04,9.99999e-01,9.99628e-01,6.33735e-04,9.99999e-01
5.158567776e-01,7.32842e-04,9.99999e-01,9.99843e-01,7.32956e-04,9.99999e-01
5.184360615e-01,8.45227e-04,9.99999e-01,9.99936e-01,8.45280e-04,9.99999e-01
5.210282418e-01,9.72052e-04,9.99999e-01,9.99975e-01,9.72075e-04,9.99999e-01
5.236333830e-01,1.11470e-03,9.99999e-01,9.99904e-01,1.11481e-03,9.99999e-01
5.262515499e-01,1.27497e-03,9.99999e-01,9.99940e-01,1.27504e-03,9.99999e-01
5.288828077e-01,1.45437e-03,9.99999e-01,9.99944e-01,1.45445e-03,9.99999e-01
5.315272217e-01,1.65471e-03,9.99999e-01,9.99952e-01,1.65479e-03,9.99999e-01
5.341848578e-01,1.87787e-03,9.99999e-01,9.99968e-01,1.87793e-03,9.99999e-01
5.368557821e-01,2.12560e-03,9.99999e-01,9.99888e-01,2.12584e-03,9.99999e-01
5.395400610e-01,2.39962e-03,9.99999e-01,9.99594e-01,2.40059e-03,9.99999e-01
5.422377613e-01,2.70297e-03,9.99999e-01,9.99487e-01,2.70435e-03,9.99999e-01
5.449489501e-01,3.03793e-03,9.99999e-01,9.99518e-01,3.03939e-03,9.99999e-01
5.476736949e-01,3.40663e-03,9.99999e-01,9.99578e-01,3.40806e-03,9.99999e-01
5.504120634e-01,3.81166e-03,9.99999e-01,9.99693e-01,3.81283e-03,9.99999e-01
5.531641237e-01,4.25556e-03,9.99999e-01,9.99845e-01,4.25621e-03,9.99999e-01
5.559299443e-01,4.74050e-03,9.99999e-01,9.99925e-01,4.74085e-03,9.99999e-01
5.587095940e-01,5.26918e-03,9.99999e-01,9.99952e-01,5.26943e-03,9.99999e-01
5.615031420e-01,5.84442e-03,9.99999e-01,9.99947e-01,5.84473e-03,9.99999e-01
5.643106577e-01,6.46919e-03,9.99999e-01,9.99939e-01,6.46958e-03,9.99999e-01
5.671322110e-01,7.14162e-03,9.99999e-01,9.99262e-01,7.14689e-03,9.99999e-01
5.699678720e-01,7.87364e-03,9.99999e-01,9.99244e-01,7.87959e-03,9.99999e-01
5.728177114e-01,8.66375e-03,9.99999e-01,9.99201e-01,8.67067e-03,9.99999e-01
5.756818000e-01,9.51621e-03,9.99999e-01,9.99269e-01,9.52316e-03,9.99999e-01
5.785602090e-01,1.04335e-02,9.99999e-01,9.99364e-01,1.04401e-02,9.99999e-01
5.814530100e-01,1.14173e-02,9.99999e-01,9.99359e-01,1.14246e-02,9.99999e-01
5.843602750e-01,1.24701e-02,9.99999e-01,9.99229e-01,1.24797e-02,9.99999e-01
5.872820764e-01,1.35184e-02,9.99999e-01,9.93382e-01,1.36084e-02,9.99999e-01
5.902184868e-01,1.46966e-02,9.99999e-01,9.92083e-01,1.48139e-02,9.99999e-01
5.931695792e-01,1.60087e-02,9.99999e-01,9.94380e-01,1.60992e-02,9.99999e-01
5.961354271e-01,1.73600e-02,9.99999e-01,9.93858e-01,1.74672e-02,9.99999e-01
5.991161043e-01,1.88363e-02,9.99999e-01,9.95524e-01,1.89210e-02,9.99999e-01
6.021116848e-01,2.04115e-02,9.99999e-01,9.97462e-01,2.04634e-02,9.99999e-01
6.051222432e-01,2.20690e-02,9.99999e-01,9.98716e-01,2.20974e-02,9.99999e-01
6.081478544e-01,2.38124e-02,9.99999e-01,9.99445e-01,2.38256e-02,9.99999e-01
6.111885937e-01,2.56449e-02,9.99999e-01,9.99766e-01,2.56509e-02,9.99999e-01
6.142445367e-01,2.75728e-02,9.99999e-01,9.99894e-01,2.75757e-02,9.99999e-01
6.173157594e-01,2.96009e-02,9.99999e-01,9.99941e-01,2.96026e-02,9.99999e-01
6.204023382e-01,3.17324e-02,9.99999e-01,9.99950e-01,3.17340e-02,9.99999e-01
6.235043498e-01,3.39646e-02,9.99999e-01,9.99778e-01,3.39722e-02,9.99999e-01
6.266218716e-01,3.62776e-02,9.99999e-01,9.98853e-01,3.63193e-02,9.99999e-01
6.297549810e-01,3.87610e-02,9.99999e-01,9.99579e-01,3.87773e-02,9.99999e-01
6.329037559e-01,4.13140e-02,9.99999e-01,9.99172e-01,4.13482e-02,9.99999e-01
6.360682746e-01,4.40025e-02,9.99999e-01,9.99290e-01,4.40337e-02,9.99999e-01
6.392486160e-01,4.67925e-02,9.99999e-01,9.99083e-01,4.68354e-02,9.99999e-01
6.424448591e-01,4.96929e-02,9.99999e-01,9.98759e-01,4.97546e-02,9.99999e-01
6.456570834e-01,5.24894e-02,9.99999e-01,9.94254e-01,5.27927e-02,9.99999e-01
6.488853688e-01,5.57189e-02,9.99999e-01,9.95855e-01,5.59508e-02,9.99999e-01
6.521297956e-01,5.89797e-02,9.99999e-01,9.95776e-01,5.92298e-02,9.99999e-01
6.553904446e-01,6.23654e-02,9.99999e-01,9.95767e-01,6.26305e-02,9.99999e-01
6.586673968e-01,6.59150e-02,9.99999e-01,9.96396e-01,6.61534e-02,9.99999e-01
6.619607338e-01,6.96588e-02,9.99999e-01,9.97991e-01,6.97990e-02,9.99999e-01
6.652705375e-01,7.34788e-02,9.99999e-01,9.98793e-01,7.35675e-02,9.99999e-01
6.685968902e-01,7.74194e-02,9.99999e-01,9.99487e-01,7.74590e-02,9.99999e-01
6.719398746e-01,8.14522e-02,9.99999e-01,9.99740e-01,8.14733e-02,9.99999e-01
6.752995740e-01,8.55985e-02,9.99999e-01,9.99862e-01,8.56102e-02,9.99999e-01
6.786760719e-01,8.98507e-02,9.99999e-01,9.99793e-01,8.98692e-02,9.99999e-01
6.820694522e-01,9.42163e-02,9.99999e-01,9.99646e-01,9.42496e-02,9.99999e-01
6.854797995e-01,9.87061e-02,9.99999e-01,9.99547e-01,9.87507e-02,9.99999e-01
6.889071985e-01,1.03220e-01,9.99999e-01,9.98534e-01,1.03371e-01,9.99999e-01
6.923517345e-01,1.06175e-01,9.99999e-01,9.82095e-01,1.08111e-01,9.99999e-01
6.958134932e-01,1.11945e-01,9.99999e-01,9.90952e-01,1.12967e-01,9.99999e-01
6.992925606e-01,1.16896e-01,9.99999e-01,9.91152e-01,1.17939e-01,9.99999e-01
7.027890234e-01,1.21698e-01,9.99999e-01,9.89205e-01,1.23026e-01,9.99999e-01
7.063029686e-01,1.27058e-01,9.99999e-01,9.90905e-01,1.28224e-01,9.99999e-01
7.098344834e-01,1.32368e-01,9.99999e-01,9.91272e-01,1.33533e-01,9.99999e-01
7.133836558e-01,1.37310e-01,9.99999e-01,9.88188e-01,1.38951e-01,9.99999e-01
7.169505741e-01,1.31451e-01,9.99999e-01,9.09854e-01,1.44475e-01,9.99998e-01
7.205353270e-01,1.43482e-01,9.99999e-01,9.55895e-01,1.50103e-01,9.99998e-01
7.241380036e-01,1.46960e-01,9.99999e-01,9.43063e-01,1.55832e-01,9.99998e-01
7.277586936e-01,1.53344e-01,9.99999e-01,9.48557e-01,1.61661e-01,9.99998e-01
7.313974871e-01,1.58503e-01,9.99999e-01,9.45804e-01,1.67585e-01,9.99998e-01
7.350544745e-01,1.68386e-01,9.99999e-01,9.69941e-01,1.73604e-01,9.99999e-01
7.387297469e-01,1.75725e-01,9.99999e-01,9.77806e-01,1.79713e-01,9.99999e-01
7.424233956e-01,1.83887e-01,9.99999e-01,9.89113e-01,1.85910e-01,9.99999e-01
7.461355126e-01,1.90920e-01,9.99999e-01,9.93375e-01,1.92193e-01,9.99999e-01
7.498661902e-01,1.97946e-01,9.99999e-01,9.96923e-01,1.98557e-01,9.99999e-01
7.536155211e-01,2.04689e-01,9.99999e-01,9.98483e-01,2.05000e-01,9.99999e-01
7.573835987e-01,2.11353e-01,9.99999e-01,9.99219e-01,2.11518e-01,9.99999e-01
7.611705167e-01,2.18003e-01,9.99999e-01,9.99514e-01,2.18109e-01,9.99999e-01
7.649763693e-01,2.24701e-01,9.99999e-01,9.99695e-01,2.24769e-01,9.99999e-01
7.688012511e-01,2.31446e-01,9.99999e-01,9.99787e-01,2.31495e-01,9.99999e-01
7.726452574e-01,2.38241e-01,9.99999e-01,9.99824e-01,2.38283e-01,9.99999e-01
7.765084837e-01,2.45069e-01,9.99999e-01,9.99748e-01,2.45130e-01,9.99999e-01
7.803910261e-01,2.36033e-01,9.37475e-01,9.98911e-01,2.52033e-01,9.99999e-01
7.842929812e-01,1.94766e-01,7.54654e-01,9.96204e-01,2.58989e-01,9.99999e-01
7.882144461e-01,1.95187e-01,7.39114e-01,9.92284e-01,2.65993e-01,9.99999e-01
7.921555184e-01,2.26942e-01,8.34519e-01,9.95793e-01,2.73043e-01,9.99999e-01
7.961162960e-01,2.46501e-01,8.86519e-01,9.92457e-01,2.80134e-01,9.99999e-01
8.000968774e-01,2.66736e-01,9.36586e-01,9.91359e-01,2.87265e-01,9.99999e-01
8.040973618e-01,2.82195e-01,9.66784e-01,9.91340e-01,2.94430e-01,9.99999e-01
8.081178486e-01,2.91164e-01,9.84526e-01,9.80428e-01,3.01628e-01,9.99999e-01
8.121584379e-01,2.83196e-01,9.95266e-01,9.21206e-01,3.08854e-01,9.99998e-01
8.162192301e-01,2.86877e-01,9.98951e-01,9.08456e-01,3.16105e-01,9.99998e-01
8.203003262e-01,3.08013e-01,9.99985e-01,9.52495e-01,3.23378e-01,9.99998e-01
8.244018279e-01,3.09698e-01,9.99999e-01,9.36577e-01,3.30671e-01,9.99998e-01
8.285238370e-01,3.18970e-01,9.99999e-01,9.43758e-01,3.37978e-01,9.99998e-01
8.326664562e-01,3.25791e-01,9.99999e-01,9.43507e-01,3.45298e-01,9.99998e-01
8.368297885e-01,3.38296e-01,9.99999e-01,9.59359e-01,3.52627e-01,9.99999e-01
8.410139374e-01,3.51202e-01,9.99999e-01,9.75661e-01,3.59963e-01,9.99999e-01
8.452190071e-01,3.62899e-01,9.99999e-01,9.88012e-01,3.67301e-01,9.99999e-01
8.494451021e-01,3.72015e-01,9.99999e-01,9.92992e-01,3.74640e-01,9.99999e-01
8.536923276e-01,3.80399e-01,9.99999e-01,9.95869e-01,3.81977e-01,9.99999e-01
8.579607893e-01,3.88313e-01,9.99999e-01,9.97444e-01,3.89307e-01,9.99999e-01
8.622505932e-01,3.95988e-01,9.99999e-01,9.98381e-01,3.96630e-01,9.99999e-01
8.665618462e-01,3.58759e-01,8.88990e-01,9.98993e-01,4.03941e-01,9.99999e-01
8.708946554e-01,2.02313e-01,4.92495e-01,9.98843e-01,4.11239e-01,9.99999e-01
8.752491287e-01,2.34737e-01,5.61697e-01,9.98455e-01,4.18521e-01,9.99999e-01
8.796253743e-01,3.08377e-01,7.25734e-01,9.97852e-01,4.25784e-01,9.99999e-01
8.840235012e-01,3.65322e-01,8.45663e-01,9.97550e-01,4.33025e-01,9.99999e-01
8.884436187e-01,4.08457e-01,9.36190e-01,9.90867e-01,4.40244e-01,9.99999e-01
8.928858368e-01,3.96448e-01,9.73574e-01,9.09685e-01,4.47436e-01,9.99998e-01
8.973502660e-01,3.83057e-01,9.93563e-01,8.47873e-01,4.54601e-01,9.99997e-01
9.018370173e-01,4.24552e-01,9.99292e-01,9.20085e-01,4.61735e-01,9.99997e-01
9.063462024e-01,4.27233e-01,9.81229e-01,9.27669e-01,4.68837e-01,9.99996e-01
9.108779334e-01,4.06493e-01,9.58500e-01,8.90273e-01,4.75904e-01,9.99996e-01
9.154323231e-01,4.19322e-01,9.90254e-01,8.76483e-01,4.82936e-01,9.99996e-01
9.200094847e-01,3.88082e-01,8.69659e-01,9.02332e-01,4.89929e-01,9.99995e-01
9.246095321e-01,3.45436e-01,8.12824e-01,8.49797e-01,4.96883e-01,9.99992e-01
9.292325798e-01,1.54808e-01,8.49289e-01,3.51976e-01,5.03795e-01,9.99983e-01
9.338787427e-01,1.19064e-01,8.55000e-01,2.65960e-01,5.10664e-01,9.99979e-01
9.385481364e-01,2.72605e-01,8.90816e-01,5.84822e-01,5.17488e-01,9.99978e-01
9.432408771e-01,2.34376e-01,9.31729e-01,4.76724e-01,5.24266e-01,9.99976e-01
9.479570815e-01,1.86568e-01,9.64267e-01,3.63187e-01,5.30995e-01,9.99979e-01
9.526968669e-01,2.45289e-01,9.82667e-01,4.63138e-01,5.37676e-01,9.99984e-01
9.574603512e-01,2.61781e-01,9.92559e-01,4.84131e-01,5.44307e-01,9.99988e-01
9.622476530e-01,3.03798e-01,9.97678e-01,5.52622e-01,5.50886e-01,9.99992e-01
9.670588912e-01,3.94828e-01,9.99305e-01,7.08773e-01,5.57412e-01,9.99994e-01
9.718941857e-01,4.53380e-01,9.99952e-01,8.04065e-01,5.63884e-01,9.99996e-01
9.767536566e-01,4.75767e-01,9.99999e-01,8.34239e-01,5.70301e-01,9.99997e-01
9.816374249e-01,5.04295e-01,9.99999e-01,8.74506e-01,5.76663e-01,9.99998e-01
9.865456120e-01,5.36079e-01,9.99999e-01,9.19569e-01,5.82968e-01,9.99998e-01
9.914783401e-01,5.59411e-01,9.99999e-01,9.49418e-01,5.89215e-01,9.99999e-01
9.964357318e-01,5.78813e-01,9.99999e-01,9.72135e-01,5.95403e-01,9.99999e-01
1.001417910e+00,5.91438e-01,9.99999e-01,9.83218e-01,6.01533e-01,9.99999e-01
1.006425000e+00,6.01751e-01,9.99999e-01,9.90369e-01,6.07602e-01,9.99999e-01
1.011457125e+00,6.09951e-01,9.99999e-01,9.94033e-01,6.13611e-01,9.99999e-01
1.016514411e+00,6.17043e-01,9.99999e-01,9.95937e-01,6.19559e-01,9.99999e-01
1.021596983e+00,6.23346e-01,9.99881e-01,9.96758e-01,6.25446e-01,9.99999e-01
1.026704968e+00,6.24991e-01,9.92557e-01,9.97469e-01,6.31271e-01,9.99999e-01
1.031838492e+00,5.88577e-01,9.25553e-01,9.98165e-01,6.37033e-01,9.99999e-01
1.036997685e+00,5.20170e-02,8.09988e-02,9.98906e-01,6.42732e-01,9.99999e-01
1.042182673e+00,1.46375e-02,2.26003e-02,9.98690e-01,6.48369e-01,9.99999e-01
1.047393587e+00,2.55916e-02,3.91924e-02,9.98267e-01,6.53942e-01,9.99999e-01
1.052630555e+00,5.51633e-05,8.37837e-05,9.97619e-01,6.59451e-01,9.99999e-01
1.057893707e+00,1.95753e-04,2.95098e-04,9.96019e-01,6.64897e-01,9.99999e-01
1.063183176e+00,1.55969e-03,2.33660e-03,9.93467e-01,6.70278e-01,9.99999e-01
1.068499092e+00,8.11865e-03,1.21162e-02,9.89106e-01,6.75596e-01,9.99999e-01
1.073841587e+00,4.08461e-02,6.06010e-02,9.87232e-01,6.80850e-01,9.99999e-01
1.079210795e+00,1.15025e-01,1.70014e-01,9.83737e-01,6.86039e-01,9.99999e-01
1.084606849e+00,2.51608e-01,3.72461e-01,9.75430e-01,6.91164e-01,9.99998e-01
1.090029883e+00,4.01703e-01,5.97040e-01,9.64602e-01,6.96226e-01,9.99998e-01
1.095480033e+00,4.94183e-01,7.75646e-01,9.06793e-01,7.01223e-01,9.99997e-01
1.100957433e+00,4.88842e-01,8.84452e-01,7.80794e-01,7.06156e-01,9.99995e-01
1.106462220e+00,3.64988e-01,9.50568e-01,5.38249e-01,7.11026e-01,9.99990e-01
1.111994531e+00,1.96617e-01,9.81372e-01,2.79235e-01,7.15832e-01,9.99981e-01
1.117554504e+00,9.45702e-02,9.95454e-01,1.31666e-01,7.20574e-01,9.99973e-01
1.123142276e+00,1.74707e-01,9.99703e-01,2.40916e-01,7.25254e-01,9.99968e-01
1.128757988e+00,2.80478e-01,9.99999e-01,3.84297e-01,7.29870e-01,9.99965e-01
1.134401778e+00,1.36809e-01,9.99999e-01,1.86288e-01,7.34424e-01,9.99961e-01
1.140073787e+00,4.11070e-01,9.99999e-01,5.56331e-01,7.38915e-01,9.99969e-01
1.145774156e+00,2.28469e-01,9.99999e-01,3.07361e-01,7.43345e-01,9.99973e-01
1.151503026e+00,2.02741e-01,9.99999e-01,2.71155e-01,7.47712e-01,9.99977e-01
1.157260541e+00,2.42752e-01,9.99999e-01,3.22806e-01,7.52019e-01,9.99982e-01
1.163046844e+00,3.27053e-01,9.99999e-01,4.32463e-01,7.56264e-01,9.99988e-01
1.168862078e+00,4.21282e-01,9.99999e-01,5.53994e-01,7.60449e-01,9.99994e-01
1.174706389e+00,5.30705e-01,9.99999e-01,6.94120e-01,7.64573e-01,9.99996e-01
1.180579921e+00,6.15139e-01,9.99999e-01,8.00299e-01,7.68638e-01,9.99997e-01
1.186482820e+00,6.80895e-01,9.99980e-01,8.81269e-01,7.72643e-01,9.99998e-01
1.192415234e+00,7.02804e-01,9.73889e-01,9.28731e-01,7.76590e-01,9.99998e-01
1.198377311e+00,3.99160e-01,5.38736e-01,9.39461e-01,7.80478e-01,9.99998e-01
1.204369197e+00,1.39418e-19,1.83927e-19,9.42754e-01,7.84308e-01,9.99998e-01
1.210391043e+00,1.15193e-76,1.50825e-76,9.45164e-01,7.88081e-01,9.99998e-01
1.216442998e+00,1.85960e-66,2.41943e-66,9.53292e-01,7.91797e-01,9.99999e-01
1.222525213e+00,1.81505e-65,2.32612e-65,9.63381e-01,7.95457e-01,9.99999e-01
1.228637839e+00,1.23782e-50,1.57659e-50,9.74403e-01,7.99061e-01,9.99999e-01
1.234781029e+00,7.38932e-32,9.28359e-32,9.80963e-01,8.02609e-01,9.99999e-01
1.240954934e+00,2.80962e-21,3.51222e-21,9.87905e-01,8.06102e-01,9.99999e-01
1.247159708e+00,9.30776e-11,1.15621e-10,9.90580e-01,8.09542e-01,9.99999e-01
1.253395507e+00,3.31444e-07,4.10179e-07,9.91616e-01,8.12927e-01,9.99999e-01
1.259662485e+00,1.80430e-04,2.22372e-04,9.92010e-01,8.16260e-01,9.99999e-01
1.265960797e+00,7.13345e-03,8.78189e-03,9.87301e-01,8.19540e-01,9.99999e-01
1.272290601e+00,9.69257e-02,1.19858e-01,9.80032e-01,8.22768e-01,9.99999e-01
1.278652054e+00,8.07808e-02,1.00622e-01,9.60740e-01,8.25944e-01,9.99998e-01
1.285045314e+00,4.01906e-04,4.99349e-04,9.29899e-01,8.29070e-01,9.99998e-01
1.291470541e+00,1.63544e-09,2.11641e-09,8.81104e-01,8.32145e-01,9.99997e-01
1.297927893e+00,5.08434e-04,6.58230e-04,8.35503e-01,8.35171e-01,9.99995e-01
1.304417533e+00,1.42679e-02,2.02687e-02,8.09972e-01,8.38148e-01,9.99991e-01
1.310939621e+00,2.42664e-03,3.30785e-03,7.66118e-01,8.41076e-01,9.99985e-01
1.317494319e+00,6.91801e-27,9.48713e-27,7.70320e-01,8.43956e-01,9.99976e-01
1.324081790e+00,5.97610e-13,8.40482e-13,6.80892e-01,8.46789e-01,9.99959e-01
1.330702199e+00,8.89658e-11,1.95641e-10,2.58641e-01,8.49575e-01,9.99932e-01
1.337355710e+00,7.84850e-11,1.31312e-09,1.97755e-02,8.52315e-01,9.99879e-01
1.344042489e+00,1.42886e-14,1.03780e-11,9.66497e-05,8.55010e-01,9.99742e-01
1.350762701e+00,1.06557e-17,1.08918e-10,1.67013e-08,8.57659e-01,9.99589e-01
1.357516515e+00,3.15370e-17,8.00329e-07,3.74978e-12,8.60264e-01,9.99491e-01
1.364304097e+00,1.71614e-11,6.20865e-05,8.50475e-08,8.62826e-01,9.99455e-01
1.371125618e+00,3.77493e-07,6.99372e-03,2.68558e-05,8.65344e-01,9.99450e-01
1.377981246e+00,1.97838e-06,1.47430e-02,8.29606e-05,8.67820e-01,9.99409e-01
1.384871152e+00,6.65067e-08,8.58217e-02,5.76031e-07,8.70253e-01,9.99426e-01
1.391795508e+00,1.42498e-08,1.03961e-01,9.28415e-08,8.72645e-01,9.99513e-01
1.398754485e+00,6.22803e-07,2.43561e-01,2.48858e-06,8.74997e-01,9.99581e-01
1.405748258e+00,8.65227e-07,3.56287e-01,2.29665e-06,8.77308e-01,9.99625e-01
1.412776999e+00,1.29347e-06,5.19928e-01,2.35301e-06,8.79579e-01,9.99698e-01
1.419840884e+00,2.71506e-06,4.61546e-01,4.87548e-06,8.81811e-01,9.99774e-01
1.426940089e+00,3.52596e-05,2.45577e-02,1.08214e-04,8.84004e-01,9.99860e-01
1.434074789e+00,0.00000e+00,0.00000e+00,7.36118e-04,8.86160e-01,9.99912e-01
1.441245163e+00,0.00000e+00,0.00000e+00,2.89366e-03,8.88278e-01,9.99932e-01
1.448451389e+00,0.00000e+00,0.00000e+00,1.73438e-02,8.90359e-01,9.99943e-01
1.455693646e+00,0.00000e+00,0.00000e+00,6.34823e-02,8.92404e-01,9.99953e-01
1.462972114e+00,6.48245e-305,3.44988e-304,8.61753e-02,8.94412e-01,9.99960e-01
1.470286975e+00,3.05316e-127,1.83470e-126,5.87788e-02,8.96386e-01,9.99964e-01
