#,Wave/freq,Total,CO2,H2O,Rayleigh,CIA
4.000000000e-01,2.74933e-06,9.99999e-01,9.99974e-01,2.74940e-06,9.99999e-01
4.020000000e-01,3.54147e-06,9.99999e-01,9.99983e-01,3.54153e-06,9.99999e-01
4.040100000e-01,4.53790e-06,9.99999e-01,9.99992e-01,4.53793e-06,9.99999e-01
4.060300500e-01,5.78625e-06,9.99999e-01,9.99997e-01,5.78626e-06,9.99999e-01
4.080602003e-01,7.34266e-06,9.99999e-01,9.99999e-01,7.34267e-06,9.99999e-01
4.101005013e-01,9.27397e-06,9.99999e-01,9.99999e-01,9.27397e-06,9.99999e-01
4.121510038e-01,1.16594e-05,9.99999e-01,9.99998e-01,1.16594e-05,9.99999e-01
4.142117588e-01,1.45921e-05,9.99999e-01,9.99992e-01,1.45922e-05,9.99999e-01
4.162828176e-01,1.81814e-05,9.99999e-01,9.99968e-01,1.81820e-05,9.99999e-01
4.183642317e-01,2.25562e-05,9.99999e-01,9.99981e-01,2.25567e-05,9.99999e-01
4.204560528e-01,2.78647e-05,9.99999e-01,9.99988e-01,2.78650e-05,9.99999e-01
4.225583331e-01,3.42790e-05,9.99999e-01,9.99995e-01,3.42792e-05,9.99999e-01
4.246711247e-01,4.19975e-05,9.99999e-01,9.99996e-01,4.19976e-05,9.99999e-01
4.267944804e-01,5.12477e-05,9.99999e-01,9.99994e-01,5.12480e-05,9.99999e-01
4.289284528e-01,6.22902e-05,9.99999e-01,9.99995e-01,6.22904e-05,9.99999e-01
4.310730950e-01,7.54208e-05,9.99999e-01,9.99997e-01,7.54209e-05,9.99999e-01
4.332284605e-01,9.09749e-05,9.99999e-01,9.99999e-01,9.09749e-05,9.99999e-01
4.353946028e-01,1.09331e-04,9.99999e-01,9.99999e-01,1.09331e-04,9.99999e-01
4.375715758e-01,1.30914e-04,9.99999e-01,9.99996e-01,1.30914e-04,9.99999e-01
4.397594337e-01,1.56198e-04,9.99999e-01,9.99972e-01,1.56202e-04,9.99999e-01
4.419582309e-01,1.85700e-04,9.99999e-01,9.99861e-01,1.85725e-04,9.99999e-01
4.441680220e-01,2.20051e-04,9.99999e-01,9.99891e-01,2.20075e-04,9.99999e-01
4.463888621e-01,2.59875e-04,9.99999e-01,9.99887e-01,2.59904e-04,9.99999e-01
4.486208064e-01,3.05914e-04,9.99999e-01,9.99929e-01,3.05935e-04,9.99999e-01
4.508639105e-01,3.58949e-04,9.99999e-01,9.99966e-01,3.58961e-04,9.99999e-01
4.531182300e-01,4.19844e-04,9.99999e-01,9.99986e-01,4.19849e-04,9.99999e-01
4.553838212e-01,4.89544e-04,9.99999e-01,9.99990e-01,4.89548e-04,9.99999e-01
4.576607403e-01,5.69087e-04,9.99999e-01,9.99995e-01,5.69089e-04,9.99999e-01
4.599490440e-01,6.59587e-04,9.99999e-01,9.99996e-01,6.59589e-04,9.99999e-01
4.622487892e-01,7.62255e-04,9.99999e-01,9.99999e-01,7.62256e-04,9.99999e-01
4.645600332e-01,8.78387e-04,9.99999e-01,9.99997e-01,8.78389e-04,9.99999e-01
4.668828333e-01,1.00935e-03,9.99999e-01,9.99966e-01,1.00938e-03,9.99999e-01
4.692172475e-01,1.15665e-03,9.99999e-01,9.99928e-01,1.15674e-03,9.99999e-01
4.715633337e-01,1.32197e-03,9.99999e-01,9.99953e-01,1.32203e-03,9.99999e-01
4.739211504e-01,1.50690e-03,9.99999e-01,9.99955e-01,1.50697e-03,9.99999e-01
4.762907561e-01,1.71330e-03,9.99999e-01,9.99976e-01,1.71334e-03,9.99999e-01
4.786722099e-01,1.94303e-03,9.99999e-01,9.99990e-01,1.94304e-03,9.99999e-01
4.810655710e-01,2.19807e-03,9.99999e-01,9.99996e-01,2.19807e-03,9.99999e-01
4.834708988e-01,2.48046e-03,9.99999e-01,9.99972e-01,2.48052e-03,9.99999e-01
4.858882533e-01,2.79245e-03,9.99999e-01,9.99949e-01,2.79259e-03,9.99999e-01
4.883176946e-01,3.13644e-03,9.99999e-01,9.99957e-01,3.13657e-03,9.99999e-01
4.907592831e-01,3.51471e-03,9.99999e-01,9.99961e-01,3.51485e-03,9.99999e-01
4.932130795e-01,3.92979e-03,9.99999e-01,9.99972e-01,3.92989e-03,9.99999e-01
4.956791449e-01,4.38421e-03,9.99999e-01,9.99985e-01,4.38427e-03,9.99999e-01
4.981575406e-01,4.88029e-03,9.99999e-01,9.99928e-01,4.88063e-03,9.99999e-01
5.006483283e-01,5.42069e-03,9.99999e-01,9.99816e-01,5.42169e-03,9.99999e-01
5.031515699e-01,6.00463e-03,9.99999e-01,9.99068e-01,6.01023e-03,9.99999e-01
5.056673278e-01,6.64584e-03,9.99999e-01,9.99507e-01,6.64911e-03,9.99999e-01
5.081956644e-01,7.33668e-03,9.99999e-01,9.99378e-01,7.34123e-03,9.99999e-01
5.107366428e-01,8.08618e-03,9.99999e-01,9.99580e-01,8.08957e-03,9.99999e-01
5.132903260e-01,8.89498e-03,9.99999e-01,9.99759e-01,8.89711e-03,9.99999e-01
5.158567776e-01,9.76590e-03,9.99999e-01,9.99898e-01,9.76689e-03,9.99999e-01
5.184360615e-01,1.07015e-02,9.99999e-01,9.99958e-01,1.07020e-02,9.99999e-01
5.210282418e-01,1.17052e-02,9.99999e-01,9.99984e-01,1.17054e-02,9.99999e-01
5.236333830e-01,1.27795e-02,9.99999e-01,9.99938e-01,1.27803e-02,9.99999e-01
5.262515499e-01,1.39292e-02,9.99999e-01,9.99961e-01,1.39297e-02,9.99999e-01
5.288828077e-01,1.51561e-02,9.99999e-01,9.99964e-01,1.51566e-02,9.99999e-01
5.315272217e-01,1.64637e-02,9.99999e-01,9.99968e-01,1.64642e-02,9.99999e-01
5.341848578e-01,1.78550e-02,9.99999e-01,9.99979e-01,1.78554e-02,9.99999e-01
5.368557821e-01,1.93317e-02,9.99999e-01,9.99929e-01,1.93330e-02,9.99999e-01
5.395400610e-01,2.08949e-02,9.99999e-01,9.99745e-01,2.09002e-02,9.99999e-01
5.422377613e-01,2.25521e-02,9.99999e-01,9.99669e-01,2.25596e-02,9.99999e-01
5.449489501e-01,2.43066e-02,9.99999e-01,9.99693e-01,2.43140e-02,9.99999e-01
5.476736949e-01,2.61591e-02,9.99999e-01,9.99727e-01,2.61662e-02,9.99999e-01
5.504120634e-01,2.81131e-02,9.99999e-01,9.99802e-01,2.81186e-02,9.99999e-01
5.531641237e-01,3.01708e-02,9.99999e-01,9.99900e-01,3.01738e-02,9.99999e-01
5.559299443e-01,3.23326e-02,9.99999e-01,9.99951e-01,3.23341e-02,9.99999e-01
5.587095940e-01,3.46008e-02,9.99999e-01,9.99969e-01,3.46018e-02,9.99999e-01
5.615031420e-01,3.69778e-02,9.99999e-01,9.99966e-01,3.69790e-02,9.99999e-01
5.643106577e-01,3.94662e-02,9.99999e-01,9.99961e-01,3.94677e-02,9.99999e-01
5.671322110e-01,4.20505e-02,9.99999e-01,9.99541e-01,4.20697e-02,9.99999e-01
5.699678720e-01,4.47647e-02,9.99999e-01,9.99507e-01,4.47868e-02,9.99999e-01
5.728177114e-01,4.75961e-02,9.99999e-01,9.99489e-01,4.76204e-02,9.99999e-01
5.756818000e-01,5.05483e-02,9.99999e-01,9.99531e-01,5.05719e-02,9.99999e-01
5.785602090e-01,5.36208e-02,9.99999e-01,9.99591e-01,5.36427e-02,9.99999e-01
5.814530100e-01,5.68104e-02,9.99999e-01,9.99589e-01,5.68337e-02,9.99999e-01
5.843602750e-01,6.01165e-02,9.99999e-01,9.99512e-01,6.01458e-02,9.99999e-01
5.872820764e-01,6.33129e-02,9.99999e-01,9.95801e-01,6.35798e-02,9.99999e-01
5.902184868e-01,6.67937e-02,9.99999e-01,9.94897e-01,6.71362e-02,9.99999e-01
5.931695792e-01,7.05602e-02,9.99999e-01,9.96397e-01,7.08153e-02,9.99999e-01
5.961354271e-01,7.43225e-02,9.99999e-01,9.96048e-01,7.46174e-02,9.99999e-01
5.991161043e-01,7.83159e-02,9.99999e-01,9.97115e-01,7.85424e-02,9.99999e-01
6.021116848e-01,8.24550e-02,9.99999e-01,9.98361e-01,8.25902e-02,9.99999e-01
6.051222432e-01,8.66886e-02,9.99999e-01,9.99170e-01,8.67605e-02,9.99999e-01
6.081478544e-01,9.10201e-02,9.99999e-01,9.99642e-01,9.10527e-02,9.99999e-01
6.111885937e-01,9.54517e-02,9.99999e-01,9.99848e-01,9.54661e-02,9.99999e-01
6.142445367e-01,9.99932e-02,9.99999e-01,9.99931e-01,9.99999e-02,9.99999e-01
6.173157594e-01,1.04649e-01,9.99999e-01,9.99962e-01,1.04653e-01,9.99999e-01
6.204023382e-01,1.09421e-01,9.99999e-01,9.99968e-01,1.09424e-01,9.99999e-01
6.235043498e-01,1.14297e-01,9.99999e-01,9.99861e-01,1.14313e-01,9.99999e-01
6.266218716e-01,1.19229e-01,9.99999e-01,9.99265e-01,1.19316e-01,9.99999e-01
6.297549810e-01,1.24400e-01,9.99999e-01,9.99730e-01,1.24433e-01,9.99999e-01
6.329037559e-01,1.29593e-01,9.99999e-01,9.99467e-01,1.29662e-01,9.99999e-01
6.360682746e-01,1.34940e-01,9.99999e-01,9.99546e-01,1.35001e-01,9.99999e-01
6.392486160e-01,1.40366e-01,9.99999e-01,9.99412e-01,1.40448e-01,9.99999e-01
6.424448591e-01,1.45886e-01,9.99999e-01,9.99216e-01,1.46001e-01,9.99999e-01
6.456570834e-01,1.51105e-01,9.99999e-01,9.96363e-01,1.51656e-01,9.99999e-01
6.488853688e-01,1.56992e-01,9.99999e-01,9.97326e-01,1.57413e-01,9.99999e-01
6.521297956e-01,1.62823e-01,9.99999e-01,9.97274e-01,1.63268e-01,9.99999e-01
6.553904446e-01,1.68763e-01,9.99999e-01,9.97303e-01,1.69219e-01,9.99999e-01
6.586673968e-01,1.74855e-01,9.99999e-01,9.97676e-01,1.75262e-01,9.99999e-01
6.619607338e-01,1.81152e-01,9.99999e-01,9.98656e-01,1.81396e-01,9.99999e-01
6.652705375e-01,1.87471e-01,9.99999e-01,9.99221e-01,1.87617e-01,9.99999e-01
6.685968902e-01,1.93851e-01,9.99999e-01,9.99638e-01,1.93922e-01,9.99999e-01
6.719398746e-01,2.00274e-01,9.99999e-01,9.99831e-01,2.00308e-01,9.99999e-01
6.752995740e-01,2.06753e-01,9.99999e-01,9.99908e-01,2.06771e-01,9.99999e-01
6.786760719e-01,2.13282e-01,9.99999e-01,9.99868e-01,2.13310e-01,9.99999e-01
6.820694522e-01,2.19871e-01,9.99999e-01,9.99775e-01,2.19920e-01,9.99999e-01
6.854797995e-01,2.26533e-01,9.99999e-01,9.99711e-01,2.26598e-01,9.99999e-01
6.889071985e-01,2.33179e-01,9.99999e-01,9.99304e-01,2.33342e-01,9.99999e-01
6.923517345e-01,2.37420e-01,9.99999e-01,9.88649e-01,2.40146e-01,9.99999e-01
6.958134932e-01,2.45537e-01,9.99999e-01,9.94041e-01,2.47009e-01,9.99999e-01
6.992925606e-01,2.52499e-01,9.99999e-01,9.94378e-01,2.53927e-01,9.99999e-01
7.027890234e-01,2.59081e-01,9.99999e-01,9.93042e-01,2.60896e-01,9.99999e-01
7.063029686e-01,2.66345e-01,9.99999e-01,9.94150e-01,2.67913e-01,9.99999e-01
7.098344834e-01,2.73430e-01,9.99999e-01,9.94386e-01,2.74974e-01,9.99999e-01
7.133836558e-01,2.79977e-01,9.99999e-01,9.92556e-01,2.82077e-01,9.99999e-01
7.169505741e-01,2.72297e-01,9.99999e-01,9.41496e-01,2.89217e-01,9.99998e-01
7.205353270e-01,2.87725e-01,9.99999e-01,9.70758e-01,2.96391e-01,9.99998e-01
7.241380036e-01,2.92423e-01,9.99999e-01,9.63194e-01,3.03597e-01,9.99998e-01
7.277586936e-01,3.00485e-01,9.99999e-01,9.66717e-01,3.10830e-01,9.99998e-01
7.313974871e-01,3.06816e-01,9.99999e-01,9.64563e-01,3.18088e-01,9.99999e-01
7.350544745e-01,3.19024e-01,9.99999e-01,9.80505e-01,3.25367e-01,9.99999e-01
7.387297469e-01,3.27879e-01,9.99999e-01,9.85616e-01,3.32664e-01,9.99999e-01
7.424233956e-01,3.37573e-01,9.99999e-01,9.92934e-01,3.39975e-01,9.99999e-01
7.461355126e-01,3.45810e-01,9.99999e-01,9.95715e-01,3.47298e-01,9.99999e-01
7.498661902e-01,3.53920e-01,9.99999e-01,9.98001e-01,3.54629e-01,9.99999e-01
7.536155211e-01,3.61611e-01,9.99999e-01,9.99020e-01,3.61965e-01,9.99999e-01
7.573835987e-01,3.69118e-01,9.99999e-01,9.99495e-01,3.69304e-01,9.99999e-01
7.611705167e-01,3.76525e-01,9.99999e-01,9.99686e-01,3.76643e-01,9.99999e-01
7.649763693e-01,3.83903e-01,9.99999e-01,9.99803e-01,3.83978e-01,9.99999e-01
7.688012511e-01,3.91253e-01,9.99999e-01,9.99862e-01,3.91307e-01,9.99999e-01
7.726452574e-01,3.98582e-01,9.99999e-01,9.99887e-01,3.98626e-01,9.99999e-01
7.765084837e-01,4.05870e-01,9.99999e-01,9.99840e-01,4.05934e-01,9.99999e-01
7.803910261e-01,3.96406e-01,9.59926e-01,9.99311e-01,4.13228e-01,9.99999e-01
7.842929812e-01,3.48431e-01,8.30478e-01,9.97599e-01,4.20505e-01,9.99999e-01
7.882144461e-01,3.49209e-01,8.20233e-01,9.95044e-01,4.27762e-01,9.99999e-01
7.921555184e-01,3.86206e-01,8.90190e-01,9.97275e-01,4.34998e-01,9.99999e-01
7.961162960e-01,4.07021e-01,9.24807e-01,9.95207e-01,4.42209e-01,9.99999e-01
8.000968774e-01,4.28380e-01,9.58534e-01,9.94454e-01,4.49394e-01,9.99999e-01
8.040973618e-01,4.44160e-01,9.78269e-01,9.94455e-01,4.56551e-01,9.99999e-01
8.081178486e-01,4.53333e-01,9.89980e-01,9.87566e-01,4.63676e-01,9.99999e-01
8.121584379e-01,4.45440e-01,9.96886e-01,9.49115e-01,4.70769e-01,9.99998e-01
8.162192301e-01,4.48699e-01,9.99311e-01,9.39671e-01,4.77827e-01,9.99998e-01
8.203003262e-01,4.70151e-01,9.99988e-01,9.69695e-01,4.84848e-01,9.99998e-01
8.244018279e-01,4.70947e-01,9.99999e-01,9.57538e-01,4.91831e-01,9.99998e-01
8.285238370e-01,4.80637e-01,9.99999e-01,9.63638e-01,4.98774e-01,9.99998e-01
8.326664562e-01,4.87063e-01,9.99999e-01,9.63196e-01,5.05674e-01,9.99998e-01
8.368297885e-01,4.98980e-01,9.99999e-01,9.73560e-01,5.12531e-01,9.99999e-01
8.410139374e-01,5.11141e-01,9.99999e-01,9.84208e-01,5.19342e-01,9.99999e-01
8.452190071e-01,5.22017e-01,9.99999e-01,9.92224e-01,5.26107e-01,9.99999e-01
8.494451021e-01,5.30421e-01,9.99999e-01,9.95489e-01,5.32824e-01,9.99999e-01
8.536923276e-01,5.38049e-01,9.99999e-01,9.97327e-01,5.39491e-01,9.99999e-01
8.579607893e-01,5.45210e-01,9.99999e-01,9.98355e-01,5.46108e-01,9.99999e-01
8.622505932e-01,5.52094e-01,9.99999e-01,9.98953e-01,5.52672e-01,9.99999e-01
8.665618462e-01,5.12323e-01,9.16763e-01,9.99353e-01,5.59184e-01,9.99999e-01
8.708946554e-01,3.53791e-01,6.25911e-01,9.99260e-01,5.65641e-01,9.99999e-01
8.752491287e-01,3.90896e-01,6.83985e-01,9.99010e-01,5.72043e-01,9.99999e-01
8.796253743e-01,4.68409e-01,8.10920e-01,9.98631e-01,5.78389e-01,9.99999e-01
8.840235012e-01,5.23547e-01,8.96821e-01,9.98436e-01,5.84678e-01,9.99999e-01
8.884436187e-01,5.62873e-01,9.57913e-01,9.94339e-01,5.90909e-01,9.99999e-01
8.928858368e-01,5.52650e-01,9.82747e-01,9.41661e-01,5.97082e-01,9.99998e-01
8.973502660e-01,5.39919e-01,9.95774e-01,8.98802e-01,6.03195e-01,9.99998e-01
9.018370173e-01,5.76618e-01,9.99533e-01,9.46867e-01,6.09248e-01,9.99998e-01
9.063462024e-01,5.79894e-01,9.88234e-01,9.53339e-01,6.15241e-01,9.99997e-01
9.108779334e-01,5.61112e-01,9.72936e-01,9.28057e-01,6.21172e-01,9.99997e-01
9.154323231e-01,5.72394e-01,9.93561e-01,9.18609e-01,6.27042e-01,9.99997e-01
9.200094847e-01,5.42519e-01,9.12419e-01,9.35632e-01,6.32850e-01,9.99996e-01
9.246095321e-01,5.05206e-01,8.74453e-01,9.02134e-01,6.38595e-01,9.99994e-01
9.292325798e-01,2.95994e-01,9.00735e-01,5.03559e-01,6.44277e-01,9.99989e-01
9.338787427e-01,2.45093e-01,9.03444e-01,4.12248e-01,6.49896e-01,9.99986e-01
9.385481364e-01,4.27287e-01,9.28041e-01,6.98837e-01,6.55452e-01,9.99986e-01
9.432408771e-01,3.86758e-01,9.55244e-01,6.10758e-01,6.60944e-01,9.99984e-01
9.479570815e-01,3.31372e-01,9.76802e-01,5.08337e-01,6.66372e-01,9.99986e-01
9.526968669e-01,3.98211e-01,9.88742e-01,5.98860e-01,6.71736e-01,9.99989e-01
9.574603512e-01,4.18760e-01,9.95170e-01,6.21285e-01,6.77036e-01,9.99992e-01
9.622476530e-01,4.61806e-01,9.98490e-01,6.77817e-01,6.82272e-01,9.99994e-01
9.670588912e-01,5.49072e-01,9.99547e-01,7.99057e-01,6.87444e-01,9.99996e-01
9.718941857e-01,6.01682e-01,9.99967e-01,8.68816e-01,6.92552e-01,9.99997e-01
9.767536566e-01,6.20734e-01,9.99999e-01,8.89820e-01,6.97596e-01,9.99998e-01
9.816374249e-01,6.44278e-01,9.99999e-01,9.17022e-01,7.02576e-01,9.99998e-01
9.865456120e-01,6.70209e-01,9.99999e-01,9.47303e-01,7.07491e-01,9.99999e-01
9.914783401e-01,6.88905e-01,9.99999e-01,9.67096e-01,7.12344e-01,9.99999e-01
9.964357318e-01,7.04185e-01,9.99999e-01,9.81945e-01,7.17132e-01,9.99999e-01
1.001417910e+00,7.14019e-01,9.99999e-01,9.89140e-01,7.21858e-01,9.99999e-01
1.006425000e+00,7.22016e-01,9.99999e-01,9.93800e-01,7.26520e-01,9.99999e-01
1.011457125e+00,7.28301e-01,9.99999e-01,9.96145e-01,7.31119e-01,9.99999e-01
1.016514411e+00,7.33731e-01,9.99999e-01,9.97382e-01,7.35656e-01,9.99999e-01
1.021596983e+00,7.38543e-01,9.99939e-01,9.97914e-01,7.40130e-01,9.99999e-01
1.026704968e+00,7.39914e-01,9.95398e-01,9.98373e-01,7.44543e-01,9.99999e-01
1.031838492e+00,7.10677e-01,9.50054e-01,9.98816e-01,7.48894e-01,9.99999e-01
1.036997685e+00,9.51583e-02,1.26411e-01,9.99297e-01,7.53183e-01,9.99999e-01
1.042182673e+00,5.77081e-02,7.62464e-02,9.99163e-01,7.57412e-01,9.99999e-01
1.047393587e+00,7.73091e-02,1.01610e-01,9.98890e-01,7.61580e-01,9.99999e-01
1.052630555e+00,1.06975e-03,1.39863e-03,9.98478e-01,7.65688e-01,9.99999e-01
1.057893707e+00,3.00308e-03,3.90779e-03,9.97461e-01,7.69737e-01,9.99999e-01
1.063183176e+00,1.26775e-02,1.64322e-02,9.95824e-01,7.73726e-01,9.99999e-01
1.068499092e+00,4.27899e-02,5.53390e-02,9.93012e-01,7.77657e-01,9.99999e-01
1.073841587e+00,1.23970e-01,1.59709e-01,9.91832e-01,7.81529e-01,9.99999e-01
1.079210795e+00,2.43428e-01,3.12891e-01,9.89531e-01,7.85344e-01,9.99999e-01
1.084606849e+00,4.08846e-01,5.25963e-01,9.84203e-01,7.89101e-01,9.99999e-01
1.090029883e+00,5.55356e-01,7.16130e-01,9.77426e-01,7.92802e-01,9.99998e-01
1.095480033e+00,6.35272e-01,8.48170e-01,9.39639e-01,7.96446e-01,9.99998e-01
1.100957433e+00,6.31605e-01,9.23695e-01,8.53828e-01,8.00034e-01,9.99996e-01
1.106462220e+00,5.22544e-01,9.67691e-01,6.71042e-01,8.03568e-01,9.99993e-01
1.111994531e+00,3.46148e-01,9.87900e-01,4.33715e-01,8.07046e-01,9.99987e-01
1.117554504e+00,2.11066e-01,9.97028e-01,2.61034e-01,8.10471e-01,9.99982e-01
1.123142276e+00,3.07958e-01,9.99804e-01,3.78438e-01,8.13842e-01,9.99979e-01
1.128757988e+00,4.34360e-01,9.99999e-01,5.31559e-01,8.17160e-01,9.99977e-01
1.134401778e+00,2.30510e-01,9.99999e-01,2.80970e-01,8.20426e-01,9.99975e-01
1.140073787e+00,5.62686e-01,9.99999e-01,6.83183e-01,8.23640e-01,9.99980e-01
1.145774156e+00,3.76840e-01,9.99999e-01,4.55787e-01,8.26802e-01,9.99983e-01
1.151503026e+00,3.47353e-01,9.99999e-01,4.18547e-01,8.29914e-01,9.99985e-01
1.157260541e+00,3.97880e-01,9.99999e-01,4.77665e-01,8.32976e-01,9.99988e-01
1.163046844e+00,4.83307e-01,9.99999e-01,5.78130e-01,8.35988e-01,9.99992e-01
1.168862078e+00,5.72114e-01,9.99999e-01,6.81941e-01,8.38952e-01,9.99996e-01
1.174706389e+00,6.64692e-01,9.99999e-01,7.89546e-01,8.41867e-01,9.99997e-01
1.180579921e+00,7.31414e-01,9.99999e-01,8.65852e-01,8.44734e-01,9.99998e-01
1.186482820e+00,7.81264e-01,9.99991e-01,9.21794e-01,8.47554e-01,9.99998e-01
1.192415234e+00,7.97876e-01,9.83753e-01,9.53596e-01,8.50327e-01,9.99998e-01
1.198377311e+00,4.58729e-01,5.56030e-01,9.60772e-01,8.53055e-01,9.99998e-01
1.204369197e+00,2.31905e-13,2.76992e-13,9.62843e-01,8.55737e-01,9.99998e-01
1.210391043e+00,5.90907e-50,7.02382e-50,9.64428e-01,8.58375e-01,9.99999e-01
1.216442998e+00,2.06711e-43,2.44710e-43,9.69637e-01,8.60968e-01,9.99999e-01
1.222525213e+00,8.90909e-43,1.04453e-42,9.76288e-01,8.63517e-01,9.99999e-01
1.228637839e+00,3.90942e-33,4.56616e-33,9.83480e-01,8.66024e-01,9.99999e-01
1.234781029e+00,3.13258e-21,3.62624e-21,9.87703e-01,8.68488e-01,9.99999e-01
1.240954934e+00,2.65333e-14,3.06190e-14,9.92210e-01,8.70910e-01,9.99999e-01
1.247159708e+00,1.08023e-07,1.24144e-07,9.93928e-01,8.73291e-01,9.99999e-01
1.253395507e+00,4.82143e-05,5.52815e-05,9.94610e-01,8.75631e-01,9.99999e-01
1.259662485e+00,3.14293e-03,3.59433e-03,9.94884e-01,8.77931e-01,9.99999e-01
1.265960797e+00,3.40384e-02,3.89146e-02,9.91829e-01,8.80192e-01,9.99999e-01
1.272290601e+00,2.16685e-01,2.48410e-01,9.87207e-01,8.82413e-01,9.99999e-01
1.278652054e+00,1.84019e-01,2.12168e-01,9.74715e-01,8.84596e-01,9.99999e-01
1.285045314e+00,3.37163e-03,3.87952e-03,9.60575e-01,8.86742e-01,9.99998e-01
1.291470541e+00,1.56631e-06,1.85252e-06,9.22351e-01,8.88849e-01,9.99997e-01
1.297927893e+00,1.65852e-03,1.95797e-03,8.99903e-01,8.90920e-01,9.99996e-01
1.304417533e+00,6.25448e-02,7.88765e-02,8.73041e-01,8.92955e-01,9.99994e-01
1.310939621e+00,1.54284e-02,1.88954e-02,8.56189e-01,8.94955e-01,9.99990e-01
1.317494319e+00,1.23775e-17,1.51864e-17,8.44775e-01,8.96919e-01,9.99984e-01
1.324081790e+00,4.51133e-12,5.64470e-12,7.77557e-01,8.98848e-01,9.99975e-01
1.330702199e+00,2.59242e-07,4.53381e-07,3.91500e-01,9.00743e-01,9.99959e-01
1.337355710e+00,1.42099e-07,8.04164e-07,8.41936e-02,9.02605e-01,9.99922e-01
1.344042489e+00,2.19021e-08,2.63818e-07,3.94798e-03,9.04434e-01,9.99834e-01
1.350762701e+00,5.63072e-12,2.64313e-07,4.81096e-06,9.06230e-01,9.99736e-01
1.357516515e+00,9.59907e-12,6.87938e-05,2.42849e-08,9.07994e-01,9.99673e-01
1.364304097e+00,5.76676e-08,1.73252e-03,1.46956e-05,9.09727e-01,9.99650e-01
1.371125618e+00,3.68967e-05,3.69247e-02,5.94736e-04,9.11429e-01,9.99647e-01
1.377981246e+00,1.40344e-04,6.49370e-02,1.67038e-03,9.13100e-01,9.99621e-01
1.384871152e+00,7.72754e-06,2.03690e-01,3.09692e-05,9.14741e-01,9.99625e-01
1.391795508e+00,5.44463e-06,2.29684e-01,1.90449e-05,9.16352e-01,9.99678e-01
1.398754485e+00,5.46103e-05,4.02487e-01,1.34478e-04,9.17935e-01,9.99731e-01
1.405748258e+00,6.72969e-05,5.12069e-01,1.26618e-04,9.19489e-01,9.99759e-01
1.412776999e+00,8.14742e-05,6.54821e-01,1.22105e-04,9.21014e-01,9.99806e-01
1.419840884e+00,1.58038e-04,5.88186e-01,2.30777e-04,9.22513e-01,9.99855e-01
1.426940089e+00,4.71209e-04,4.66112e-02,1.45369e-03,9.23983e-01,9.99910e-01
1.434074789e+00,0.00000e+00,0.00000e+00,6.68520e-03,9.25427e-01,9.99943e-01
1.441245163e+00,0.00000e+00,0.00000e+00,1.92781e-02,9.26845e-01,9.99956e-01
1.448451389e+00,0.00000e+00,0.00000e+00,6.21721e-02,9.28237e-01,9.99963e-01
1.455693646e+00,0.00000e+00,0.00000e+00,1.53640e-01,9.29603e-01,9.99969e-01
1.462972114e+00,2.77103e-196,8.09313e-196,1.96865e-01,9.30945e-01,9.99974e-01
1.470286975e+00,2.21889e-82,7.00528e-82,1.50939e-01,9.32261e-01,9.99976e-01
