#,Wave/freq,Total,CO2,H2O,Rayleigh,CIA
4.000000000e-01,3.87118e-05,9.99999e-01,9.99979e-01,3.87126e-05,9.99999e-01
4.020000000e-01,4.73243e-05,9.99999e-01,9.99987e-01,4.73249e-05,9.99999e-01
4.040100000e-01,5.76123e-05,9.99999e-01,9.99994e-01,5.76126e-05,9.99999e-01
4.060300500e-01,6.98646e-05,9.99999e-01,9.99998e-01,6.98647e-05,9.99999e-01
4.080602003e-01,8.44003e-05,9.99999e-01,9.99999e-01,8.44003e-05,9.99999e-01
4.101005013e-01,1.01580e-04,9.99999e-01,9.99999e-01,1.01580e-04,9.99999e-01
4.121510038e-01,1.21810e-04,9.99999e-01,9.99998e-01,1.21810e-04,9.99999e-01
4.142117588e-01,1.45546e-04,9.99999e-01,9.99993e-01,1.45546e-04,9.99999e-01
4.162828176e-01,1.73293e-04,9.99999e-01,9.99974e-01,1.73297e-04,9.99999e-01
4.183642317e-01,2.05626e-04,9.99999e-01,9.99984e-01,2.05629e-04,9.99999e-01
4.204560528e-01,2.43168e-04,9.99999e-01,9.99990e-01,2.43170e-04,9.99999e-01
4.225583331e-01,2.86613e-04,9.99999e-01,9.99996e-01,2.86614e-04,9.99999e-01
4.246711247e-01,3.36724e-04,9.99999e-01,9.99996e-01,3.36725e-04,9.99999e-01
4.267944804e-01,3.94338e-04,9.99999e-01,9.99995e-01,3.94339e-04,9.99999e-01
4.289284528e-01,4.60372e-04,9.99999e-01,9.99996e-01,4.60373e-04,9.99999e-01
4.310730950e-01,5.35823e-04,9.99999e-01,9.99998e-01,5.35824e-04,9.99999e-01
4.332284605e-01,6.21773e-04,9.99999e-01,9.99999e-01,6.21773e-04,9.99999e-01
4.353946028e-01,7.19392e-04,9.99999e-01,9.99999e-01,7.19392e-04,9.99999e-01
4.375715758e-01,8.29941e-04,9.99999e-01,9.99996e-01,8.29943e-04,9.99999e-01
4.397594337e-01,9.54762e-04,9.99999e-01,9.99977e-01,9.54783e-04,9.99999e-01
4.419582309e-01,1.09524e-03,9.99999e-01,9.99887e-01,1.09537e-03,9.99999e-01
4.441680220e-01,1.25314e-03,9.99999e-01,9.99914e-01,1.25324e-03,9.99999e-01
4.463888621e-01,1.42994e-03,9.99999e-01,9.99910e-01,1.43007e-03,9.99999e-01
4.486208064e-01,1.62750e-03,9.99999e-01,9.99944e-01,1.62759e-03,9.99999e-01
4.508639105e-01,1.84762e-03,9.99999e-01,9.99973e-01,1.84767e-03,9.99999e-01
4.531182300e-01,2.09223e-03,9.99999e-01,9.99989e-01,2.09226e-03,9.99999e-01
4.553838212e-01,2.36339e-03,9.99999e-01,9.99992e-01,2.36341e-03,9.99999e-01
4.576607403e-01,2.66328e-03,9.99999e-01,9.99996e-01,2.66329e-03,9.99999e-01
4.599490440e-01,2.99414e-03,9.99999e-01,9.99997e-01,2.99414e-03,9.99999e-01
4.622487892e-01,3.35832e-03,9.99999e-01,9.99999e-01,3.35832e-03,9.99999e-01
4.645600332e-01,3.75826e-03,9.99999e-01,9.99997e-01,3.75827e-03,9.99999e-01
4.668828333e-01,4.19639e-03,9.99999e-01,9.99973e-01,4.19650e-03,9.99999e-01
4.692172475e-01,4.67538e-03,9.99999e-01,9.99943e-01,4.67564e-03,9.99999e-01
4.715633337e-01,5.19819e-03,9.99999e-01,9.99962e-01,5.19838e-03,9.99999e-01
4.739211504e-01,5.76727e-03,9.99999e-01,9.99964e-01,5.76747e-03,9.99999e-01
4.762907561e-01,6.38563e-03,9.99999e-01,9.99981e-01,6.38574e-03,9.99999e-01
4.786722099e-01,7.05603e-03,9.99999e-01,9.99992e-01,7.05608e-03,9.99999e-01
4.810655710e-01,7.78142e-03,9.99999e-01,9.99997e-01,7.78144e-03,9.99999e-01
4.834708988e-01,8.56460e-03,9.99999e-01,9.99977e-01,8.56479e-03,9.99999e-01
4.858882533e-01,9.40879e-03,9.99999e-01,9.99960e-01,9.40916e-03,9.99999e-01
4.883176946e-01,1.03172e-02,9.99999e-01,9.99966e-01,1.03176e-02,9.99999e-01
4.907592831e-01,1.12928e-02,9.99999e-01,9.99969e-01,1.12931e-02,9.99999e-01
4.932130795e-01,1.23386e-02,9.99999e-01,9.99978e-01,1.23389e-02,9.99999e-01
4.956791449e-01,1.34578e-02,9.99999e-01,9.99988e-01,1.34579e-02,9.99999e-01
4.981575406e-01,1.46525e-02,9.99999e-01,9.99942e-01,1.46533e-02,9.99999e-01
5.006483283e-01,1.59257e-02,9.99999e-01,9.99851e-01,1.59281e-02,9.99999e-01
5.031515699e-01,1.72724e-02,9.99999e-01,9.99257e-01,1.72852e-02,9.99999e-01
5.056673278e-01,1.87204e-02,9.99999e-01,9.99610e-01,1.87277e-02,9.99999e-01
5.081956644e-01,2.02486e-02,9.99999e-01,9.99508e-01,2.02585e-02,9.99999e-01
5.107366428e-01,2.18732e-02,9.99999e-01,9.99668e-01,2.18805e-02,9.99999e-01
5.132903260e-01,2.35919e-02,9.99999e-01,9.99810e-01,2.35963e-02,9.99999e-01
5.158567776e-01,2.54068e-02,9.99999e-01,9.99919e-01,2.54088e-02,9.99999e-01
5.184360615e-01,2.73197e-02,9.99999e-01,9.99967e-01,2.73206e-02,9.99999e-01
5.210282418e-01,2.93338e-02,9.99999e-01,9.99987e-01,2.93342e-02,9.99999e-01
5.236333830e-01,3.14504e-02,9.99999e-01,9.99951e-01,3.14519e-02,9.99999e-01
5.262515499e-01,3.36751e-02,9.99999e-01,9.99969e-01,3.36761e-02,9.99999e-01
5.288828077e-01,3.60080e-02,9.99999e-01,9.99971e-01,3.60090e-02,9.99999e-01
5.315272217e-01,3.84516e-02,9.99999e-01,9.99975e-01,3.84526e-02,9.99999e-01
5.341848578e-01,4.10081e-02,9.99999e-01,9.99983e-01,4.10088e-02,9.99999e-01
5.368557821e-01,4.36768e-02,9.99999e-01,9.99942e-01,4.36793e-02,9.99999e-01
5.395400610e-01,4.64563e-02,9.99999e-01,9.99793e-01,4.64658e-02,9.99999e-01
5.422377613e-01,4.93569e-02,9.99999e-01,9.99738e-01,4.93698e-02,9.99999e-01
5.449489501e-01,5.23796e-02,9.99999e-01,9.99754e-01,5.23924e-02,9.99999e-01
5.476736949e-01,5.55230e-02,9.99999e-01,9.99785e-01,5.55349e-02,9.99999e-01
5.504120634e-01,5.87890e-02,9.99999e-01,9.99843e-01,5.87982e-02,9.99999e-01
5.531641237e-01,6.21782e-02,9.99999e-01,9.99921e-01,6.21831e-02,9.99999e-01
5.559299443e-01,6.56876e-02,9.99999e-01,9.99961e-01,6.56901e-02,9.99999e-01
5.587095940e-01,6.93182e-02,9.99999e-01,9.99975e-01,6.93198e-02,9.99999e-01
5.615031420e-01,7.30704e-02,9.99999e-01,9.99972e-01,7.30724e-02,9.99999e-01
5.643106577e-01,7.69456e-02,9.99999e-01,9.99968e-01,7.69479e-02,9.99999e-01
5.671322110e-01,8.09160e-02,9.99999e-01,9.99624e-01,8.09464e-02,9.99999e-01
5.699678720e-01,8.50347e-02,9.99999e-01,9.99615e-01,8.50674e-02,9.99999e-01
5.728177114e-01,8.92743e-02,9.99999e-01,9.99593e-01,8.93106e-02,9.99999e-01
5.756818000e-01,9.36405e-02,9.99999e-01,9.99627e-01,9.36753e-02,9.99999e-01
5.785602090e-01,9.81291e-02,9.99999e-01,9.99676e-01,9.81608e-02,9.99999e-01
5.814530100e-01,1.02733e-01,9.99999e-01,9.99674e-01,1.02766e-01,9.99999e-01
5.843602750e-01,1.07448e-01,9.99999e-01,9.99607e-01,1.07490e-01,9.99999e-01
5.872820764e-01,1.11952e-01,9.99999e-01,9.96626e-01,1.12331e-01,9.99999e-01
5.902184868e-01,1.16815e-01,9.99999e-01,9.95962e-01,1.17289e-01,9.99999e-01
5.931695792e-01,1.22010e-01,9.99999e-01,9.97135e-01,1.22360e-01,9.99999e-01
5.961354271e-01,1.27145e-01,9.99999e-01,9.96869e-01,1.27545e-01,9.99999e-01
5.991161043e-01,1.32537e-01,9.99999e-01,9.97719e-01,1.32840e-01,9.99999e-01
6.021116848e-01,1.38065e-01,9.99999e-01,9.98707e-01,1.38243e-01,9.99999e-01
6.051222432e-01,1.43659e-01,9.99999e-01,9.99346e-01,1.43753e-01,9.99999e-01
6.081478544e-01,1.49326e-01,9.99999e-01,9.99717e-01,1.49368e-01,9.99999e-01
6.111885937e-01,1.55066e-01,9.99999e-01,9.99880e-01,1.55084e-01,9.99999e-01
6.142445367e-01,1.60891e-01,9.99999e-01,9.99946e-01,1.60900e-01,9.99999e-01
6.173157594e-01,1.66808e-01,9.99999e-01,9.99970e-01,1.66812e-01,9.99999e-01
6.204023382e-01,1.72815e-01,9.99999e-01,9.99974e-01,1.72819e-01,9.99999e-01
6.235043498e-01,1.78897e-01,9.99999e-01,9.99886e-01,1.78917e-01,9.99999e-01
6.266218716e-01,1.84995e-01,9.99999e-01,9.99416e-01,1.85103e-01,9.99999e-01
6.297549810e-01,1.91333e-01,9.99999e-01,9.99785e-01,1.91374e-01,9.99999e-01
6.329037559e-01,1.97645e-01,9.99999e-01,9.99578e-01,1.97728e-01,9.99999e-01
6.360682746e-01,2.04087e-01,9.99999e-01,9.99638e-01,2.04161e-01,9.99999e-01
6.392486160e-01,2.10571e-01,9.99999e-01,9.99533e-01,2.10670e-01,9.99999e-01
6.424448591e-01,2.17114e-01,9.99999e-01,9.99368e-01,2.17251e-01,9.99999e-01
6.456570834e-01,2.23247e-01,9.99999e-01,9.97072e-01,2.23903e-01,9.99999e-01
6.488853688e-01,2.30133e-01,9.99999e-01,9.97887e-01,2.30620e-01,9.99999e-01
6.521297956e-01,2.36889e-01,9.99999e-01,9.97846e-01,2.37400e-01,9.99999e-01
6.553904446e-01,2.43714e-01,9.99999e-01,9.97843e-01,2.44240e-01,9.99999e-01
6.586673968e-01,2.50675e-01,9.99999e-01,9.98163e-01,2.51136e-01,9.99999e-01
6.619607338e-01,2.57821e-01,9.99999e-01,9.98976e-01,2.58085e-01,9.99999e-01
6.652705375e-01,2.64920e-01,9.99999e-01,9.99385e-01,2.65083e-01,9.99999e-01
6.685968902e-01,2.72056e-01,9.99999e-01,9.99739e-01,2.72127e-01,9.99999e-01
6.719398746e-01,2.79176e-01,9.99999e-01,9.99867e-01,2.79213e-01,9.99999e-01
6.752995740e-01,2.86319e-01,9.99999e-01,9.99929e-01,2.86339e-01,9.99999e-01
6.786760719e-01,2.93469e-01,9.99999e-01,9.99894e-01,2.93500e-01,9.99999e-01
6.820694522e-01,3.00640e-01,9.99999e-01,9.99819e-01,3.00694e-01,9.99999e-01
6.854797995e-01,3.07845e-01,9.99999e-01,9.99769e-01,3.07916e-01,9.99999e-01
6.889071985e-01,3.14930e-01,9.99999e-01,9.99254e-01,3.15164e-01,9.99999e-01
6.923517345e-01,3.19482e-01,9.99999e-01,9.90841e-01,3.22435e-01,9.99999e-01
6.958134932e-01,3.28200e-01,9.99999e-01,9.95376e-01,3.29725e-01,9.99999e-01
6.992925606e-01,3.35510e-01,9.99999e-01,9.95487e-01,3.37031e-01,9.99999e-01
7.027890234e-01,3.42452e-01,9.99999e-01,9.94489e-01,3.44349e-01,9.99999e-01
7.063029686e-01,3.50046e-01,9.99999e-01,9.95360e-01,3.51677e-01,9.99999e-01
7.098344834e-01,3.57414e-01,9.99999e-01,9.95548e-01,3.59012e-01,9.99999e-01
7.133836558e-01,3.64142e-01,9.99999e-01,9.93970e-01,3.66351e-01,9.99999e-01
7.169505741e-01,3.56049e-01,9.99999e-01,9.52794e-01,3.73690e-01,9.99998e-01
7.205353270e-01,3.72336e-01,9.99999e-01,9.77192e-01,3.81026e-01,9.99998e-01
7.241380036e-01,3.76905e-01,9.99999e-01,9.70509e-01,3.88358e-01,9.99998e-01
7.277586936e-01,3.85151e-01,9.99999e-01,9.73386e-01,3.95682e-01,9.99998e-01
7.313974871e-01,3.91699e-01,9.99999e-01,9.71970e-01,4.02995e-01,9.99999e-01
7.350544745e-01,4.03961e-01,9.99999e-01,9.84564e-01,4.10294e-01,9.99999e-01
7.387297469e-01,4.12832e-01,9.99999e-01,9.88633e-01,4.17578e-01,9.99999e-01
7.424233956e-01,4.22483e-01,9.99999e-01,9.94441e-01,4.24844e-01,9.99999e-01
7.461355126e-01,4.30629e-01,9.99999e-01,9.96621e-01,4.32088e-01,9.99999e-01
7.498661902e-01,4.38621e-01,9.99999e-01,9.98432e-01,4.39310e-01,9.99999e-01
7.536155211e-01,4.46161e-01,9.99999e-01,9.99227e-01,4.46506e-01,9.99999e-01
7.573835987e-01,4.53494e-01,9.99999e-01,9.99602e-01,4.53674e-01,9.99999e-01
7.611705167e-01,4.60699e-01,9.99999e-01,9.99752e-01,4.60812e-01,9.99999e-01
7.649763693e-01,4.67846e-01,9.99999e-01,9.99844e-01,4.67919e-01,9.99999e-01
7.688012511e-01,4.74940e-01,9.99999e-01,9.99891e-01,4.74991e-01,9.99999e-01
7.726452574e-01,4.81984e-01,9.99999e-01,9.99910e-01,4.82027e-01,9.99999e-01
7.765084837e-01,4.88963e-01,9.99999e-01,9.99871e-01,4.89026e-01,9.99999e-01
7.803910261e-01,4.78395e-01,9.65051e-01,9.99446e-01,4.95984e-01,9.99999e-01
7.842929812e-01,4.33268e-01,8.63125e-01,9.98067e-01,5.02902e-01,9.99999e-01
7.882144461e-01,4.33147e-01,8.52904e-01,9.96065e-01,5.09776e-01,9.99999e-01
7.921555184e-01,4.69840e-01,9.11382e-01,9.97855e-01,5.16606e-01,9.99999e-01
7.961162960e-01,4.90313e-01,9.40388e-01,9.96154e-01,5.23390e-01,9.99999e-01
8.000968774e-01,5.10457e-01,9.67145e-01,9.95594e-01,5.30126e-01,9.99999e-01
8.040973618e-01,5.25327e-01,9.82934e-01,9.95584e-01,5.36814e-01,9.99999e-01
8.081178486e-01,5.33761e-01,9.92090e-01,9.89985e-01,5.43451e-01,9.99999e-01
8.121584379e-01,5.26198e-01,9.97585e-01,9.58953e-01,5.50036e-01,9.99999e-01
8.162192301e-01,5.29614e-01,9.99465e-01,9.52068e-01,5.56569e-01,9.99998e-01
8.203003262e-01,5.49099e-01,9.99992e-01,9.75231e-01,5.63049e-01,9.99998e-01
8.244018279e-01,5.50483e-01,9.99999e-01,9.66653e-01,5.69473e-01,9.99998e-01
8.285238370e-01,5.59083e-01,9.99999e-01,9.70895e-01,5.75842e-01,9.99998e-01
8.326664562e-01,5.65118e-01,9.99999e-01,9.70735e-01,5.82154e-01,9.99999e-01
8.368297885e-01,5.76096e-01,9.99999e-01,9.79074e-01,5.88409e-01,9.99999e-01
8.410139374e-01,5.87189e-01,9.99999e-01,9.87527e-01,5.94605e-01,9.99999e-01
8.452190071e-01,5.97064e-01,9.99999e-01,9.93877e-01,6.00742e-01,9.99999e-01
8.494451021e-01,6.04652e-01,9.99999e-01,9.96427e-01,6.06819e-01,9.99999e-01
8.536923276e-01,6.11547e-01,9.99999e-01,9.97895e-01,6.12836e-01,9.99999e-01
8.579607893e-01,6.17987e-01,9.99999e-01,9.98698e-01,6.18792e-01,9.99999e-01
8.622505932e-01,6.24172e-01,9.99999e-01,9.99175e-01,6.24687e-01,9.99999e-01
8.665618462e-01,5.81597e-01,9.22861e-01,9.99487e-01,6.30520e-01,9.99999e-01
8.708946554e-01,4.36231e-01,6.85975e-01,9.99411e-01,6.36290e-01,9.99999e-01
8.752491287e-01,4.74370e-01,7.39461e-01,9.99213e-01,6.41998e-01,9.99999e-01
8.796253743e-01,5.48292e-01,8.47496e-01,9.98906e-01,6.47642e-01,9.99999e-01
8.840235012e-01,5.98788e-01,9.17793e-01,9.98752e-01,6.53223e-01,9.99999e-01
8.884436187e-01,6.34012e-01,9.66923e-01,9.95340e-01,6.58741e-01,9.99999e-01
8.928858368e-01,6.24283e-01,9.86446e-01,9.52711e-01,6.64195e-01,9.99998e-01
8.973502660e-01,6.13230e-01,9.96715e-01,9.18794e-01,6.69585e-01,9.99998e-01
9.018370173e-01,6.46422e-01,9.99639e-01,9.58124e-01,6.74911e-01,9.99998e-01
9.063462024e-01,6.48377e-01,9.90330e-01,9.62278e-01,6.80173e-01,9.99998e-01
9.108779334e-01,6.32093e-01,9.78620e-01,9.42170e-01,6.85370e-01,9.99997e-01
9.154323231e-01,6.42296e-01,9.95016e-01,9.34747e-01,6.90504e-01,9.99997e-01
9.200094847e-01,6.13493e-01,9.27193e-01,9.48681e-01,6.95573e-01,9.99997e-01
9.246095321e-01,5.79989e-01,8.99466e-01,9.18635e-01,7.00579e-01,9.99995e-01
9.292325798e-01,3.74923e-01,9.19219e-01,5.72964e-01,7.05521e-01,9.99991e-01
9.338787427e-01,3.25202e-01,9.22832e-01,4.91963e-01,7.10398e-01,9.99989e-01
9.385481364e-01,5.08435e-01,9.42659e-01,7.51631e-01,7.15213e-01,9.99989e-01
9.432408771e-01,4.65532e-01,9.64612e-01,6.69015e-01,7.19963e-01,9.99987e-01
9.479570815e-01,4.09436e-01,9.81642e-01,5.74991e-01,7.24651e-01,9.99989e-01
9.526968669e-01,4.79268e-01,9.91132e-01,6.62559e-01,7.29276e-01,9.99991e-01
9.574603512e-01,4.99961e-01,9.96203e-01,6.83726e-01,7.33838e-01,9.99993e-01
9.622476530e-01,5.41810e-01,9.98816e-01,7.34646e-01,7.38337e-01,9.99995e-01
9.670588912e-01,6.21347e-01,9.99645e-01,8.36804e-01,7.42774e-01,9.99997e-01
9.718941857e-01,6.68215e-01,9.99975e-01,8.94372e-01,7.47150e-01,9.99998e-01
9.767536566e-01,6.84933e-01,9.99999e-01,9.11464e-01,7.51464e-01,9.99998e-01
9.816374249e-01,7.05715e-01,9.99999e-01,9.33834e-01,7.55717e-01,9.99998e-01
9.865456120e-01,7.28109e-01,9.99999e-01,9.58152e-01,7.59910e-01,9.99999e-01
9.914783401e-01,7.44109e-01,9.99999e-01,9.73910e-01,7.64042e-01,9.99999e-01
9.964357318e-01,7.57141e-01,9.99999e-01,9.85712e-01,7.68115e-01,9.99999e-01
1.001417910e+00,7.65504e-01,9.99999e-01,9.91420e-01,7.72128e-01,9.99999e-01
1.006425000e+00,7.72269e-01,9.99999e-01,9.95086e-01,7.76082e-01,9.99999e-01
1.011457125e+00,7.77606e-01,9.99999e-01,9.96958e-01,7.79978e-01,9.99999e-01
1.016514411e+00,7.82194e-01,9.99999e-01,9.97930e-01,7.83815e-01,9.99999e-01
1.021596983e+00,7.86249e-01,9.99939e-01,9.98349e-01,7.87596e-01,9.99999e-01
1.026704968e+00,7.87298e-01,9.96200e-01,9.98711e-01,7.91319e-01,9.99999e-01
1.031838492e+00,7.56161e-01,9.52021e-01,9.99065e-01,7.94986e-01,9.99999e-01
1.036997685e+00,1.21919e-01,1.52734e-01,9.99443e-01,7.98597e-01,9.99999e-01
1.042182673e+00,1.00666e-01,1.25570e-01,9.99333e-01,8.02152e-01,9.99999e-01
1.047393587e+00,1.15537e-01,1.43520e-01,9.99118e-01,8.05653e-01,9.99999e-01
1.052630555e+00,3.44487e-03,4.26146e-03,9.98787e-01,8.09099e-01,9.99999e-01
1.057893707e+00,8.91227e-03,1.09842e-02,9.97972e-01,8.12492e-01,9.99999e-01
1.063183176e+00,2.91526e-02,3.58193e-02,9.96670e-01,8.15831e-01,9.99999e-01
1.068499092e+00,8.00976e-02,9.82452e-02,9.94440e-01,8.19118e-01,9.99999e-01
1.073841587e+00,1.89781e-01,2.32075e-01,9.93478e-01,8.22352e-01,9.99999e-01
1.079210795e+00,3.24795e-01,3.96447e-01,9.91686e-01,8.25536e-01,9.99999e-01
1.084606849e+00,4.92565e-01,6.01647e-01,9.87409e-01,8.28668e-01,9.99999e-01
1.090029883e+00,6.27342e-01,7.67842e-01,9.81802e-01,8.31750e-01,9.99998e-01
1.095480033e+00,6.97791e-01,8.78197e-01,9.51333e-01,8.34782e-01,9.99998e-01
1.100957433e+00,6.93690e-01,9.39301e-01,8.80968e-01,8.37765e-01,9.99997e-01
1.106462220e+00,5.93969e-01,9.74495e-01,7.24339e-01,8.40699e-01,9.99994e-01
1.111994531e+00,4.27058e-01,9.90469e-01,5.10769e-01,8.43586e-01,9.99990e-01
1.117554504e+00,2.86169e-01,9.97681e-01,3.38738e-01,8.46425e-01,9.99986e-01
1.123142276e+00,3.86897e-01,9.99848e-01,4.55633e-01,8.49217e-01,9.99983e-01
1.128757988e+00,5.11655e-01,9.99999e-01,6.00570e-01,8.51963e-01,9.99982e-01
1.134401778e+00,2.94815e-01,9.99999e-01,3.44955e-01,8.54663e-01,9.99980e-01
1.140073787e+00,6.31278e-01,9.99999e-01,7.36351e-01,8.57318e-01,9.99984e-01
1.145774156e+00,4.56948e-01,9.99999e-01,5.31385e-01,8.59929e-01,9.99986e-01
1.151503026e+00,4.26518e-01,9.99999e-01,4.94521e-01,8.62496e-01,9.99988e-01
1.157260541e+00,4.79201e-01,9.99999e-01,5.53981e-01,8.65020e-01,9.99990e-01
1.163046844e+00,5.61105e-01,9.99999e-01,6.46809e-01,8.67501e-01,9.99994e-01
1.168862078e+00,6.42448e-01,9.99999e-01,7.38498e-01,8.69940e-01,9.99996e-01
1.174706389e+00,7.23434e-01,9.99999e-01,8.29305e-01,8.72338e-01,9.99998e-01
1.180579921e+00,7.80505e-01,9.99999e-01,8.92318e-01,8.74694e-01,9.99998e-01
1.186482820e+00,8.22267e-01,9.99990e-01,9.37587e-01,8.77010e-01,9.99998e-01
1.192415234e+00,8.35409e-01,9.86404e-01,9.63049e-01,8.79287e-01,9.99998e-01
1.198377311e+00,4.81219e-01,5.60585e-01,9.68696e-01,8.81524e-01,9.99998e-01
1.204369197e+00,4.54476e-11,5.23278e-11,9.70387e-01,8.83722e-01,9.99999e-01
1.210391043e+00,4.09987e-40,4.70244e-40,9.71672e-01,8.85883e-01,9.99999e-01
1.216442998e+00,6.40667e-35,7.32459e-35,9.75918e-01,8.88006e-01,9.99999e-01
1.222525213e+00,2.04413e-34,2.31915e-34,9.81182e-01,8.90091e-01,9.99999e-01
1.228637839e+00,1.17009e-26,1.32361e-26,9.86886e-01,8.92141e-01,9.99999e-01
1.234781029e+00,2.58041e-17,2.89812e-17,9.90262e-01,8.94154e-01,9.99999e-01
1.240954934e+00,1.12536e-11,1.26086e-11,9.93824e-01,8.96132e-01,9.99999e-01
1.247159708e+00,1.54656e-06,1.72711e-06,9.95194e-01,8.98076e-01,9.99999e-01
1.253395507e+00,3.31693e-04,3.69743e-04,9.95724e-01,8.99985e-01,9.99999e-01
1.259662485e+00,9.67623e-03,1.07645e-02,9.95926e-01,9.01860e-01,9.99999e-01
1.265960797e+00,6.59903e-02,7.34035e-02,9.93515e-01,9.03702e-01,9.99999e-01
1.272290601e+00,2.96399e-01,3.30423e-01,9.89785e-01,9.05511e-01,9.99999e-01
1.278652054e+00,2.47731e-01,2.77503e-01,9.79797e-01,9.07288e-01,9.99999e-01
1.285045314e+00,5.01263e-03,5.60301e-03,9.63596e-01,9.09033e-01,9.99998e-01
1.291470541e+00,2.08383e-05,2.38625e-05,9.37422e-01,9.10747e-01,9.99998e-01
1.297927893e+00,9.03901e-03,1.03957e-02,9.12186e-01,9.12431e-01,9.99997e-01
1.304417533e+00,1.09884e-01,1.32460e-01,8.97579e-01,9.14084e-01,9.99995e-01
1.310939621e+00,1.82328e-02,2.14114e-02,8.72272e-01,9.15707e-01,9.99992e-01
1.317494319e+00,2.28275e-14,2.69416e-14,8.74638e-01,9.17301e-01,9.99987e-01
1.324081790e+00,1.08279e-07,1.28820e-07,8.20454e-01,9.18867e-01,9.99978e-01
1.330702199e+00,4.99668e-06,8.15962e-06,4.50236e-01,9.20404e-01,9.99965e-01
1.337355710e+00,3.39278e-06,1.58967e-05,1.11246e-01,9.21913e-01,9.99938e-01
1.344042489e+00,2.02792e-08,7.21395e-07,4.50535e-03,9.23395e-01,9.99868e-01
1.350762701e+00,7.55367e-10,5.23385e-06,3.99655e-05,9.24849e-01,9.99790e-01
1.357516515e+00,1.13636e-09,4.22839e-04,6.62403e-07,9.26278e-01,9.99740e-01
1.364304097e+00,1.28883e-06,6.26926e-03,1.09162e-04,9.27680e-01,9.99722e-01
1.371125618e+00,2.34008e-04,7.14709e-02,2.18923e-03,9.29056e-01,9.99720e-01
1.377981246e+00,7.04672e-04,1.14014e-01,5.13431e-03,9.30408e-01,9.99699e-01
1.384871152e+00,4.88445e-05,2.82942e-01,1.47864e-04,9.31734e-01,9.99707e-01
1.391795508e+00,5.25979e-05,3.11728e-01,1.44275e-04,9.33037e-01,9.99752e-01
1.398754485e+00,3.25907e-04,4.86719e-01,6.70047e-04,9.34315e-01,9.99787e-01
1.405748258e+00,3.44891e-04,5.89132e-01,5.70918e-04,9.35569e-01,9.99808e-01
1.412776999e+00,4.38259e-04,7.16036e-01,6.09097e-04,9.36801e-01,9.99846e-01
1.419840884e+00,7.50914e-04,6.37595e-01,1.01661e-03,9.38010e-01,9.99885e-01
1.426940089e+00,1.36440e-03,5.84594e-02,4.58769e-03,9.39196e-01,9.99928e-01
1.434074789e+00,0.00000e+00,0.00000e+00,1.63346e-02,9.40361e-01,9.99955e-01
1.441245163e+00,0.00000e+00,0.00000e+00,4.04036e-02,9.41504e-01,9.99965e-01
1.448451389e+00,0.00000e+00,0.00000e+00,1.03484e-01,9.42625e-01,9.99971e-01
1.455693646e+00,4.39718e-322,1.02766e-321,2.21900e-01,9.43726e-01,9.99975e-01
1.462972114e+00,2.94151e-156,6.88678e-156,2.70285e-01,9.44806e-01,9.99979e-01
1.470286975e+00,7.51166e-66,1.87078e-65,2.18182e-01,9.45866e-01,9.99981e-01
