#,Wave/freq,Total,CO2,H2O,Rayleigh,CIA
4.000000000e-01,8.91556e-11,9.99999e-01,9.99954e-01,8.91596e-11,9.99999e-01
4.020000000e-01,1.40885e-10,9.99999e-01,9.99971e-01,1.40889e-10,9.99999e-01
4.040100000e-01,2.20524e-10,9.99999e-01,9.99987e-01,2.20527e-10,9.99999e-01
4.060300500e-01,3.42138e-10,9.99999e-01,9.99996e-01,3.42139e-10,9.99999e-01
4.080602003e-01,5.26229e-10,9.99999e-01,9.99998e-01,5.26230e-10,9.99999e-01
4.101005013e-01,8.02518e-10,9.99999e-01,9.99999e-01,8.02519e-10,9.99999e-01
4.121510038e-01,1.21371e-09,9.99999e-01,9.99997e-01,1.21371e-09,9.99999e-01
4.142117588e-01,1.82062e-09,9.99999e-01,9.99986e-01,1.82065e-09,9.99999e-01
4.162828176e-01,2.70915e-09,9.99999e-01,9.99943e-01,2.70930e-09,9.99999e-01
4.183642317e-01,4.00005e-09,9.99999e-01,9.99966e-01,4.00018e-09,9.99999e-01
4.204560528e-01,5.86072e-09,9.99999e-01,9.99979e-01,5.86084e-09,9.99999e-01
4.225583331e-01,8.52235e-09,9.99999e-01,9.99991e-01,8.52242e-09,9.99999e-01
4.246711247e-01,1.23013e-08,9.99999e-01,9.99993e-01,1.23014e-08,9.99999e-01
4.267944804e-01,1.76276e-08,9.99999e-01,9.99990e-01,1.76278e-08,9.99999e-01
4.289284528e-01,2.50814e-08,9.99999e-01,9.99992e-01,2.50815e-08,9.99999e-01
4.310730950e-01,3.54392e-08,9.99999e-01,9.99996e-01,3.54393e-08,9.99999e-01
4.332284605e-01,4.97338e-08,9.99999e-01,9.99998e-01,4.97338e-08,9.99999e-01
4.353946028e-01,6.93283e-08,9.99999e-01,9.99999e-01,6.93284e-08,9.99999e-01
4.375715758e-01,9.60104e-08,9.99999e-01,9.99993e-01,9.60109e-08,9.99999e-01
4.397594337e-01,1.32104e-07,9.99999e-01,9.99949e-01,1.32110e-07,9.99999e-01
4.419582309e-01,1.80595e-07,9.99999e-01,9.99746e-01,1.80641e-07,9.99999e-01
4.441680220e-01,2.45429e-07,9.99999e-01,9.99805e-01,2.45477e-07,9.99999e-01
4.463888621e-01,3.31502e-07,9.99999e-01,9.99796e-01,3.31569e-07,9.99999e-01
4.486208064e-01,4.45148e-07,9.99999e-01,9.99873e-01,4.45204e-07,9.99999e-01
4.508639105e-01,5.94278e-07,9.99999e-01,9.99940e-01,5.94313e-07,9.99999e-01
4.531182300e-01,7.88831e-07,9.99999e-01,9.99976e-01,7.88849e-07,9.99999e-01
4.553838212e-01,1.04121e-06,9.99999e-01,9.99983e-01,1.04122e-06,9.99999e-01
4.576607403e-01,1.36681e-06,9.99999e-01,9.99992e-01,1.36682e-06,9.99999e-01
4.599490440e-01,1.78461e-06,9.99999e-01,9.99994e-01,1.78462e-06,9.99999e-01
4.622487892e-01,2.31789e-06,9.99999e-01,9.99998e-01,2.31789e-06,9.99999e-01
4.645600332e-01,2.99498e-06,9.99999e-01,9.99995e-01,2.99499e-06,9.99999e-01
4.668828333e-01,3.85012e-06,9.99999e-01,9.99939e-01,3.85035e-06,9.99999e-01
4.692172475e-01,4.92487e-06,9.99999e-01,9.99872e-01,4.92550e-06,9.99999e-01
4.715633337e-01,6.26977e-06,9.99999e-01,9.99916e-01,6.27029e-06,9.99999e-01
4.739211504e-01,7.94364e-06,9.99999e-01,9.99920e-01,7.94427e-06,9.99999e-01
4.762907561e-01,1.00178e-05,9.99999e-01,9.99958e-01,1.00182e-05,9.99999e-01
4.786722099e-01,1.25756e-05,9.99999e-01,9.99982e-01,1.25758e-05,9.99999e-01
4.810655710e-01,1.57156e-05,9.99999e-01,9.99994e-01,1.57157e-05,9.99999e-01
4.834708988e-01,1.95522e-05,9.99999e-01,9.99949e-01,1.95532e-05,9.99999e-01
4.858882533e-01,2.42208e-05,9.99999e-01,9.99909e-01,2.42230e-05,9.99999e-01
4.883176946e-01,2.98791e-05,9.99999e-01,9.99923e-01,2.98814e-05,9.99999e-01
4.907592831e-01,3.67065e-05,9.99999e-01,9.99931e-01,3.67090e-05,9.99999e-01
4.932130795e-01,4.49116e-05,9.99999e-01,9.99951e-01,4.49138e-05,9.99999e-01
4.956791449e-01,5.47324e-05,9.99999e-01,9.99973e-01,5.47338e-05,9.99999e-01
4.981575406e-01,6.64324e-05,9.99999e-01,9.99870e-01,6.64410e-05,9.99999e-01
5.006483283e-01,8.03171e-05,9.99999e-01,9.99664e-01,8.03440e-05,9.99999e-01
5.031515699e-01,9.66290e-05,9.99999e-01,9.98313e-01,9.67922e-05,9.99999e-01
5.056673278e-01,1.16077e-04,9.99999e-01,9.99112e-01,1.16180e-04,9.99999e-01
5.081956644e-01,1.38793e-04,9.99999e-01,9.98880e-01,1.38948e-04,9.99999e-01
5.107366428e-01,1.65468e-04,9.99999e-01,9.99244e-01,1.65593e-04,9.99999e-01
5.132903260e-01,1.96579e-04,9.99999e-01,9.99568e-01,1.96664e-04,9.99999e-01
5.158567776e-01,2.32731e-04,9.99999e-01,9.99817e-01,2.32773e-04,9.99999e-01
5.184360615e-01,2.74577e-04,9.99999e-01,9.99926e-01,2.74597e-04,9.99999e-01
5.210282418e-01,3.22870e-04,9.99999e-01,9.99972e-01,3.22879e-04,9.99999e-01
5.236333830e-01,3.78397e-04,9.99999e-01,9.99889e-01,3.78438e-04,9.99999e-01
5.262515499e-01,4.42138e-04,9.99999e-01,9.99930e-01,4.42169e-04,9.99999e-01
5.288828077e-01,5.15013e-04,9.99999e-01,9.99936e-01,5.15046e-04,9.99999e-01
5.315272217e-01,5.98096e-04,9.99999e-01,9.99944e-01,5.98129e-04,9.99999e-01
5.341848578e-01,6.92541e-04,9.99999e-01,9.99963e-01,6.92566e-04,9.99999e-01
5.368557821e-01,7.99492e-04,9.99999e-01,9.99871e-01,7.99595e-04,9.99999e-01
5.395400610e-01,9.20119e-04,9.99999e-01,9.99533e-01,9.20547e-04,9.99999e-01
5.422377613e-01,1.05622e-03,9.99999e-01,9.99405e-01,1.05685e-03,9.99999e-01
5.449489501e-01,1.20936e-03,9.99999e-01,9.99443e-01,1.21003e-03,9.99999e-01
5.476736949e-01,1.38104e-03,9.99999e-01,9.99510e-01,1.38172e-03,9.99999e-01
5.504120634e-01,1.57307e-03,9.99999e-01,9.99644e-01,1.57363e-03,9.99999e-01
5.531641237e-01,1.78728e-03,9.99999e-01,9.99820e-01,1.78760e-03,9.99999e-01
5.559299443e-01,2.02539e-03,9.99999e-01,9.99913e-01,2.02556e-03,9.99999e-01
5.587095940e-01,2.28941e-03,9.99999e-01,9.99945e-01,2.28954e-03,9.99999e-01
5.615031420e-01,2.58150e-03,9.99999e-01,9.99939e-01,2.58166e-03,9.99999e-01
5.643106577e-01,2.90396e-03,9.99999e-01,9.99930e-01,2.90416e-03,9.99999e-01
5.671322110e-01,3.25660e-03,9.99999e-01,9.99154e-01,3.25936e-03,9.99999e-01
5.699678720e-01,3.64646e-03,9.99999e-01,9.99120e-01,3.64967e-03,9.99999e-01
5.728177114e-01,4.07384e-03,9.99999e-01,9.99075e-01,4.07761e-03,9.99999e-01
5.756818000e-01,4.54191e-03,9.99999e-01,9.99153e-01,4.54575e-03,9.99999e-01
5.785602090e-01,5.05305e-03,9.99999e-01,9.99263e-01,5.05678e-03,9.99999e-01
5.814530100e-01,5.60927e-03,9.99999e-01,9.99258e-01,5.61343e-03,9.99999e-01
5.843602750e-01,6.21299e-03,9.99999e-01,9.99111e-01,6.21851e-03,9.99999e-01
5.872820764e-01,6.82244e-03,9.99999e-01,9.92368e-01,6.87490e-03,9.99999e-01
5.902184868e-01,7.51591e-03,9.99999e-01,9.90821e-01,7.58553e-03,9.99999e-01
5.931695792e-01,8.29903e-03,9.99999e-01,9.93495e-01,8.35336e-03,9.99999e-01
5.961354271e-01,9.11607e-03,9.99999e-01,9.92882e-01,9.18142e-03,9.99999e-01
5.991161043e-01,1.00204e-02,9.99999e-01,9.94808e-01,1.00727e-02,9.99999e-01
6.021116848e-01,1.09979e-02,9.99999e-01,9.97054e-01,1.10304e-02,9.99999e-01
6.051222432e-01,1.20394e-02,9.99999e-01,9.98509e-01,1.20574e-02,9.99999e-01
6.081478544e-01,1.31484e-02,9.99999e-01,9.99355e-01,1.31569e-02,9.99999e-01
6.111885937e-01,1.43281e-02,9.99999e-01,9.99727e-01,1.43319e-02,9.99999e-01
6.142445367e-01,1.55837e-02,9.99999e-01,9.99878e-01,1.55856e-02,9.99999e-01
6.173157594e-01,1.69197e-02,9.99999e-01,9.99932e-01,1.69208e-02,9.99999e-01
6.204023382e-01,1.83396e-02,9.99999e-01,9.99942e-01,1.83406e-02,9.99999e-01
6.235043498e-01,1.98429e-02,9.99999e-01,9.99745e-01,1.98480e-02,9.99999e-01
6.266218716e-01,2.14172e-02,9.99999e-01,9.98672e-01,2.14457e-02,9.99999e-01
6.297549810e-01,2.31254e-02,9.99999e-01,9.99512e-01,2.31366e-02,9.99999e-01
6.329037559e-01,2.48996e-02,9.99999e-01,9.99039e-01,2.49235e-02,9.99999e-01
6.360682746e-01,2.67870e-02,9.99999e-01,9.99179e-01,2.68090e-02,9.99999e-01
6.392486160e-01,2.87650e-02,9.99999e-01,9.98938e-01,2.87956e-02,9.99999e-01
6.424448591e-01,3.08416e-02,9.99999e-01,9.98569e-01,3.08857e-02,9.99999e-01
6.456570834e-01,3.28627e-02,9.99999e-01,9.93377e-01,3.30818e-02,9.99999e-01
6.488853688e-01,3.52158e-02,9.99999e-01,9.95191e-01,3.53859e-02,9.99999e-01
6.521297956e-01,3.76150e-02,9.99999e-01,9.95099e-01,3.78003e-02,9.99999e-01
6.553904446e-01,4.01292e-02,9.99999e-01,9.95101e-01,4.03267e-02,9.99999e-01
6.586673968e-01,4.27874e-02,9.99999e-01,9.95818e-01,4.29671e-02,9.99999e-01
6.619607338e-01,4.56164e-02,9.99999e-01,9.97668e-01,4.57230e-02,9.99999e-01
6.652705375e-01,4.85280e-02,9.99999e-01,9.98600e-01,4.85960e-02,9.99999e-01
6.685968902e-01,5.15567e-02,9.99999e-01,9.99405e-01,5.15874e-02,9.99999e-01
6.719398746e-01,5.46818e-02,9.99999e-01,9.99698e-01,5.46983e-02,9.99999e-01
6.752995740e-01,5.79206e-02,9.99999e-01,9.99840e-01,5.79298e-02,9.99999e-01
6.786760719e-01,6.12681e-02,9.99999e-01,9.99761e-01,6.12827e-02,9.99999e-01
6.820694522e-01,6.47314e-02,9.99999e-01,9.99594e-01,6.47576e-02,9.99999e-01
6.854797995e-01,6.83193e-02,9.99999e-01,9.99476e-01,6.83551e-02,9.99999e-01
6.889071985e-01,7.19831e-02,9.99999e-01,9.98719e-01,7.20754e-02,9.99999e-01
6.923517345e-01,7.43581e-02,9.99999e-01,9.79443e-01,7.59186e-02,9.99999e-01
6.958134932e-01,7.90414e-02,9.99999e-01,9.89442e-01,7.98848e-02,9.99999e-01
6.992925606e-01,8.31167e-02,9.99999e-01,9.89794e-01,8.39737e-02,9.99999e-01
7.027890234e-01,8.70819e-02,9.99999e-01,9.87492e-01,8.81849e-02,9.99999e-01
7.063029686e-01,9.15431e-02,9.99999e-01,9.89464e-01,9.25178e-02,9.99999e-01
7.098344834e-01,9.59911e-02,9.99999e-01,9.89888e-01,9.69716e-02,9.99999e-01
7.133836558e-01,1.00167e-01,9.99999e-01,9.86423e-01,1.01546e-01,9.99998e-01
7.169505741e-01,9.52758e-02,9.99999e-01,8.96811e-01,1.06238e-01,9.99998e-01
7.205353270e-01,1.05359e-01,9.99999e-01,9.48759e-01,1.11049e-01,9.99998e-01
7.241380036e-01,1.08381e-01,9.99999e-01,9.34515e-01,1.15976e-01,9.99997e-01
7.277586936e-01,1.13850e-01,9.99999e-01,9.40770e-01,1.21018e-01,9.99998e-01
7.313974871e-01,1.18269e-01,9.99999e-01,9.37355e-01,1.26173e-01,9.99998e-01
7.350544745e-01,1.26866e-01,9.99999e-01,9.65210e-01,1.31439e-01,9.99999e-01
7.387297469e-01,1.33295e-01,9.99999e-01,9.74280e-01,1.36814e-01,9.99999e-01
7.424233956e-01,1.40497e-01,9.99999e-01,9.87353e-01,1.42297e-01,9.99999e-01
7.461355126e-01,1.46747e-01,9.99999e-01,9.92308e-01,1.47884e-01,9.99999e-01
7.498661902e-01,1.53024e-01,9.99999e-01,9.96420e-01,1.53574e-01,9.99999e-01
7.536155211e-01,1.59083e-01,9.99999e-01,9.98238e-01,1.59364e-01,9.99999e-01
7.573835987e-01,1.65101e-01,9.99999e-01,9.99093e-01,1.65251e-01,9.99999e-01
7.611705167e-01,1.71137e-01,9.99999e-01,9.99436e-01,1.71233e-01,9.99999e-01
7.649763693e-01,1.77245e-01,9.99999e-01,9.99646e-01,1.77307e-01,9.99999e-01
7.688012511e-01,1.83425e-01,9.99999e-01,9.99753e-01,1.83470e-01,9.99999e-01
7.726452574e-01,1.89681e-01,9.99999e-01,9.99796e-01,1.89720e-01,9.99999e-01
7.765084837e-01,1.95995e-01,9.99999e-01,9.99709e-01,1.96052e-01,9.99999e-01
7.803910261e-01,1.88301e-01,9.31137e-01,9.98744e-01,2.02464e-01,9.99999e-01
7.842929812e-01,1.50437e-01,7.22818e-01,9.95624e-01,2.08954e-01,9.99999e-01
7.882144461e-01,1.51147e-01,7.07150e-01,9.91064e-01,2.15517e-01,9.99999e-01
7.921555184e-01,1.79433e-01,8.11482e-01,9.95112e-01,2.22150e-01,9.99999e-01
7.961162960e-01,1.97264e-01,8.69402e-01,9.91297e-01,2.28850e-01,9.99999e-01
8.000968774e-01,2.16191e-01,9.26773e-01,9.89996e-01,2.35615e-01,9.99999e-01
8.040973618e-01,2.30771e-01,9.61460e-01,9.89983e-01,2.42439e-01,9.99999e-01
8.081178486e-01,2.39345e-01,9.82052e-01,9.77464e-01,2.49321e-01,9.99998e-01
8.121584379e-01,2.31854e-01,9.94468e-01,9.09699e-01,2.56256e-01,9.99998e-01
8.162192301e-01,2.35226e-01,9.98775e-01,8.94627e-01,2.63241e-01,9.99998e-01
8.203003262e-01,2.55622e-01,9.99982e-01,9.45802e-01,2.70273e-01,9.99997e-01
8.244018279e-01,2.57036e-01,9.99999e-01,9.26761e-01,2.77349e-01,9.99997e-01
8.285238370e-01,2.66051e-01,9.99999e-01,9.35271e-01,2.84465e-01,9.99998e-01
8.326664562e-01,2.72617e-01,9.99999e-01,9.34845e-01,2.91617e-01,9.99998e-01
8.368297885e-01,2.84753e-01,9.99999e-01,9.52983e-01,2.98802e-01,9.99998e-01
8.410139374e-01,2.97386e-01,9.99999e-01,9.71793e-01,3.06017e-01,9.99999e-01
8.452190071e-01,3.08899e-01,9.99999e-01,9.86079e-01,3.13259e-01,9.99999e-01
8.494451021e-01,3.17921e-01,9.99999e-01,9.91877e-01,3.20524e-01,9.99999e-01
8.536923276e-01,3.26237e-01,9.99999e-01,9.95202e-01,3.27810e-01,9.99999e-01
8.579607893e-01,3.34118e-01,9.99999e-01,9.97036e-01,3.35111e-01,9.99999e-01
8.622505932e-01,3.41783e-01,9.99999e-01,9.98119e-01,3.42427e-01,9.99999e-01
8.665618462e-01,3.08642e-01,8.83428e-01,9.98833e-01,3.49753e-01,9.99999e-01
8.708946554e-01,1.58602e-01,4.44712e-01,9.98661e-01,3.57086e-01,9.99999e-01
8.752491287e-01,1.87150e-01,5.14418e-01,9.98211e-01,3.64424e-01,9.99999e-01
8.796253743e-01,2.55933e-01,6.90039e-01,9.97517e-01,3.71763e-01,9.99999e-01
8.840235012e-01,3.11221e-01,8.23202e-01,9.97166e-01,3.79101e-01,9.99999e-01
8.884436187e-01,3.54252e-01,9.26175e-01,9.89571e-01,3.86434e-01,9.99999e-01
8.928858368e-01,3.42484e-01,9.69308e-01,8.96780e-01,3.93760e-01,9.99998e-01
8.973502660e-01,3.29013e-01,9.92493e-01,8.26257e-01,4.01076e-01,9.99997e-01
9.018370173e-01,3.70425e-01,9.99171e-01,9.07764e-01,4.08380e-01,9.99996e-01
9.063462024e-01,3.73622e-01,9.78578e-01,9.17186e-01,4.15668e-01,9.99996e-01
9.108779334e-01,3.52508e-01,9.51966e-01,8.74407e-01,4.22938e-01,9.99996e-01
9.154323231e-01,3.65330e-01,9.88606e-01,8.58572e-01,4.30189e-01,9.99995e-01
9.200094847e-01,3.35834e-01,8.54319e-01,8.87816e-01,4.37417e-01,9.99994e-01
9.246095321e-01,2.92889e-01,7.86385e-01,8.30830e-01,4.44619e-01,9.99991e-01
9.292325798e-01,1.18129e-01,8.28768e-01,3.04870e-01,4.51795e-01,9.99981e-01
9.338787427e-01,8.67562e-02,8.34064e-01,2.19617e-01,4.58941e-01,9.99976e-01
9.385481364e-01,2.23450e-01,8.74557e-01,5.40397e-01,4.66056e-01,9.99975e-01
9.432408771e-01,1.89620e-01,9.21140e-01,4.31485e-01,4.73138e-01,9.99972e-01
9.479570815e-01,1.46143e-01,9.58641e-01,3.16166e-01,4.80184e-01,9.99976e-01
9.526968669e-01,1.98347e-01,9.79887e-01,4.14205e-01,4.87192e-01,9.99982e-01
9.574603512e-01,2.13082e-01,9.91352e-01,4.34466e-01,4.94162e-01,9.99986e-01
9.622476530e-01,2.52165e-01,9.97297e-01,5.04434e-01,5.01090e-01,9.99990e-01
9.670588912e-01,3.41182e-01,9.99190e-01,6.72140e-01,5.07976e-01,9.99994e-01
9.718941857e-01,3.99983e-01,9.99943e-01,7.76980e-01,5.14818e-01,9.99996e-01
9.767536566e-01,4.22929e-01,9.99999e-01,8.10810e-01,5.21614e-01,9.99997e-01
9.816374249e-01,4.52261e-01,9.99999e-01,8.55968e-01,5.28363e-01,9.99997e-01
9.865456120e-01,4.85454e-01,9.99999e-01,9.07284e-01,5.35063e-01,9.99998e-01
9.914783401e-01,5.10046e-01,9.99999e-01,9.41541e-01,5.41713e-01,9.99999e-01
9.964357318e-01,5.30622e-01,9.99999e-01,9.67735e-01,5.48313e-01,9.99999e-01
1.001417910e+00,5.44061e-01,9.99999e-01,9.80538e-01,5.54860e-01,9.99999e-01
1.006425000e+00,5.55089e-01,9.99999e-01,9.88840e-01,5.61353e-01,9.99999e-01
1.011457125e+00,5.63860e-01,9.99999e-01,9.93074e-01,5.67792e-01,9.99999e-01
1.016514411e+00,5.71470e-01,9.99999e-01,9.95287e-01,5.74176e-01,9.99999e-01
1.021596983e+00,5.78248e-01,9.99871e-01,9.96241e-01,5.80503e-01,9.99999e-01
1.026704968e+00,5.80086e-01,9.91503e-01,9.97066e-01,5.86772e-01,9.99999e-01
1.031838492e+00,5.44775e-01,9.20565e-01,9.97870e-01,5.92984e-01,9.99999e-01
1.036997685e+00,4.25741e-02,7.11278e-02,9.98732e-01,5.99137e-01,9.99999e-01
1.042182673e+00,8.18921e-03,1.35473e-02,9.98484e-01,6.05230e-01,9.99999e-01
1.047393587e+00,1.62693e-02,2.66613e-02,9.97994e-01,6.11263e-01,9.99999e-01
1.052630555e+00,1.62452e-05,2.63669e-05,9.97245e-01,6.17235e-01,9.99999e-01
1.057893707e+00,5.94482e-05,9.56478e-05,9.95399e-01,6.23146e-01,9.99999e-01
1.063183176e+00,6.33798e-04,1.01235e-03,9.92446e-01,6.28994e-01,9.99999e-01
1.068499092e+00,3.96157e-03,6.29860e-03,9.87397e-01,6.34781e-01,9.99999e-01
1.073841587e+00,2.49832e-02,3.94516e-02,9.85250e-01,6.40505e-01,9.99999e-01
1.079210795e+00,8.27050e-02,1.30028e-01,9.81180e-01,6.46166e-01,9.99998e-01
1.084606849e+00,2.02386e-01,3.18750e-01,9.71618e-01,6.51764e-01,9.99998e-01
1.090029883e+00,3.47778e-01,5.50193e-01,9.59329e-01,6.57299e-01,9.99998e-01
1.095480033e+00,4.42027e-01,7.44703e-01,8.93219e-01,6.62769e-01,9.99996e-01
1.100957433e+00,4.37034e-01,8.67174e-01,7.51813e-01,6.68176e-01,9.99994e-01
1.106462220e+00,3.13519e-01,9.42783e-01,4.91627e-01,6.73519e-01,9.99988e-01
1.111994531e+00,1.54365e-01,9.78382e-01,2.31737e-01,6.78797e-01,9.99978e-01
1.117554504e+00,6.72742e-02,9.94701e-01,9.87067e-02,6.84012e-01,9.99969e-01
1.123142276e+00,1.36861e-01,9.99653e-01,1.98613e-01,6.89162e-01,9.99963e-01
1.128757988e+00,2.32401e-01,9.99999e-01,3.34764e-01,6.94249e-01,9.99960e-01
1.134401778e+00,1.09513e-01,9.99999e-01,1.56616e-01,6.99271e-01,9.99955e-01
1.140073787e+00,3.58974e-01,9.99999e-01,5.09757e-01,7.04230e-01,9.99964e-01
1.145774156e+00,1.84306e-01,9.99999e-01,2.59914e-01,7.09124e-01,9.99969e-01
1.151503026e+00,1.61149e-01,9.99999e-01,2.25719e-01,7.13955e-01,9.99973e-01
1.157260541e+00,1.95752e-01,9.99999e-01,2.72367e-01,7.18722e-01,9.99980e-01
1.163046844e+00,2.75177e-01,9.99999e-01,3.80384e-01,7.23427e-01,9.99987e-01
1.168862078e+00,3.67504e-01,9.99999e-01,5.04769e-01,7.28068e-01,9.99993e-01
1.174706389e+00,4.80081e-01,9.99999e-01,6.55272e-01,7.32646e-01,9.99996e-01
1.180579921e+00,5.69433e-01,9.99999e-01,7.72467e-01,7.37162e-01,9.99997e-01
1.186482820e+00,6.40508e-01,9.99980e-01,8.63680e-01,7.41616e-01,9.99997e-01
1.192415234e+00,6.65002e-01,9.70475e-01,9.17859e-01,7.46007e-01,9.99998e-01
1.198377311e+00,3.76782e-01,5.33324e-01,9.30236e-01,7.50338e-01,9.99998e-01
1.204369197e+00,2.46504e-22,3.39837e-22,9.34009e-01,7.54607e-01,9.99998e-01
1.210391043e+00,1.75656e-88,2.40054e-88,9.36749e-01,7.58815e-01,9.99998e-01
1.216442998e+00,1.18449e-76,1.60688e-76,9.46023e-01,7.62963e-01,9.99998e-01
1.222525213e+00,1.66026e-75,2.21330e-75,9.57658e-01,7.67051e-01,9.99999e-01
1.228637839e+00,2.36901e-58,3.13542e-58,9.70386e-01,7.71080e-01,9.99999e-01
1.234781029e+00,1.46853e-36,1.91312e-36,9.77948e-01,7.75050e-01,9.99999e-01
1.240954934e+00,2.27603e-24,2.94769e-24,9.85989e-01,7.78961e-01,9.99999e-01
1.247159708e+00,4.14281e-12,5.32662e-12,9.89080e-01,7.82814e-01,9.99999e-01
1.253395507e+00,3.66153e-08,4.68716e-08,9.90288e-01,7.86609e-01,9.99999e-01
1.259662485e+00,5.19935e-05,6.62363e-05,9.90756e-01,7.90347e-01,9.99999e-01
1.265960797e+00,3.60427e-03,4.58475e-03,9.85296e-01,7.94029e-01,9.99999e-01
1.272290601e+00,6.78159e-02,8.67011e-02,9.76939e-01,7.97654e-01,9.99999e-01
1.278652054e+00,5.77260e-02,7.43912e-02,9.54729e-01,8.01224e-01,9.99998e-01
1.285045314e+00,1.90802e-04,2.45321e-04,9.19443e-01,8.04739e-01,9.99997e-01
1.291470541e+00,8.22415e-11,1.10675e-10,8.63937e-01,8.08200e-01,9.99996e-01
1.297927893e+00,2.24524e-04,3.02154e-04,8.12517e-01,8.11606e-01,9.99994e-01
1.304417533e+00,7.46911e-03,1.11641e-02,7.83816e-01,8.14960e-01,9.99990e-01
1.310939621e+00,1.32813e-03,1.90002e-03,7.35078e-01,8.18260e-01,9.99983e-01
1.317494319e+00,6.81045e-31,9.80348e-31,7.39630e-01,8.21508e-01,9.99972e-01
1.324081790e+00,2.86607e-20,4.26655e-20,6.38693e-01,8.24705e-01,9.99956e-01
1.330702199e+00,2.78231e-12,6.52354e-12,2.24564e-01,8.27850e-01,9.99927e-01
1.337355710e+00,2.14937e-12,4.61062e-11,1.57479e-02,8.30945e-01,9.99860e-01
1.344042489e+00,2.41024e-13,2.01458e-11,4.43190e-04,8.33991e-01,9.99701e-01
1.350762701e+00,3.28025e-20,3.48672e-12,1.44250e-09,8.36986e-01,9.99524e-01
1.357516515e+00,1.24686e-19,1.14415e-07,8.47690e-14,8.39933e-01,9.99410e-01
1.364304097e+00,4.85352e-13,1.43724e-05,8.88080e-09,8.42832e-01,9.99368e-01
1.371125618e+00,5.22766e-08,3.34653e-03,7.20301e-06,8.45684e-01,9.99363e-01
1.377981246e+00,3.16907e-07,7.65715e-03,2.32186e-05,8.48488e-01,9.99316e-01
1.384871152e+00,8.34644e-09,5.85026e-02,1.01802e-07,8.51246e-01,9.99335e-01
1.391795508e+00,1.05961e-09,7.30012e-02,9.08844e-09,8.53959e-01,9.99436e-01
1.398754485e+00,8.67349e-08,1.94455e-01,4.27170e-07,8.56626e-01,9.99515e-01
1.405748258e+00,1.37085e-07,3.02504e-01,4.24158e-07,8.59248e-01,9.99565e-01
1.412776999e+00,2.21690e-07,4.68123e-01,4.39873e-07,8.61827e-01,9.99650e-01
1.419840884e+00,4.65771e-07,4.21533e-01,9.15995e-07,8.64362e-01,9.99739e-01
1.426940089e+00,1.16601e-05,1.98873e-02,3.69304e-05,8.66854e-01,9.99838e-01
1.434074789e+00,0.00000e+00,0.00000e+00,2.81829e-04,8.69304e-01,9.99899e-01
1.441245163e+00,0.00000e+00,0.00000e+00,1.29163e-03,8.71712e-01,9.99921e-01
1.448451389e+00,0.00000e+00,0.00000e+00,1.00696e-02,8.74080e-01,9.99934e-01
1.455693646e+00,0.00000e+00,0.00000e+00,4.33964e-02,8.76406e-01,9.99945e-01
1.462972114e+00,0.00000e+00,0.00000e+00,6.06704e-02,8.78693e-01,9.99953e-01
1.470286975e+00,4.32143e-147,3.45240e-146,3.92422e-02,8.80940e-01,9.99958e-01
