#,Wave/freq,Total,CO2,H2O,Rayleigh,CIA
4.000000000e-01,1.14281e-03,9.99999e-01,9.99986e-01,1.14283e-03,9.99999e-01
4.020000000e-01,1.30662e-03,9.99999e-01,9.99991e-01,1.30663e-03,9.99999e-01
4.040100000e-01,1.48976e-03,9.99999e-01,9.99996e-01,1.48976e-03,9.99999e-01
4.060300500e-01,1.69416e-03,9.99999e-01,9.99998e-01,1.69416e-03,9.99999e-01
4.080602003e-01,1.92172e-03,9.99999e-01,9.99999e-01,1.92172e-03,9.99999e-01
4.101005013e-01,2.17442e-03,9.99999e-01,9.99999e-01,2.17442e-03,9.99999e-01
4.121510038e-01,2.45435e-03,9.99999e-01,9.99999e-01,2.45435e-03,9.99999e-01
4.142117588e-01,2.76370e-03,9.99999e-01,9.99995e-01,2.76371e-03,9.99999e-01
4.162828176e-01,3.10472e-03,9.99999e-01,9.99983e-01,3.10477e-03,9.99999e-01
4.183642317e-01,3.47988e-03,9.99999e-01,9.99989e-01,3.47991e-03,9.99999e-01
4.204560528e-01,3.89158e-03,9.99999e-01,9.99993e-01,3.89160e-03,9.99999e-01
4.225583331e-01,4.34238e-03,9.99999e-01,9.99997e-01,4.34239e-03,9.99999e-01
4.246711247e-01,4.83492e-03,9.99999e-01,9.99997e-01,4.83493e-03,9.99999e-01
4.267944804e-01,5.37190e-03,9.99999e-01,9.99996e-01,5.37191e-03,9.99999e-01
4.289284528e-01,5.95612e-03,9.99999e-01,9.99997e-01,5.95613e-03,9.99999e-01
4.310730950e-01,6.59043e-03,9.99999e-01,9.99998e-01,6.59044e-03,9.99999e-01
4.332284605e-01,7.27773e-03,9.99999e-01,9.99999e-01,7.27773e-03,9.99999e-01
4.353946028e-01,8.02097e-03,9.99999e-01,9.99999e-01,8.02097e-03,9.99999e-01
4.375715758e-01,8.82314e-03,9.99999e-01,9.99997e-01,8.82315e-03,9.99999e-01
4.397594337e-01,9.68716e-03,9.99999e-01,9.99985e-01,9.68730e-03,9.99999e-01
4.419582309e-01,1.06157e-02,9.99999e-01,9.99926e-01,1.06165e-02,9.99999e-01
4.441680220e-01,1.16131e-02,9.99999e-01,9.99942e-01,1.16137e-02,9.99999e-01
4.463888621e-01,1.26814e-02,9.99999e-01,9.99940e-01,1.26822e-02,9.99999e-01
4.486208064e-01,1.38243e-02,9.99999e-01,9.99962e-01,1.38248e-02,9.99999e-01
4.508639105e-01,1.50446e-02,9.99999e-01,9.99982e-01,1.50448e-02,9.99999e-01
4.531182300e-01,1.63450e-02,9.99999e-01,9.99992e-01,1.63451e-02,9.99999e-01
4.553838212e-01,1.77287e-02,9.99999e-01,9.99994e-01,1.77287e-02,9.99999e-01
4.576607403e-01,1.91986e-02,9.99999e-01,9.99997e-01,1.91987e-02,9.99999e-01
4.599490440e-01,2.07577e-02,9.99999e-01,9.99997e-01,2.07578e-02,9.99999e-01
4.622487892e-01,2.24089e-02,9.99999e-01,9.99999e-01,2.24089e-02,9.99999e-01
4.645600332e-01,2.41548e-02,9.99999e-01,9.99998e-01,2.41548e-02,9.99999e-01
4.668828333e-01,2.59977e-02,9.99999e-01,9.99982e-01,2.59982e-02,9.99999e-01
4.692172475e-01,2.79406e-02,9.99999e-01,9.99962e-01,2.79417e-02,9.99999e-01
4.715633337e-01,2.99869e-02,9.99999e-01,9.99975e-01,2.99877e-02,9.99999e-01
4.739211504e-01,3.21378e-02,9.99999e-01,9.99976e-01,3.21386e-02,9.99999e-01
4.762907561e-01,3.43963e-02,9.99999e-01,9.99987e-01,3.43967e-02,9.99999e-01
4.786722099e-01,3.67639e-02,9.99999e-01,9.99994e-01,3.67641e-02,9.99999e-01
4.810655710e-01,3.92428e-02,9.99999e-01,9.99998e-01,3.92428e-02,9.99999e-01
4.834708988e-01,4.18341e-02,9.99999e-01,9.99985e-01,4.18347e-02,9.99999e-01
4.858882533e-01,4.45404e-02,9.99999e-01,9.99973e-01,4.45415e-02,9.99999e-01
4.883176946e-01,4.73637e-02,9.99999e-01,9.99977e-01,4.73648e-02,9.99999e-01
4.907592831e-01,5.03048e-02,9.99999e-01,9.99979e-01,5.03058e-02,9.99999e-01
4.932130795e-01,5.33652e-02,9.99999e-01,9.99985e-01,5.33660e-02,9.99999e-01
4.956791449e-01,5.65459e-02,9.99999e-01,9.99992e-01,5.65463e-02,9.99999e-01
4.981575406e-01,5.98454e-02,9.99999e-01,9.99962e-01,5.98477e-02,9.99999e-01
5.006483283e-01,6.32647e-02,9.99999e-01,9.99902e-01,6.32709e-02,9.99999e-01
5.031515699e-01,6.67834e-02,9.99999e-01,9.99506e-01,6.68164e-02,9.99999e-01
5.056673278e-01,7.04663e-02,9.99999e-01,9.99739e-01,7.04846e-02,9.99999e-01
5.081956644e-01,7.42514e-02,9.99999e-01,9.99671e-01,7.42758e-02,9.99999e-01
5.107366428e-01,7.81726e-02,9.99999e-01,9.99777e-01,7.81899e-02,9.99999e-01
5.132903260e-01,8.22165e-02,9.99999e-01,9.99872e-01,8.22269e-02,9.99999e-01
5.158567776e-01,8.63817e-02,9.99999e-01,9.99945e-01,8.63863e-02,9.99999e-01
5.184360615e-01,9.06658e-02,9.99999e-01,9.99978e-01,9.06678e-02,9.99999e-01
5.210282418e-01,9.50697e-02,9.99999e-01,9.99991e-01,9.50705e-02,9.99999e-01
5.236333830e-01,9.95905e-02,9.99999e-01,9.99967e-01,9.95937e-02,9.99999e-01
5.262515499e-01,1.04234e-01,9.99999e-01,9.99979e-01,1.04236e-01,9.99999e-01
5.288828077e-01,1.08995e-01,9.99999e-01,9.99981e-01,1.08997e-01,9.99999e-01
5.315272217e-01,1.13873e-01,9.99999e-01,9.99983e-01,1.13875e-01,9.99999e-01
5.341848578e-01,1.18867e-01,9.99999e-01,9.99988e-01,1.18869e-01,9.99999e-01
5.368557821e-01,1.23971e-01,9.99999e-01,9.99962e-01,1.23976e-01,9.99999e-01
5.395400610e-01,1.29178e-01,9.99999e-01,9.99864e-01,1.29195e-01,9.99999e-01
5.422377613e-01,1.34501e-01,9.99999e-01,9.99825e-01,1.34524e-01,9.99999e-01
5.449489501e-01,1.39939e-01,9.99999e-01,9.99837e-01,1.39962e-01,9.99999e-01
5.476736949e-01,1.45484e-01,9.99999e-01,9.99855e-01,1.45505e-01,9.99999e-01
5.504120634e-01,1.51136e-01,9.99999e-01,9.99895e-01,1.51152e-01,9.99999e-01
5.531641237e-01,1.56891e-01,9.99999e-01,9.99947e-01,1.56899e-01,9.99999e-01
5.559299443e-01,1.62742e-01,9.99999e-01,9.99974e-01,1.62746e-01,9.99999e-01
5.587095940e-01,1.68685e-01,9.99999e-01,9.99983e-01,1.68688e-01,9.99999e-01
5.615031420e-01,1.74720e-01,9.99999e-01,9.99981e-01,1.74724e-01,9.99999e-01
5.643106577e-01,1.80846e-01,9.99999e-01,9.99979e-01,1.80849e-01,9.99999e-01
5.671322110e-01,1.87017e-01,9.99999e-01,9.99756e-01,1.87062e-01,9.99999e-01
5.699678720e-01,1.93310e-01,9.99999e-01,9.99739e-01,1.93360e-01,9.99999e-01
5.728177114e-01,1.99685e-01,9.99999e-01,9.99729e-01,1.99739e-01,9.99999e-01
5.756818000e-01,2.06145e-01,9.99999e-01,9.99751e-01,2.06196e-01,9.99999e-01
5.785602090e-01,2.12682e-01,9.99999e-01,9.99783e-01,2.12728e-01,9.99999e-01
5.814530100e-01,2.19284e-01,9.99999e-01,9.99782e-01,2.19332e-01,9.99999e-01
5.843602750e-01,2.25946e-01,9.99999e-01,9.99741e-01,2.26004e-01,9.99999e-01
5.872820764e-01,2.32223e-01,9.99999e-01,9.97771e-01,2.32742e-01,9.99999e-01
5.902184868e-01,2.38894e-01,9.99999e-01,9.97298e-01,2.39541e-01,9.99999e-01
5.931695792e-01,2.45929e-01,9.99999e-01,9.98091e-01,2.46399e-01,9.99999e-01
5.961354271e-01,2.52782e-01,9.99999e-01,9.97907e-01,2.53312e-01,9.99999e-01
5.991161043e-01,2.59879e-01,9.99999e-01,9.98473e-01,2.60277e-01,9.99999e-01
6.021116848e-01,2.67058e-01,9.99999e-01,9.99133e-01,2.67289e-01,9.99999e-01
6.051222432e-01,2.74227e-01,9.99999e-01,9.99561e-01,2.74347e-01,9.99999e-01
6.081478544e-01,2.81393e-01,9.99999e-01,9.99810e-01,2.81446e-01,9.99999e-01
6.111885937e-01,2.88560e-01,9.99999e-01,9.99919e-01,2.88583e-01,9.99999e-01
6.142445367e-01,2.95744e-01,9.99999e-01,9.99963e-01,2.95755e-01,9.99999e-01
6.173157594e-01,3.02952e-01,9.99999e-01,9.99979e-01,3.02958e-01,9.99999e-01
6.204023382e-01,3.10184e-01,9.99999e-01,9.99982e-01,3.10189e-01,9.99999e-01
6.235043498e-01,3.17421e-01,9.99999e-01,9.99926e-01,3.17445e-01,9.99999e-01
6.266218716e-01,3.24596e-01,9.99999e-01,9.99611e-01,3.24722e-01,9.99999e-01
6.297549810e-01,3.31970e-01,9.99999e-01,9.99857e-01,3.32017e-01,9.99999e-01
6.329037559e-01,3.39231e-01,9.99999e-01,9.99717e-01,3.39327e-01,9.99999e-01
6.360682746e-01,3.46566e-01,9.99999e-01,9.99759e-01,3.46649e-01,9.99999e-01
6.392486160e-01,3.53870e-01,9.99999e-01,9.99688e-01,3.53980e-01,9.99999e-01
6.424448591e-01,3.61166e-01,9.99999e-01,9.99584e-01,3.61316e-01,9.99999e-01
6.456570834e-01,3.67943e-01,9.99999e-01,9.98069e-01,3.68655e-01,9.99999e-01
6.488853688e-01,3.75461e-01,9.99999e-01,9.98584e-01,3.75993e-01,9.99999e-01
6.521297956e-01,3.82776e-01,9.99999e-01,9.98557e-01,3.83329e-01,9.99999e-01
6.553904446e-01,3.90098e-01,9.99999e-01,9.98565e-01,3.90658e-01,9.99999e-01
6.586673968e-01,3.97490e-01,9.99999e-01,9.98770e-01,3.97979e-01,9.99999e-01
6.619607338e-01,4.05000e-01,9.99999e-01,9.99289e-01,4.05288e-01,9.99999e-01
6.652705375e-01,4.12413e-01,9.99999e-01,9.99588e-01,4.12583e-01,9.99999e-01
6.685968902e-01,4.19781e-01,9.99999e-01,9.99808e-01,4.19861e-01,9.99999e-01
6.719398746e-01,4.27083e-01,9.99999e-01,9.99911e-01,4.27121e-01,9.99999e-01
6.752995740e-01,4.34337e-01,9.99999e-01,9.99951e-01,4.34358e-01,9.99999e-01
6.786760719e-01,4.41541e-01,9.99999e-01,9.99930e-01,4.41572e-01,9.99999e-01
6.820694522e-01,4.48706e-01,9.99999e-01,9.99881e-01,4.48759e-01,9.99999e-01
6.854797995e-01,4.55849e-01,9.99999e-01,9.99846e-01,4.55918e-01,9.99999e-01
6.889071985e-01,4.62876e-01,9.99999e-01,9.99630e-01,4.63047e-01,9.99999e-01
6.923517345e-01,4.67305e-01,9.99999e-01,9.93963e-01,4.70143e-01,9.99999e-01
6.958134932e-01,4.75702e-01,9.99999e-01,9.96851e-01,4.77204e-01,9.99999e-01
6.992925606e-01,4.82783e-01,9.99999e-01,9.97015e-01,4.84228e-01,9.99999e-01
7.027890234e-01,4.89404e-01,9.99999e-01,9.96312e-01,4.91215e-01,9.99999e-01
7.063029686e-01,4.96617e-01,9.99999e-01,9.96900e-01,4.98161e-01,9.99999e-01
7.098344834e-01,5.03563e-01,9.99999e-01,9.97026e-01,5.05065e-01,9.99999e-01
7.133836558e-01,5.09898e-01,9.99999e-01,9.96040e-01,5.11925e-01,9.99999e-01
7.169505741e-01,5.02370e-01,9.99999e-01,9.68441e-01,5.18741e-01,9.99999e-01
7.205353270e-01,5.17326e-01,9.99999e-01,9.84426e-01,5.25510e-01,9.99999e-01
7.241380036e-01,5.21743e-01,9.99999e-01,9.80294e-01,5.32231e-01,9.99999e-01
7.277586936e-01,5.29310e-01,9.99999e-01,9.82198e-01,5.38903e-01,9.99999e-01
7.313974871e-01,5.35205e-01,9.99999e-01,9.81084e-01,5.45524e-01,9.99999e-01
7.350544745e-01,5.46371e-01,9.99999e-01,9.89634e-01,5.52093e-01,9.99999e-01
7.387297469e-01,5.54346e-01,9.99999e-01,9.92366e-01,5.58609e-01,9.99999e-01
7.424233956e-01,5.62958e-01,9.99999e-01,9.96259e-01,5.65072e-01,9.99999e-01
7.461355126e-01,5.70183e-01,9.99999e-01,9.97732e-01,5.71479e-01,9.99999e-01
7.498661902e-01,5.77220e-01,9.99999e-01,9.98943e-01,5.77830e-01,9.99999e-01
7.536155211e-01,5.83821e-01,9.99999e-01,9.99481e-01,5.84124e-01,9.99999e-01
7.573835987e-01,5.90203e-01,9.99999e-01,9.99733e-01,5.90360e-01,9.99999e-01
7.611705167e-01,5.96439e-01,9.99999e-01,9.99833e-01,5.96538e-01,9.99999e-01
7.649763693e-01,6.02594e-01,9.99999e-01,9.99895e-01,6.02656e-01,9.99999e-01
7.688012511e-01,6.08671e-01,9.99999e-01,9.99927e-01,6.08715e-01,9.99999e-01
7.726452574e-01,6.14676e-01,9.99999e-01,9.99940e-01,6.14713e-01,9.99999e-01
7.765084837e-01,6.20597e-01,9.99999e-01,9.99915e-01,6.20650e-01,9.99999e-01
7.803910261e-01,6.12019e-01,9.77195e-01,9.99634e-01,6.26525e-01,9.99999e-01
7.842929812e-01,5.71487e-01,9.04883e-01,9.98726e-01,6.32338e-01,9.99999e-01
7.882144461e-01,5.71736e-01,8.98309e-01,9.97374e-01,6.38089e-01,9.99999e-01
7.921555184e-01,6.04285e-01,9.39989e-01,9.98559e-01,6.43776e-01,9.99999e-01
7.961162960e-01,6.21509e-01,9.59474e-01,9.97456e-01,6.49401e-01,9.99999e-01
8.000968774e-01,6.38570e-01,9.77839e-01,9.97061e-01,6.54962e-01,9.99999e-01
8.040973618e-01,6.50923e-01,9.88460e-01,9.97060e-01,6.60460e-01,9.99999e-01
8.081178486e-01,6.57979e-01,9.94689e-01,9.93382e-01,6.65894e-01,9.99999e-01
8.121584379e-01,6.51829e-01,9.98356e-01,9.72635e-01,6.71264e-01,9.99999e-01
8.162192301e-01,6.54376e-01,9.99636e-01,9.67543e-01,6.76569e-01,9.99999e-01
8.203003262e-01,6.70669e-01,9.99994e-01,9.83663e-01,6.81811e-01,9.99999e-01
8.244018279e-01,6.71282e-01,9.99999e-01,9.77136e-01,6.86989e-01,9.99999e-01
8.285238370e-01,6.78638e-01,9.99999e-01,9.80545e-01,6.92102e-01,9.99999e-01
8.326664562e-01,6.83431e-01,9.99999e-01,9.80319e-01,6.97152e-01,9.99999e-01
8.368297885e-01,6.92253e-01,9.99999e-01,9.85922e-01,7.02137e-01,9.99999e-01
8.410139374e-01,7.01132e-01,9.99999e-01,9.91617e-01,7.07059e-01,9.99999e-01
8.452190071e-01,7.08986e-01,9.99999e-01,9.95882e-01,7.11917e-01,9.99999e-01
8.494451021e-01,7.14999e-01,9.99999e-01,9.97611e-01,7.16711e-01,9.99999e-01
8.536923276e-01,7.20422e-01,9.99999e-01,9.98586e-01,7.21442e-01,9.99999e-01
8.579607893e-01,7.25478e-01,9.99999e-01,9.99129e-01,7.26110e-01,9.99999e-01
8.622505932e-01,7.30311e-01,9.99999e-01,9.99446e-01,7.30715e-01,9.99999e-01
8.665618462e-01,6.93432e-01,9.43427e-01,9.99657e-01,7.35257e-01,9.99999e-01
8.708946554e-01,5.72282e-01,7.73923e-01,9.99608e-01,7.39737e-01,9.99999e-01
8.752491287e-01,6.06023e-01,8.14794e-01,9.99476e-01,7.44155e-01,9.99999e-01
8.796253743e-01,6.68903e-01,8.94280e-01,9.99274e-01,7.48511e-01,9.99999e-01
8.840235012e-01,7.09992e-01,9.43900e-01,9.99171e-01,7.52806e-01,9.99999e-01
8.884436187e-01,7.37809e-01,9.77528e-01,9.96981e-01,7.57040e-01,9.99999e-01
8.928858368e-01,7.30532e-01,9.90844e-01,9.68510e-01,7.61214e-01,9.99999e-01
8.973502660e-01,7.21526e-01,9.97768e-01,9.44848e-01,7.65327e-01,9.99998e-01
9.018370173e-01,7.47223e-01,9.99753e-01,9.71435e-01,7.69381e-01,9.99998e-01
9.063462024e-01,7.49290e-01,9.93691e-01,9.74881e-01,7.73375e-01,9.99998e-01
9.108779334e-01,7.36373e-01,9.85589e-01,9.61072e-01,7.77311e-01,9.99998e-01
9.154323231e-01,7.44247e-01,9.96597e-01,9.55917e-01,7.81189e-01,9.99998e-01
9.200094847e-01,7.21235e-01,9.50618e-01,9.65276e-01,7.85008e-01,9.99998e-01
9.246095321e-01,6.95506e-01,9.31342e-01,9.45931e-01,7.88771e-01,9.99997e-01
9.292325798e-01,5.17471e-01,9.45648e-01,6.87614e-01,7.92476e-01,9.99994e-01
9.338787427e-01,4.66534e-01,9.47485e-01,6.15938e-01,7.96125e-01,9.99992e-01
9.385481364e-01,6.33463e-01,9.61199e-01,8.22783e-01,7.99719e-01,9.99992e-01
9.432408771e-01,5.97155e-01,9.76085e-01,7.60923e-01,8.03257e-01,9.99991e-01
9.479570815e-01,5.45640e-01,9.87664e-01,6.84470e-01,8.06741e-01,9.99992e-01
9.526968669e-01,6.07541e-01,9.94032e-01,7.54110e-01,8.10170e-01,9.99994e-01
9.574603512e-01,6.27836e-01,9.97444e-01,7.73618e-01,8.13546e-01,9.99995e-01
9.622476530e-01,6.62724e-01,9.99202e-01,8.11921e-01,8.16869e-01,9.99996e-01
9.670588912e-01,7.27309e-01,9.99760e-01,8.87018e-01,8.20139e-01,9.99997e-01
9.718941857e-01,7.64104e-01,9.99982e-01,9.28049e-01,8.23357e-01,9.99998e-01
9.767536566e-01,7.76867e-01,9.99999e-01,9.39920e-01,8.26524e-01,9.99998e-01
9.816374249e-01,7.92431e-01,9.99999e-01,9.55149e-01,8.29641e-01,9.99999e-01
9.865456120e-01,8.09188e-01,9.99999e-01,9.71755e-01,8.32707e-01,9.99999e-01
9.914783401e-01,8.21063e-01,9.99999e-01,9.82457e-01,8.35724e-01,9.99999e-01
9.964357318e-01,8.30649e-01,9.99999e-01,9.90410e-01,8.38691e-01,9.99999e-01
1.001417910e+00,8.36766e-01,9.99999e-01,9.94243e-01,8.41610e-01,9.99999e-01
1.006425000e+00,8.41709e-01,9.99999e-01,9.96715e-01,8.44482e-01,9.99999e-01
1.011457125e+00,8.45578e-01,9.99999e-01,9.97960e-01,8.47306e-01,9.99999e-01
1.016514411e+00,8.48907e-01,9.99999e-01,9.98614e-01,8.50084e-01,9.99999e-01
1.021596983e+00,8.51847e-01,9.99966e-01,9.98896e-01,8.52815e-01,9.99999e-01
1.026704968e+00,8.52667e-01,9.97544e-01,9.99139e-01,8.55502e-01,9.99999e-01
1.031838492e+00,8.29417e-01,9.67115e-01,9.99374e-01,8.58143e-01,9.99999e-01
1.036997685e+00,1.92313e-01,2.23496e-01,9.99628e-01,8.60740e-01,9.99999e-01
1.042182673e+00,2.06425e-01,2.39211e-01,9.99556e-01,8.63293e-01,9.99999e-01
1.047393587e+00,2.07335e-01,2.39598e-01,9.99412e-01,8.65804e-01,9.99999e-01
1.052630555e+00,1.73507e-02,1.99954e-02,9.99193e-01,8.68271e-01,9.99999e-01
1.057893707e+00,3.65724e-02,4.20454e-02,9.98654e-01,8.70697e-01,9.99999e-01
1.063183176e+00,8.63198e-02,9.90374e-02,9.97786e-01,8.73082e-01,9.99999e-01
1.068499092e+00,1.82008e-01,2.08591e-01,9.96294e-01,8.75426e-01,9.99999e-01
1.073841587e+00,3.25206e-01,3.71941e-01,9.95664e-01,8.77729e-01,9.99999e-01
1.079210795e+00,4.68595e-01,5.35292e-01,9.94445e-01,8.79993e-01,9.99999e-01
1.084606849e+00,6.21527e-01,7.10284e-01,9.91601e-01,8.82218e-01,9.99999e-01
1.090029883e+00,7.31994e-01,8.37575e-01,9.87956e-01,8.84405e-01,9.99999e-01
1.095480033e+00,7.86240e-01,9.16419e-01,9.67507e-01,8.86553e-01,9.99998e-01
1.100957433e+00,7.83618e-01,9.58864e-01,9.19360e-01,8.88664e-01,9.99998e-01
1.106462220e+00,7.06694e-01,9.82784e-01,8.06942e-01,8.90739e-01,9.99996e-01
1.111994531e+00,5.64322e-01,9.93585e-01,6.35981e-01,8.92777e-01,9.99993e-01
1.117554504e+00,4.28750e-01,9.98430e-01,4.79827e-01,8.94779e-01,9.99990e-01
1.123142276e+00,5.20069e-01,9.99896e-01,5.79993e-01,8.96746e-01,9.99989e-01
1.128757988e+00,6.35620e-01,9.99999e-01,7.07291e-01,8.98679e-01,9.99988e-01
1.134401778e+00,4.08067e-01,9.99999e-01,4.53123e-01,9.00577e-01,9.99986e-01
1.140073787e+00,7.34939e-01,9.99999e-01,8.14397e-01,9.02442e-01,9.99989e-01
1.145774156e+00,5.87832e-01,9.99999e-01,6.50065e-01,9.04273e-01,9.99990e-01
1.151503026e+00,5.59964e-01,9.99999e-01,6.18017e-01,9.06072e-01,9.99992e-01
1.157260541e+00,6.09751e-01,9.99999e-01,6.71654e-01,9.07839e-01,9.99993e-01
1.163046844e+00,6.78010e-01,9.99999e-01,7.45416e-01,9.09575e-01,9.99995e-01
1.168862078e+00,7.43519e-01,9.99999e-01,8.15908e-01,9.11279e-01,9.99997e-01
1.174706389e+00,8.05257e-01,9.99999e-01,8.82035e-01,9.12953e-01,9.99998e-01
1.180579921e+00,8.47333e-01,9.99999e-01,9.26455e-01,9.14597e-01,9.99998e-01
1.186482820e+00,8.77542e-01,9.99995e-01,9.57798e-01,9.16211e-01,9.99999e-01
1.192415234e+00,8.87198e-01,9.91210e-01,9.75168e-01,9.17796e-01,9.99999e-01
1.198377311e+00,5.18177e-01,5.73730e-01,9.79033e-01,9.19352e-01,9.99999e-01
1.204369197e+00,3.96169e-08,4.35213e-08,9.80139e-01,9.20881e-01,9.99999e-01
1.210391043e+00,1.72058e-27,1.88532e-27,9.81004e-01,9.22381e-01,9.99999e-01
1.216442998e+00,4.99588e-24,5.46244e-24,9.83815e-01,9.23854e-01,9.99999e-01
1.222525213e+00,1.09355e-23,1.18960e-23,9.87383e-01,9.25301e-01,9.99999e-01
1.228637839e+00,2.67703e-18,2.90669e-18,9.91224e-01,9.26721e-01,9.99999e-01
1.234781029e+00,2.74024e-12,2.96087e-12,9.93476e-01,9.28115e-01,9.99999e-01
1.240954934e+00,2.43080e-08,2.62236e-08,9.95871e-01,9.29483e-01,9.99999e-01
1.247159708e+00,6.00797e-05,6.46810e-05,9.96783e-01,9.30827e-01,9.99999e-01
1.253395507e+00,3.93489e-03,4.23082e-03,9.97144e-01,9.32146e-01,9.99999e-01
1.259662485e+00,4.12165e-02,4.42569e-02,9.97288e-01,9.33440e-01,9.99999e-01
1.265960797e+00,1.52456e-01,1.63713e-01,9.95667e-01,9.34711e-01,9.99999e-01
1.272290601e+00,4.39484e-01,4.72575e-01,9.93203e-01,9.35959e-01,9.99999e-01
1.278652054e+00,3.81003e-01,4.11205e-01,9.86520e-01,9.37183e-01,9.99999e-01
1.285045314e+00,1.47536e-02,1.59032e-02,9.75661e-01,9.38385e-01,9.99999e-01
1.291470541e+00,6.13001e-04,6.72308e-04,9.57960e-01,9.39564e-01,9.99998e-01
1.297927893e+00,1.84293e-02,2.02131e-02,9.45487e-01,9.40722e-01,9.99998e-01
1.304417533e+00,2.26035e-01,2.56592e-01,9.30357e-01,9.41858e-01,9.99996e-01
1.310939621e+00,6.06141e-02,6.76436e-02,9.20645e-01,9.42973e-01,9.99994e-01
1.317494319e+00,6.11021e-10,6.83846e-10,9.14207e-01,9.44067e-01,9.99991e-01
1.324081790e+00,3.74261e-07,4.23553e-07,8.74157e-01,9.45141e-01,9.99986e-01
1.330702199e+00,2.42012e-04,3.47006e-04,5.72417e-01,9.46195e-01,9.99978e-01
1.337355710e+00,1.13217e-04,2.94203e-04,2.46923e-01,9.47229e-01,9.99958e-01
1.344042489e+00,1.84977e-05,8.93672e-05,2.66047e-02,9.48244e-01,9.99912e-01
1.350762701e+00,4.55500e-07,2.43813e-04,7.14229e-04,9.49240e-01,9.99860e-01
1.357516515e+00,5.95887e-07,4.38245e-03,5.34599e-05,9.50217e-01,9.99827e-01
1.364304097e+00,7.19108e-05,3.22610e-02,1.47043e-03,9.51176e-01,9.99814e-01
1.371125618e+00,2.64483e-03,1.64166e-01,1.23378e-02,9.52117e-01,9.99813e-01
1.377981246e+00,6.16040e-03,2.33051e-01,2.40255e-02,9.53040e-01,9.99799e-01
1.384871152e+00,6.43381e-04,4.28339e-01,1.36433e-03,9.53946e-01,9.99804e-01
1.391795508e+00,1.00892e-03,4.56993e-01,2.03273e-03,9.54835e-01,9.99834e-01
1.398754485e+00,3.15044e-03,6.17602e-01,5.11965e-03,9.55707e-01,9.99857e-01
1.405748258e+00,3.35523e-03,7.00824e-01,4.71928e-03,9.56563e-01,9.99872e-01
1.412776999e+00,4.09589e-03,7.99109e-01,5.15586e-03,9.57402e-01,9.99897e-01
1.419840884e+00,5.93925e-03,7.30513e-01,7.29428e-03,9.58226e-01,9.99923e-01
1.426940089e+00,5.86467e-03,8.62537e-02,2.10864e-02,9.59034e-01,9.99952e-01
1.434074789e+00,0.00000e+00,0.00000e+00,5.23669e-02,9.59826e-01,9.99970e-01
1.441245163e+00,0.00000e+00,0.00000e+00,1.08169e-01,9.60604e-01,9.99976e-01
1.448451389e+00,0.00000e+00,0.00000e+00,2.03868e-01,9.61367e-01,9.99980e-01
1.455693646e+00,1.84328e-215,3.25246e-215,3.54008e-01,9.62115e-01,9.99983e-01
1.462972114e+00,6.46067e-105,1.13911e-104,4.11088e-01,9.62850e-01,9.99986e-01
1.470286975e+00,1.19852e-44,2.20216e-44,3.53710e-01,9.63570e-01,9.99987e-01
