#,Wave/freq,Total,CO2,H2O,Rayleigh,CIA
4.000000000e-01,2.26599e-16,9.99999e-01,9.99929e-01,2.26615e-16,9.99999e-01
4.020000000e-01,4.61972e-16,9.99999e-01,9.99955e-01,4.61992e-16,9.99999e-01
4.040100000e-01,9.27979e-16,9.99999e-01,9.99980e-01,9.27997e-16,9.99999e-01
4.060300500e-01,1.83854e-15,9.99999e-01,9.99995e-01,1.83855e-15,9.99999e-01
4.080602003e-01,3.59366e-15,9.99999e-01,9.99998e-01,3.59367e-15,9.99999e-01
4.101005013e-01,6.93189e-15,9.99999e-01,9.99999e-01,6.93189e-15,9.99999e-01
4.121510038e-01,1.31986e-14,9.99999e-01,9.99996e-01,1.31987e-14,9.99999e-01
4.142117588e-01,2.48128e-14,9.99999e-01,9.99980e-01,2.48133e-14,9.99999e-01
4.162828176e-01,4.60664e-14,9.99999e-01,9.99912e-01,4.60705e-14,9.99999e-01
4.183642317e-01,8.44949e-14,9.99999e-01,9.99947e-01,8.44993e-14,9.99999e-01
4.204560528e-01,1.53132e-13,9.99999e-01,9.99967e-01,1.53137e-13,9.99999e-01
4.225583331e-01,2.74284e-13,9.99999e-01,9.99987e-01,2.74288e-13,9.99999e-01
4.246711247e-01,4.85656e-13,9.99999e-01,9.99990e-01,4.85661e-13,9.99999e-01
4.267944804e-01,8.50261e-13,9.99999e-01,9.99985e-01,8.50273e-13,9.99999e-01
4.289284528e-01,1.47223e-12,9.99999e-01,9.99988e-01,1.47224e-12,9.99999e-01
4.310730950e-01,2.52168e-12,9.99999e-01,9.99994e-01,2.52169e-12,9.99999e-01
4.332284605e-01,4.27352e-12,9.99999e-01,9.99998e-01,4.27353e-12,9.99999e-01
4.353946028e-01,7.16731e-12,9.99999e-01,9.99998e-01,7.16732e-12,9.99999e-01
4.375715758e-01,1.18984e-11,9.99999e-01,9.99991e-01,1.18985e-11,9.99999e-01
4.397594337e-01,1.95544e-11,9.99999e-01,9.99923e-01,1.95559e-11,9.99999e-01
4.419582309e-01,3.18151e-11,9.99999e-01,9.99614e-01,3.18274e-11,9.99999e-01
4.441680220e-01,5.12878e-11,9.99999e-01,9.99693e-01,5.13035e-11,9.99999e-01
4.463888621e-01,8.18954e-11,9.99999e-01,9.99683e-01,8.19213e-11,9.99999e-01
4.486208064e-01,1.29583e-10,9.99999e-01,9.99802e-01,1.29608e-10,9.99999e-01
4.508639105e-01,2.03185e-10,9.99999e-01,9.99907e-01,2.03204e-10,9.99999e-01
4.531182300e-01,3.15761e-10,9.99999e-01,9.99962e-01,3.15773e-10,9.99999e-01
4.553838212e-01,4.86435e-10,9.99999e-01,9.99974e-01,4.86447e-10,9.99999e-01
4.576607403e-01,7.42993e-10,9.99999e-01,9.99988e-01,7.43001e-10,9.99999e-01
4.599490440e-01,1.12540e-09,9.99999e-01,9.99991e-01,1.12541e-09,9.99999e-01
4.622487892e-01,1.69071e-09,9.99999e-01,9.99998e-01,1.69071e-09,9.99999e-01
4.645600332e-01,2.51961e-09,9.99999e-01,9.99994e-01,2.51963e-09,9.99999e-01
4.668828333e-01,3.72513e-09,9.99999e-01,9.99907e-01,3.72547e-09,9.99999e-01
4.692172475e-01,5.46493e-09,9.99999e-01,9.99800e-01,5.46602e-09,9.99999e-01
4.715633337e-01,7.95823e-09,9.99999e-01,9.99870e-01,7.95926e-09,9.99999e-01
4.739211504e-01,1.15026e-08,9.99999e-01,9.99875e-01,1.15040e-08,9.99999e-01
4.762907561e-01,1.65059e-08,9.99999e-01,9.99934e-01,1.65070e-08,9.99999e-01
4.786722099e-01,2.35167e-08,9.99999e-01,9.99973e-01,2.35174e-08,9.99999e-01
4.810655710e-01,3.32713e-08,9.99999e-01,9.99991e-01,3.32715e-08,9.99999e-01
4.834708988e-01,4.67464e-08,9.99999e-01,9.99924e-01,4.67499e-08,9.99999e-01
4.858882533e-01,6.52393e-08,9.99999e-01,9.99858e-01,6.52485e-08,9.99999e-01
4.883176946e-01,9.04585e-08,9.99999e-01,9.99882e-01,9.04691e-08,9.99999e-01
4.907592831e-01,1.24618e-07,9.99999e-01,9.99893e-01,1.24631e-07,9.99999e-01
4.932130795e-01,1.70597e-07,9.99999e-01,9.99924e-01,1.70610e-07,9.99999e-01
4.956791449e-01,2.32099e-07,9.99999e-01,9.99959e-01,2.32108e-07,9.99999e-01
4.981575406e-01,3.13796e-07,9.99999e-01,9.99800e-01,3.13859e-07,9.99999e-01
5.006483283e-01,4.21665e-07,9.99999e-01,9.99487e-01,4.21881e-07,9.99999e-01
5.031515699e-01,5.62304e-07,9.99999e-01,9.97386e-01,5.63778e-07,9.99999e-01
5.056673278e-01,7.48062e-07,9.99999e-01,9.98615e-01,7.49099e-07,9.99999e-01
5.081956644e-01,9.88037e-07,9.99999e-01,9.98253e-01,9.89765e-07,9.99999e-01
5.107366428e-01,1.29904e-06,9.99999e-01,9.98819e-01,1.30057e-06,9.99999e-01
5.132903260e-01,1.69864e-06,9.99999e-01,9.99324e-01,1.69979e-06,9.99999e-01
5.158567776e-01,2.20920e-06,9.99999e-01,9.99713e-01,2.20983e-06,9.99999e-01
5.184360615e-01,2.85774e-06,9.99999e-01,9.99885e-01,2.85807e-06,9.99999e-01
5.210282418e-01,3.67756e-06,9.99999e-01,9.99957e-01,3.67772e-06,9.99999e-01
5.236333830e-01,4.70812e-06,9.99999e-01,9.99828e-01,4.70893e-06,9.99999e-01
5.262515499e-01,5.99927e-06,9.99999e-01,9.99892e-01,5.99991e-06,9.99999e-01
5.288828077e-01,7.60759e-06,9.99999e-01,9.99901e-01,7.60833e-06,9.99999e-01
5.315272217e-01,9.60195e-06,9.99999e-01,9.99913e-01,9.60278e-06,9.99999e-01
5.341848578e-01,1.20638e-05,9.99999e-01,9.99943e-01,1.20644e-05,9.99999e-01
5.368557821e-01,1.50860e-05,9.99999e-01,9.99801e-01,1.50890e-05,9.99999e-01
5.395400610e-01,1.87752e-05,9.99999e-01,9.99288e-01,1.87885e-05,9.99999e-01
5.422377613e-01,2.32724e-05,9.99999e-01,9.99070e-01,2.32941e-05,9.99999e-01
5.449489501e-01,2.87329e-05,9.99999e-01,9.99140e-01,2.87577e-05,9.99999e-01
5.476736949e-01,3.53282e-05,9.99999e-01,9.99233e-01,3.53553e-05,9.99999e-01
5.504120634e-01,4.32655e-05,9.99999e-01,9.99443e-01,4.32896e-05,9.99999e-01
5.531641237e-01,5.27781e-05,9.99999e-01,9.99719e-01,5.27929e-05,9.99999e-01
5.559299443e-01,6.41219e-05,9.99999e-01,9.99864e-01,6.41306e-05,9.99999e-01
5.587095940e-01,7.75978e-05,9.99999e-01,9.99915e-01,7.76044e-05,9.99999e-01
5.615031420e-01,9.35471e-05,9.99999e-01,9.99905e-01,9.35559e-05,9.99999e-01
5.643106577e-01,1.12359e-04,9.99999e-01,9.99894e-01,1.12371e-04,9.99999e-01
5.671322110e-01,1.34310e-04,9.99999e-01,9.98724e-01,1.34481e-04,9.99999e-01
5.699678720e-01,1.60150e-04,9.99999e-01,9.98612e-01,1.60373e-04,9.99999e-01
5.728177114e-01,1.90312e-04,9.99999e-01,9.98567e-01,1.90585e-04,9.99999e-01
5.756818000e-01,2.25421e-04,9.99999e-01,9.98683e-01,2.25718e-04,9.99999e-01
5.785602090e-01,2.66129e-04,9.99999e-01,9.98849e-01,2.66435e-04,9.99999e-01
5.814530100e-01,3.13108e-04,9.99999e-01,9.98847e-01,3.13470e-04,9.99999e-01
5.843602750e-01,3.67123e-04,9.99999e-01,9.98635e-01,3.67624e-04,9.99999e-01
5.872820764e-01,4.24748e-04,9.99999e-01,9.88292e-01,4.29780e-04,9.99999e-01
5.902184868e-01,4.93737e-04,9.99999e-01,9.85707e-01,5.00896e-04,9.99999e-01
5.931695792e-01,5.76149e-04,9.99999e-01,9.89917e-01,5.82017e-04,9.99999e-01
5.961354271e-01,6.66807e-04,9.99999e-01,9.88925e-01,6.74274e-04,9.99999e-01
5.991161043e-01,7.72581e-04,9.99999e-01,9.91902e-01,7.78887e-04,9.99999e-01
6.021116848e-01,8.93039e-04,9.99999e-01,9.95392e-01,8.97172e-04,9.99999e-01
6.051222432e-01,1.02813e-03,9.99999e-01,9.97665e-01,1.03054e-03,9.99999e-01
6.081478544e-01,1.17931e-03,9.99999e-01,9.98993e-01,1.18049e-03,9.99999e-01
6.111885937e-01,1.34807e-03,9.99999e-01,9.99572e-01,1.34864e-03,9.99999e-01
6.142445367e-01,1.53641e-03,9.99999e-01,9.99809e-01,1.53670e-03,9.99999e-01
6.173157594e-01,1.74629e-03,9.99999e-01,9.99894e-01,1.74647e-03,9.99999e-01
6.204023382e-01,1.97969e-03,9.99999e-01,9.99911e-01,1.97986e-03,9.99999e-01
6.235043498e-01,2.23803e-03,9.99999e-01,9.99615e-01,2.23889e-03,9.99999e-01
6.266218716e-01,2.52046e-03,9.99999e-01,9.97937e-01,2.52567e-03,9.99999e-01
6.297549810e-01,2.84026e-03,9.99999e-01,9.99243e-01,2.84241e-03,9.99999e-01
6.329037559e-01,3.18662e-03,9.99999e-01,9.98500e-01,3.19141e-03,9.99999e-01
6.360682746e-01,3.57052e-03,9.99999e-01,9.98727e-01,3.57507e-03,9.99999e-01
6.392486160e-01,3.98929e-03,9.99999e-01,9.98348e-01,3.99589e-03,9.99999e-01
6.424448591e-01,4.44666e-03,9.99999e-01,9.97805e-01,4.45643e-03,9.99999e-01
6.456570834e-01,4.90901e-03,9.99999e-01,9.89847e-01,4.95936e-03,9.99999e-01
6.488853688e-01,5.45899e-03,9.99999e-01,9.91210e-01,5.50740e-03,9.99999e-01
6.521297956e-01,6.05669e-03,9.99999e-01,9.92354e-01,6.10335e-03,9.99999e-01
6.553904446e-01,6.69906e-03,9.99999e-01,9.92441e-01,6.75008e-03,9.99999e-01
6.586673968e-01,7.40186e-03,9.99999e-01,9.93470e-01,7.45050e-03,9.99999e-01
6.619607338e-01,8.17657e-03,9.99999e-01,9.96220e-01,8.20758e-03,9.99999e-01
6.652705375e-01,9.00452e-03,9.99999e-01,9.97805e-01,9.02432e-03,9.99999e-01
6.685968902e-01,9.89367e-03,9.99999e-01,9.98980e-01,9.90376e-03,9.99999e-01
6.719398746e-01,1.08438e-02,9.99999e-01,9.99526e-01,1.08490e-02,9.99999e-01
6.752995740e-01,1.18600e-02,9.99999e-01,9.99744e-01,1.18630e-02,9.99999e-01
6.786760719e-01,1.29442e-02,9.99999e-01,9.99633e-01,1.29489e-02,9.99999e-01
6.820694522e-01,1.41010e-02,9.99999e-01,9.99370e-01,1.41098e-02,9.99999e-01
6.854797995e-01,1.53363e-02,9.99999e-01,9.99189e-01,1.53488e-02,9.99999e-01
6.889071985e-01,1.66364e-02,9.99999e-01,9.98062e-01,1.66687e-02,9.99999e-01
6.923517345e-01,1.75047e-02,9.99999e-01,9.68565e-01,1.80728e-02,9.99999e-01
6.958134932e-01,1.92366e-02,9.99999e-01,9.83276e-01,1.95638e-02,9.99999e-01
6.992925606e-01,2.08133e-02,9.99999e-01,9.84329e-01,2.11447e-02,9.99999e-01
7.027890234e-01,2.23747e-02,9.99999e-01,9.80560e-01,2.28182e-02,9.99999e-01
7.063029686e-01,2.41849e-02,9.99999e-01,9.83635e-01,2.45873e-02,9.99999e-01
7.098344834e-01,2.60388e-02,9.99999e-01,9.84289e-01,2.64544e-02,9.99999e-01
7.133836558e-01,2.78356e-02,9.99999e-01,9.79363e-01,2.84222e-02,9.99998e-01
7.169505741e-01,2.58143e-02,9.99999e-01,8.46563e-01,3.04931e-02,9.99997e-01
7.205353270e-01,3.00660e-02,9.99999e-01,9.20312e-01,3.26695e-02,9.99997e-01
7.241380036e-01,3.14878e-02,9.99999e-01,9.00848e-01,3.49535e-02,9.99997e-01
7.277586936e-01,3.39875e-02,9.99999e-01,9.10036e-01,3.73474e-02,9.99997e-01
7.313974871e-01,3.60206e-02,9.99999e-01,9.03835e-01,3.98531e-02,9.99998e-01
7.350544745e-01,4.01897e-02,9.99999e-01,9.46254e-01,4.24724e-02,9.99998e-01
7.387297469e-01,4.34021e-02,9.99999e-01,9.60077e-01,4.52069e-02,9.99999e-01
7.424233956e-01,4.71074e-02,9.99999e-01,9.80213e-01,4.80582e-02,9.99999e-01
7.461355126e-01,5.04143e-02,9.99999e-01,9.87977e-01,5.10277e-02,9.99999e-01
7.498661902e-01,5.38121e-02,9.99999e-01,9.94373e-01,5.41166e-02,9.99999e-01
7.536155211e-01,5.71678e-02,9.99999e-01,9.97242e-01,5.73258e-02,9.99999e-01
7.573835987e-01,6.05701e-02,9.99999e-01,9.98578e-01,6.06563e-02,9.99999e-01
7.611705167e-01,6.40521e-02,9.99999e-01,9.99116e-01,6.41087e-02,9.99999e-01
7.649763693e-01,6.76462e-02,9.99999e-01,9.99447e-01,6.76836e-02,9.99999e-01
7.688012511e-01,7.13538e-02,9.99999e-01,9.99615e-01,7.13813e-02,9.99999e-01
7.726452574e-01,7.51781e-02,9.99999e-01,9.99683e-01,7.52019e-02,9.99999e-01
7.765084837e-01,7.91101e-02,9.99999e-01,9.99553e-01,7.91455e-02,9.99999e-01
7.803910261e-01,7.54990e-02,9.08914e-01,9.98073e-01,8.32118e-02,9.99999e-01
7.842929812e-01,5.29946e-02,6.09895e-01,9.93292e-01,8.74005e-02,9.99999e-01
7.882144461e-01,5.39401e-02,5.95519e-01,9.86130e-01,9.17110e-02,9.99999e-01
7.921555184e-01,6.92431e-02,7.25370e-01,9.92343e-01,9.61427e-02,9.99999e-01
7.961162960e-01,7.98426e-02,8.03329e-01,9.86626e-01,1.00695e-01,9.99999e-01
8.000968774e-01,9.21245e-02,8.87976e-01,9.84484e-01,1.05366e-01,9.99999e-01
8.040973618e-01,1.01950e-01,9.39987e-01,9.84500e-01,1.10155e-01,9.99999e-01
8.081178486e-01,1.08021e-01,9.72052e-01,9.65645e-01,1.15060e-01,9.99998e-01
8.121584379e-01,1.02983e-01,9.91225e-01,8.64951e-01,1.20081e-01,9.99997e-01
8.162192301e-01,1.05103e-01,9.98055e-01,8.40914e-01,1.25215e-01,9.99997e-01
8.203003262e-01,1.19984e-01,9.99967e-01,9.19713e-01,1.30461e-01,9.99996e-01
8.244018279e-01,1.20682e-01,9.99999e-01,8.88567e-01,1.35817e-01,9.99996e-01
8.285238370e-01,1.27407e-01,9.99999e-01,9.01812e-01,1.41279e-01,9.99997e-01
8.326664562e-01,1.32256e-01,9.99999e-01,9.00637e-01,1.46848e-01,9.99998e-01
8.368297885e-01,1.41466e-01,9.99999e-01,9.27534e-01,1.52519e-01,9.99998e-01
8.410139374e-01,1.51361e-01,9.99999e-01,9.56224e-01,1.58291e-01,9.99999e-01
8.452190071e-01,1.60590e-01,9.99999e-01,9.78254e-01,1.64160e-01,9.99999e-01
8.494451021e-01,1.67975e-01,9.99999e-01,9.87359e-01,1.70125e-01,9.99999e-01
8.536923276e-01,1.74859e-01,9.99999e-01,9.92486e-01,1.76182e-01,9.99999e-01
8.579607893e-01,1.81487e-01,9.99999e-01,9.95378e-01,1.82329e-01,9.99999e-01
8.622505932e-01,1.88008e-01,9.99999e-01,9.97056e-01,1.88563e-01,9.99999e-01
8.665618462e-01,1.68564e-01,8.66429e-01,9.98183e-01,1.94880e-01,9.99999e-01
8.708946554e-01,6.02218e-02,2.99762e-01,9.97924e-01,2.01278e-01,9.99999e-01
8.752491287e-01,7.52564e-02,3.63171e-01,9.97221e-01,2.07754e-01,9.99999e-01
8.796253743e-01,1.20462e-01,5.64083e-01,9.96164e-01,2.14303e-01,9.99999e-01
8.840235012e-01,1.62465e-01,7.38466e-01,9.95616e-01,2.20924e-01,9.99999e-01
8.884436187e-01,1.98652e-01,8.86175e-01,9.84372e-01,2.27612e-01,9.99998e-01
8.928858368e-01,1.89304e-01,9.52183e-01,8.47084e-01,2.34365e-01,9.99997e-01
8.973502660e-01,1.77669e-01,9.88104e-01,7.44950e-01,2.41178e-01,9.99995e-01
9.018370173e-01,2.13004e-01,9.98679e-01,8.59743e-01,2.48050e-01,9.99995e-01
9.063462024e-01,2.17097e-01,9.68209e-01,8.76479e-01,2.54975e-01,9.99994e-01
9.108779334e-01,1.97922e-01,9.25875e-01,8.13611e-01,2.61952e-01,9.99994e-01
9.154323231e-01,2.08949e-01,9.81935e-01,7.90130e-01,2.68976e-01,9.99993e-01
9.200094847e-01,1.88673e-01,8.00905e-01,8.31752e-01,2.76043e-01,9.99991e-01
9.246095321e-01,1.50535e-01,6.88057e-01,7.60012e-01,2.83152e-01,9.99986e-01
9.292325798e-01,4.14979e-02,7.52061e-01,1.78383e-01,2.90298e-01,9.99971e-01
9.338787427e-01,2.50307e-02,7.54946e-01,1.04940e-01,2.97477e-01,9.99963e-01
9.385481364e-01,1.01711e-01,8.11764e-01,3.99022e-01,3.04687e-01,9.99962e-01
9.432408771e-01,8.26045e-02,8.79100e-01,2.96166e-01,3.11924e-01,9.99958e-01
9.479570815e-01,5.54887e-02,9.36097e-01,1.84150e-01,3.19185e-01,9.99963e-01
9.526968669e-01,8.53342e-02,9.68650e-01,2.68157e-01,3.26467e-01,9.99972e-01
9.574603512e-01,9.39312e-02,9.86450e-01,2.84583e-01,3.33766e-01,9.99979e-01
9.622476530e-01,1.19631e-01,9.95749e-01,3.51981e-01,3.41079e-01,9.99986e-01
9.670588912e-01,1.89561e-01,9.98722e-01,5.44675e-01,3.48404e-01,9.99990e-01
9.718941857e-01,2.40790e-01,9.99907e-01,6.76931e-01,3.55736e-01,9.99994e-01
9.767536566e-01,2.62488e-01,9.99999e-01,7.22963e-01,3.63073e-01,9.99995e-01
9.816374249e-01,2.90741e-01,9.99999e-01,7.84914e-01,3.70412e-01,9.99997e-01
9.865456120e-01,3.24528e-01,9.99999e-01,8.59106e-01,3.77750e-01,9.99998e-01
9.914783401e-01,3.50519e-01,9.99999e-01,9.10238e-01,3.85084e-01,9.99999e-01
9.964357318e-01,3.72811e-01,9.99999e-01,9.50049e-01,3.92412e-01,9.99999e-01
1.001417910e+00,3.87632e-01,9.99999e-01,9.69733e-01,3.99730e-01,9.99999e-01
1.006425000e+00,3.99977e-01,9.99999e-01,9.82657e-01,4.07036e-01,9.99999e-01
1.011457125e+00,4.09844e-01,9.99999e-01,9.89179e-01,4.14327e-01,9.99999e-01
1.016514411e+00,4.18503e-01,9.99999e-01,9.92650e-01,4.21601e-01,9.99999e-01
1.021596983e+00,4.26276e-01,9.99838e-01,9.94143e-01,4.28856e-01,9.99999e-01
1.026704968e+00,4.28603e-01,9.87326e-01,9.95431e-01,4.36088e-01,9.99999e-01
1.031838492e+00,3.98717e-01,9.02277e-01,9.96672e-01,4.43295e-01,9.99999e-01
1.036997685e+00,2.07018e-02,4.60236e-02,9.98025e-01,4.50476e-01,9.99999e-01
1.042182673e+00,9.86824e-04,2.16021e-03,9.97653e-01,4.57628e-01,9.99999e-01
1.047393587e+00,2.76908e-03,5.97360e-03,9.96884e-01,4.64749e-01,9.99999e-01
1.052630555e+00,1.47932e-07,3.14364e-07,9.95730e-01,4.71837e-01,9.99999e-01
1.057893707e+00,5.48352e-07,1.14916e-06,9.92891e-01,4.78889e-01,9.99999e-01
1.063183176e+00,2.02480e-05,4.19476e-05,9.88319e-01,4.85905e-01,9.99999e-01
1.068499092e+00,2.37028e-04,4.86997e-04,9.80500e-01,4.92882e-01,9.99999e-01
1.073841587e+00,3.52460e-03,7.16657e-03,9.77274e-01,4.99818e-01,9.99999e-01
1.079210795e+00,2.24581e-02,4.53408e-02,9.70874e-01,5.06712e-01,9.99998e-01
1.084606849e+00,8.44253e-02,1.70882e-01,9.56338e-01,5.13562e-01,9.99998e-01
1.090029883e+00,1.94408e-01,3.95984e-01,9.38268e-01,5.20366e-01,9.99997e-01
1.095480033e+00,2.81688e-01,6.31833e-01,8.40532e-01,5.27124e-01,9.99995e-01
1.100957433e+00,2.78331e-01,8.00429e-01,6.46434e-01,5.33833e-01,9.99991e-01
1.106462220e+00,1.71482e-01,9.11807e-01,3.44677e-01,5.40493e-01,9.99983e-01
1.111994531e+00,5.95800e-02,9.66307e-01,1.11979e-01,5.47102e-01,9.99966e-01
1.117554504e+00,1.80079e-02,9.91637e-01,3.26833e-02,5.53658e-01,9.99952e-01
1.123142276e+00,5.35148e-02,9.99445e-01,9.55462e-02,5.60162e-01,9.99943e-01
1.128757988e+00,1.10544e-01,9.99999e-01,1.95108e-01,5.66611e-01,9.99938e-01
1.134401778e+00,4.87157e-02,9.99999e-01,8.50236e-02,5.73005e-01,9.99931e-01
1.140073787e+00,2.08824e-01,9.99999e-01,3.60469e-01,5.79342e-01,9.99944e-01
1.145774156e+00,8.01195e-02,9.99999e-01,1.36817e-01,5.85622e-01,9.99953e-01
1.151503026e+00,6.58521e-02,9.99999e-01,1.11270e-01,5.91845e-01,9.99959e-01
1.157260541e+00,8.32776e-02,9.99999e-01,1.39262e-01,5.98008e-01,9.99969e-01
1.163046844e+00,1.38287e-01,9.99999e-01,2.28914e-01,6.04113e-01,9.99980e-01
1.168862078e+00,2.12072e-01,9.99999e-01,3.47573e-01,6.10157e-01,9.99989e-01
1.174706389e+00,3.20305e-01,9.99999e-01,5.19859e-01,6.16140e-01,9.99994e-01
1.180579921e+00,4.16515e-01,9.99999e-01,6.69574e-01,6.22062e-01,9.99996e-01
1.186482820e+00,4.99792e-01,9.99981e-01,7.95958e-01,6.27922e-01,9.99996e-01
1.192415234e+00,5.31743e-01,9.57328e-01,8.75042e-01,6.33721e-01,9.99997e-01
1.198377311e+00,2.98383e-01,5.12334e-01,8.93796e-01,6.39456e-01,9.99997e-01
1.204369197e+00,1.68054e-33,2.77022e-33,8.99452e-01,6.45129e-01,9.99997e-01
1.210391043e+00,1.97731e-136,3.21533e-136,9.03420e-01,6.50738e-01,9.99998e-01
1.216442998e+00,5.05237e-118,8.12221e-118,9.17097e-01,6.56285e-01,9.99998e-01
1.222525213e+00,3.06867e-116,4.80088e-116,9.34772e-01,6.61767e-01,9.99999e-01
1.228637839e+00,1.29525e-89,2.00343e-89,9.54251e-01,6.67185e-01,9.99999e-01
1.234781029e+00,1.22983e-55,1.85629e-55,9.65798e-01,6.72540e-01,9.99999e-01
1.240954934e+00,7.64045e-37,1.14234e-36,9.78250e-01,6.77830e-01,9.99999e-01
1.247159708e+00,1.36601e-17,2.02013e-17,9.83008e-01,6.83057e-01,9.99999e-01
1.253395507e+00,5.47030e-12,8.03257e-12,9.84918e-01,6.88219e-01,9.99999e-01
1.259662485e+00,1.72168e-07,2.50883e-07,9.85806e-01,6.93317e-01,9.99999e-01
1.265960797e+00,2.64909e-04,3.84447e-04,9.77283e-01,6.98351e-01,9.99999e-01
1.272290601e+00,1.28209e-02,1.86977e-02,9.66732e-01,7.03322e-01,9.99998e-01
1.278652054e+00,1.56049e-02,2.30461e-02,9.31108e-01,7.08228e-01,9.99998e-01
1.285045314e+00,1.13695e-05,1.68151e-05,8.94109e-01,7.13070e-01,9.99997e-01
1.291470541e+00,5.41398e-16,8.50412e-16,7.98575e-01,7.17850e-01,9.99995e-01
1.297927893e+00,7.38914e-07,1.16838e-06,7.46639e-01,7.22565e-01,9.99991e-01
1.304417533e+00,5.69602e-04,1.03887e-03,6.87146e-01,7.27218e-01,9.99985e-01
1.310939621e+00,1.63977e-04,2.85645e-04,6.52120e-01,7.31808e-01,9.99975e-01
1.317494319e+00,2.58389e-46,4.52531e-46,6.27951e-01,7.36335e-01,9.99958e-01
1.324081790e+00,2.32842e-30,4.30988e-30,5.05244e-01,7.40800e-01,9.99932e-01
1.330702199e+00,2.36010e-18,7.36647e-18,1.35953e-01,7.45204e-01,9.99886e-01
1.337355710e+00,2.59921e-18,2.81403e-16,2.41696e-03,7.49545e-01,9.99783e-01
1.344042489e+00,1.63231e-19,1.59548e-16,4.08295e-05,7.53825e-01,9.99536e-01
1.350762701e+00,2.39230e-30,3.45572e-18,7.76638e-14,7.58045e-01,9.99259e-01
1.357516515e+00,2.48959e-29,5.75981e-11,2.24507e-20,7.62204e-01,9.99083e-01
1.364304097e+00,3.06098e-19,4.39882e-08,1.10243e-12,7.66303e-01,9.99017e-01
1.371125618e+00,2.22670e-11,1.81143e-04,4.55853e-08,7.70343e-01,9.99009e-01
1.377981246e+00,2.19219e-10,5.64568e-04,1.50199e-07,7.74323e-01,9.98936e-01
1.384871152e+00,1.87774e-12,1.26510e-02,9.19800e-11,7.78245e-01,9.98947e-01
1.391795508e+00,3.35919e-14,1.78704e-02,8.63618e-13,7.82109e-01,9.99098e-01
1.398754485e+00,3.74828e-11,7.81629e-02,4.25070e-10,7.85915e-01,9.99246e-01
1.405748258e+00,8.74609e-11,1.56647e-01,5.04174e-10,7.89663e-01,9.99324e-01
1.412776999e+00,2.29840e-10,3.06279e-01,6.54227e-10,7.93355e-01,9.99457e-01
1.419840884e+00,4.23624e-10,2.96058e-01,1.20370e-09,7.96991e-01,9.99594e-01
1.426940089e+00,1.42230e-07,9.86432e-03,6.59528e-07,8.00571e-01,9.99748e-01
1.434074789e+00,0.00000e+00,0.00000e+00,6.57469e-06,8.04096e-01,9.99843e-01
1.441245163e+00,0.00000e+00,0.00000e+00,5.69527e-05,8.07567e-01,9.99877e-01
1.448451389e+00,0.00000e+00,0.00000e+00,1.25598e-03,8.10983e-01,9.99898e-01
1.455693646e+00,0.00000e+00,0.00000e+00,1.03653e-02,8.14346e-01,9.99916e-01
1.462972114e+00,0.00000e+00,0.00000e+00,1.56017e-02,8.17656e-01,9.99928e-01
1.470286975e+00,1.29879e-227,3.29489e-226,8.25931e-03,8.20914e-01,9.99935e-01
