#,Wave/freq,Total,CO2,H2O,Rayleigh,CIA
4.000000000e-01,3.38037e-06,9.99999e-01,9.99974e-01,3.38046e-06,9.99999e-01
4.020000000e-01,4.33654e-06,9.99999e-01,9.99984e-01,4.33661e-06,9.99999e-01
4.040100000e-01,5.53448e-06,9.99999e-01,9.99993e-01,5.53452e-06,9.99999e-01
4.060300500e-01,7.02937e-06,9.99999e-01,9.99998e-01,7.02938e-06,9.99999e-01
4.080602003e-01,8.88593e-06,9.99999e-01,9.99999e-01,8.88594e-06,9.99999e-01
4.101005013e-01,1.11810e-05,9.99999e-01,9.99999e-01,1.11810e-05,9.99999e-01
4.121510038e-01,1.40050e-05,9.99999e-01,9.99998e-01,1.40050e-05,9.99999e-01
4.142117588e-01,1.74644e-05,9.99999e-01,9.99992e-01,1.74645e-05,9.99999e-01
4.162828176e-01,2.16832e-05,9.99999e-01,9.99969e-01,2.16838e-05,9.99999e-01
4.183642317e-01,2.68072e-05,9.99999e-01,9.99981e-01,2.68076e-05,9.99999e-01
4.204560528e-01,3.30033e-05,9.99999e-01,9.99988e-01,3.30036e-05,9.99999e-01
4.225583331e-01,4.04650e-05,9.99999e-01,9.99995e-01,4.04652e-05,9.99999e-01
4.246711247e-01,4.94141e-05,9.99999e-01,9.99996e-01,4.94143e-05,9.99999e-01
4.267944804e-01,6.01046e-05,9.99999e-01,9.99994e-01,6.01048e-05,9.99999e-01
4.289284528e-01,7.28257e-05,9.99999e-01,9.99995e-01,7.28260e-05,9.99999e-01
4.310730950e-01,8.79055e-05,9.99999e-01,9.99997e-01,8.79056e-05,9.99999e-01
4.332284605e-01,1.05714e-04,9.99999e-01,9.99999e-01,1.05714e-04,9.99999e-01
4.353946028e-01,1.26668e-04,9.99999e-01,9.99999e-01,1.26668e-04,9.99999e-01
4.375715758e-01,1.51233e-04,9.99999e-01,9.99996e-01,1.51233e-04,9.99999e-01
4.397594337e-01,1.79927e-04,9.99999e-01,9.99972e-01,1.79932e-04,9.99999e-01
4.419582309e-01,2.13314e-04,9.99999e-01,9.99861e-01,2.13344e-04,9.99999e-01
4.441680220e-01,2.52083e-04,9.99999e-01,9.99893e-01,2.52110e-04,9.99999e-01
4.463888621e-01,2.96906e-04,9.99999e-01,9.99888e-01,2.96939e-04,9.99999e-01
4.486208064e-01,3.48587e-04,9.99999e-01,9.99931e-01,3.48611e-04,9.99999e-01
4.508639105e-01,4.07966e-04,9.99999e-01,9.99967e-01,4.07979e-04,9.99999e-01
4.531182300e-01,4.75971e-04,9.99999e-01,9.99986e-01,4.75977e-04,9.99999e-01
4.553838212e-01,5.53616e-04,9.99999e-01,9.99990e-01,5.53621e-04,9.99999e-01
4.576607403e-01,6.42007e-04,9.99999e-01,9.99995e-01,6.42010e-04,9.99999e-01
4.599490440e-01,7.42334e-04,9.99999e-01,9.99996e-01,7.42336e-04,9.99999e-01
4.622487892e-01,8.55882e-04,9.99999e-01,9.99999e-01,8.55882e-04,9.99999e-01
4.645600332e-01,9.84024e-04,9.99999e-01,9.99997e-01,9.84026e-04,9.99999e-01
4.668828333e-01,1.12820e-03,9.99999e-01,9.99966e-01,1.12824e-03,9.99999e-01
4.692172475e-01,1.29001e-03,9.99999e-01,9.99930e-01,1.29010e-03,9.99999e-01
4.715633337e-01,1.47122e-03,9.99999e-01,9.99954e-01,1.47128e-03,9.99999e-01
4.739211504e-01,1.67349e-03,9.99999e-01,9.99956e-01,1.67356e-03,9.99999e-01
4.762907561e-01,1.89877e-03,9.99999e-01,9.99977e-01,1.89881e-03,9.99999e-01
4.786722099e-01,2.14899e-03,9.99999e-01,9.99990e-01,2.14901e-03,9.99999e-01
4.810655710e-01,2.42623e-03,9.99999e-01,9.99996e-01,2.42624e-03,9.99999e-01
4.834708988e-01,2.73260e-03,9.99999e-01,9.99972e-01,2.73267e-03,9.99999e-01
4.858882533e-01,3.07043e-03,9.99999e-01,9.99950e-01,3.07059e-03,9.99999e-01
4.883176946e-01,3.44221e-03,9.99999e-01,9.99958e-01,3.44235e-03,9.99999e-01
4.907592831e-01,3.85028e-03,9.99999e-01,9.99962e-01,3.85042e-03,9.99999e-01
4.932130795e-01,4.29723e-03,9.99999e-01,9.99973e-01,4.29734e-03,9.99999e-01
4.956791449e-01,4.78569e-03,9.99999e-01,9.99985e-01,4.78575e-03,9.99999e-01
4.981575406e-01,5.31798e-03,9.99999e-01,9.99929e-01,5.31835e-03,9.99999e-01
5.006483283e-01,5.89684e-03,9.99999e-01,9.99816e-01,5.89792e-03,9.99999e-01
5.031515699e-01,6.52129e-03,9.99999e-01,9.99080e-01,6.52729e-03,9.99999e-01
5.056673278e-01,7.20589e-03,9.99999e-01,9.99516e-01,7.20937e-03,9.99999e-01
5.081956644e-01,7.94227e-03,9.99999e-01,9.99390e-01,7.94711e-03,9.99999e-01
5.107366428e-01,8.73990e-03,9.99999e-01,9.99588e-01,8.74350e-03,9.99999e-01
5.132903260e-01,9.59931e-03,9.99999e-01,9.99765e-01,9.60156e-03,9.99999e-01
5.158567776e-01,1.05233e-02,9.99999e-01,9.99900e-01,1.05244e-02,9.99999e-01
5.184360615e-01,1.15145e-02,9.99999e-01,9.99959e-01,1.15150e-02,9.99999e-01
5.210282418e-01,1.25762e-02,9.99999e-01,9.99984e-01,1.25764e-02,9.99999e-01
5.236333830e-01,1.37110e-02,9.99999e-01,9.99939e-01,1.37118e-02,9.99999e-01
5.262515499e-01,1.49237e-02,9.99999e-01,9.99962e-01,1.49242e-02,9.99999e-01
5.288828077e-01,1.62161e-02,9.99999e-01,9.99965e-01,1.62167e-02,9.99999e-01
5.315272217e-01,1.75917e-02,9.99999e-01,9.99969e-01,1.75922e-02,9.99999e-01
5.341848578e-01,1.90533e-02,9.99999e-01,9.99979e-01,1.90537e-02,9.99999e-01
5.368557821e-01,2.06027e-02,9.99999e-01,9.99929e-01,2.06041e-02,9.99999e-01
5.395400610e-01,2.22406e-02,9.99999e-01,9.99745e-01,2.22463e-02,9.99999e-01
5.422377613e-01,2.39752e-02,9.99999e-01,9.99676e-01,2.39830e-02,9.99999e-01
5.449489501e-01,2.58091e-02,9.99999e-01,9.99696e-01,2.58169e-02,9.99999e-01
5.476736949e-01,2.77433e-02,9.99999e-01,9.99733e-01,2.77507e-02,9.99999e-01
5.504120634e-01,2.97809e-02,9.99999e-01,9.99806e-01,2.97867e-02,9.99999e-01
5.531641237e-01,3.19244e-02,9.99999e-01,9.99902e-01,3.19275e-02,9.99999e-01
5.559299443e-01,3.41736e-02,9.99999e-01,9.99952e-01,3.41752e-02,9.99999e-01
5.587095940e-01,3.65309e-02,9.99999e-01,9.99969e-01,3.65320e-02,9.99999e-01
5.615031420e-01,3.89987e-02,9.99999e-01,9.99966e-01,3.90000e-02,9.99999e-01
5.643106577e-01,4.15794e-02,9.99999e-01,9.99961e-01,4.15809e-02,9.99999e-01
5.671322110e-01,4.42562e-02,9.99999e-01,9.99537e-01,4.42766e-02,9.99999e-01
5.699678720e-01,4.70661e-02,9.99999e-01,9.99521e-01,4.70886e-02,9.99999e-01
5.728177114e-01,4.99932e-02,9.99999e-01,9.99496e-01,5.00183e-02,9.99999e-01
5.756818000e-01,5.30426e-02,9.99999e-01,9.99538e-01,5.30670e-02,9.99999e-01
5.785602090e-01,5.62132e-02,9.99999e-01,9.99598e-01,5.62357e-02,9.99999e-01
5.814530100e-01,5.95014e-02,9.99999e-01,9.99596e-01,5.95255e-02,9.99999e-01
5.843602750e-01,6.29064e-02,9.99999e-01,9.99514e-01,6.29369e-02,9.99999e-01
5.872820764e-01,6.61934e-02,9.99999e-01,9.95829e-01,6.64707e-02,9.99999e-01
5.902184868e-01,6.97760e-02,9.99999e-01,9.94993e-01,7.01271e-02,9.99999e-01
5.931695792e-01,7.36442e-02,9.99999e-01,9.96450e-01,7.39065e-02,9.99999e-01
5.961354271e-01,7.75068e-02,9.99999e-01,9.96118e-01,7.78088e-02,9.99999e-01
5.991161043e-01,8.16026e-02,9.99999e-01,9.97171e-01,8.18340e-02,9.99999e-01
6.021116848e-01,8.58438e-02,9.99999e-01,9.98396e-01,8.59817e-02,9.99999e-01
6.051222432e-01,9.01782e-02,9.99999e-01,9.99188e-01,9.02514e-02,9.99999e-01
6.081478544e-01,9.46094e-02,9.99999e-01,9.99649e-01,9.46426e-02,9.99999e-01
6.111885937e-01,9.91396e-02,9.99999e-01,9.99851e-01,9.91543e-02,9.99999e-01
6.142445367e-01,1.03779e-01,9.99999e-01,9.99933e-01,1.03785e-01,9.99999e-01
6.173157594e-01,1.08531e-01,9.99999e-01,9.99963e-01,1.08535e-01,9.99999e-01
6.204023382e-01,1.13398e-01,9.99999e-01,9.99968e-01,1.13402e-01,9.99999e-01
6.235043498e-01,1.18368e-01,9.99999e-01,9.99860e-01,1.18384e-01,9.99999e-01
6.266218716e-01,1.23391e-01,9.99999e-01,9.99276e-01,1.23481e-01,9.99999e-01
6.297549810e-01,1.28655e-01,9.99999e-01,9.99734e-01,1.28689e-01,9.99999e-01
6.329037559e-01,1.33938e-01,9.99999e-01,9.99477e-01,1.34008e-01,9.99999e-01
6.360682746e-01,1.39373e-01,9.99999e-01,9.99552e-01,1.39435e-01,9.99999e-01
6.392486160e-01,1.44884e-01,9.99999e-01,9.99421e-01,1.44968e-01,9.99999e-01
6.424448591e-01,1.50488e-01,9.99999e-01,9.99219e-01,1.50605e-01,9.99999e-01
6.456570834e-01,1.55778e-01,9.99999e-01,9.96381e-01,1.56343e-01,9.99999e-01
6.488853688e-01,1.61755e-01,9.99999e-01,9.97379e-01,1.62180e-01,9.99999e-01
6.521297956e-01,1.67665e-01,9.99999e-01,9.97328e-01,1.68114e-01,9.99999e-01
6.553904446e-01,1.73675e-01,9.99999e-01,9.97328e-01,1.74140e-01,9.99999e-01
6.586673968e-01,1.79847e-01,9.99999e-01,9.97721e-01,1.80257e-01,9.99999e-01
6.619607338e-01,1.86226e-01,9.99999e-01,9.98730e-01,1.86462e-01,9.99999e-01
6.652705375e-01,1.92605e-01,9.99999e-01,9.99237e-01,1.92752e-01,9.99999e-01
6.685968902e-01,1.99059e-01,9.99999e-01,9.99676e-01,1.99123e-01,9.99999e-01
6.719398746e-01,2.05539e-01,9.99999e-01,9.99835e-01,2.05573e-01,9.99999e-01
6.752995740e-01,2.12080e-01,9.99999e-01,9.99912e-01,2.12098e-01,9.99999e-01
6.786760719e-01,2.18667e-01,9.99999e-01,9.99869e-01,2.18695e-01,9.99999e-01
6.820694522e-01,2.25311e-01,9.99999e-01,9.99776e-01,2.25361e-01,9.99999e-01
6.854797995e-01,2.32026e-01,9.99999e-01,9.99714e-01,2.32092e-01,9.99999e-01
6.889071985e-01,2.38719e-01,9.99999e-01,9.99299e-01,2.38886e-01,9.99999e-01
6.923517345e-01,2.42969e-01,9.99999e-01,9.88728e-01,2.45738e-01,9.99999e-01
6.958134932e-01,2.51192e-01,9.99999e-01,9.94245e-01,2.52646e-01,9.99999e-01
6.992925606e-01,2.58157e-01,9.99999e-01,9.94420e-01,2.59606e-01,9.99999e-01
7.027890234e-01,2.64793e-01,9.99999e-01,9.93169e-01,2.66614e-01,9.99999e-01
7.063029686e-01,2.72094e-01,9.99999e-01,9.94249e-01,2.73668e-01,9.99999e-01
7.098344834e-01,2.79214e-01,9.99999e-01,9.94482e-01,2.80763e-01,9.99999e-01
7.133836558e-01,2.85755e-01,9.99999e-01,9.92560e-01,2.87896e-01,9.99999e-01
7.169505741e-01,2.77948e-01,9.99999e-01,9.41988e-01,2.95065e-01,9.99998e-01
7.205353270e-01,2.93714e-01,9.99999e-01,9.71708e-01,3.02265e-01,9.99998e-01
7.241380036e-01,2.98238e-01,9.99999e-01,9.63633e-01,3.09494e-01,9.99998e-01
7.277586936e-01,3.06344e-01,9.99999e-01,9.67157e-01,3.16747e-01,9.99998e-01
7.313974871e-01,3.12789e-01,9.99999e-01,9.65332e-01,3.24022e-01,9.99999e-01
7.350544745e-01,3.24983e-01,9.99999e-01,9.80885e-01,3.31316e-01,9.99999e-01
7.387297469e-01,3.33854e-01,9.99999e-01,9.85912e-01,3.38625e-01,9.99999e-01
7.424233956e-01,3.43559e-01,9.99999e-01,9.93100e-01,3.45946e-01,9.99999e-01
7.461355126e-01,3.51795e-01,9.99999e-01,9.95807e-01,3.53275e-01,9.99999e-01
7.498661902e-01,3.59909e-01,9.99999e-01,9.98051e-01,3.60611e-01,9.99999e-01
7.536155211e-01,3.67597e-01,9.99999e-01,9.99041e-01,3.67950e-01,9.99999e-01
7.573835987e-01,3.75104e-01,9.99999e-01,9.99506e-01,3.75289e-01,9.99999e-01
7.611705167e-01,3.82507e-01,9.99999e-01,9.99693e-01,3.82625e-01,9.99999e-01
7.649763693e-01,3.89880e-01,9.99999e-01,9.99807e-01,3.89955e-01,9.99999e-01
7.688012511e-01,3.97223e-01,9.99999e-01,9.99865e-01,3.97276e-01,9.99999e-01
7.726452574e-01,4.04542e-01,9.99999e-01,9.99889e-01,4.04587e-01,9.99999e-01
7.765084837e-01,4.11818e-01,9.99999e-01,9.99841e-01,4.11883e-01,9.99999e-01
7.803910261e-01,4.01417e-01,9.58292e-01,9.99315e-01,4.19163e-01,9.99999e-01
7.842929812e-01,3.54827e-01,8.33978e-01,9.97610e-01,4.26424e-01,9.99999e-01
7.882144461e-01,3.55009e-01,8.22446e-01,9.95124e-01,4.33664e-01,9.99999e-01
7.921555184e-01,3.92066e-01,8.91585e-01,9.97337e-01,4.40880e-01,9.99999e-01
7.961162960e-01,4.13196e-01,9.26525e-01,9.95244e-01,4.48070e-01,9.99999e-01
8.000968774e-01,4.34371e-01,9.59393e-01,9.94540e-01,4.55232e-01,9.99999e-01
8.040973618e-01,4.50110e-01,9.78838e-01,9.94531e-01,4.62364e-01,9.99999e-01
8.081178486e-01,4.59118e-01,9.90191e-01,9.87632e-01,4.69463e-01,9.99999e-01
8.121584379e-01,4.51120e-01,9.96991e-01,9.49504e-01,4.76527e-01,9.99998e-01
8.162192301e-01,4.54686e-01,9.99334e-01,9.40909e-01,4.83556e-01,9.99998e-01
8.203003262e-01,4.75640e-01,9.99990e-01,9.69621e-01,4.90546e-01,9.99998e-01
8.244018279e-01,4.77014e-01,9.99999e-01,9.58831e-01,4.97496e-01,9.99998e-01
8.285238370e-01,4.86293e-01,9.99999e-01,9.64093e-01,5.04404e-01,9.99998e-01
8.326664562e-01,4.92789e-01,9.99999e-01,9.63855e-01,5.11269e-01,9.99998e-01
8.368297885e-01,5.04670e-01,9.99999e-01,9.74099e-01,5.18089e-01,9.99999e-01
8.410139374e-01,5.16749e-01,9.99999e-01,9.84540e-01,5.24862e-01,9.99999e-01
8.452190071e-01,5.27549e-01,9.99999e-01,9.92401e-01,5.31588e-01,9.99999e-01
8.494451021e-01,5.35880e-01,9.99999e-01,9.95570e-01,5.38264e-01,9.99999e-01
8.536923276e-01,5.43467e-01,9.99999e-01,9.97386e-01,5.44890e-01,9.99999e-01
8.579607893e-01,5.50575e-01,9.99999e-01,9.98385e-01,5.51465e-01,9.99999e-01
8.622505932e-01,5.57415e-01,9.99999e-01,9.98976e-01,5.57986e-01,9.99999e-01
8.665618462e-01,5.15365e-01,9.13586e-01,9.99364e-01,5.64454e-01,9.99999e-01
8.708946554e-01,3.59556e-01,6.30283e-01,9.99270e-01,5.70866e-01,9.99999e-01
8.752491287e-01,3.97568e-01,6.89408e-01,9.99025e-01,5.77222e-01,9.99999e-01
8.796253743e-01,4.74843e-01,8.14817e-01,9.98646e-01,5.83522e-01,9.99999e-01
8.840235012e-01,5.29424e-01,8.99051e-01,9.98455e-01,5.89764e-01,9.99999e-01
8.884436187e-01,5.68325e-01,9.59078e-01,9.94272e-01,5.95947e-01,9.99999e-01
8.928858368e-01,5.57678e-01,9.83181e-01,9.41940e-01,6.02071e-01,9.99998e-01
8.973502660e-01,5.45429e-01,9.95913e-01,9.00477e-01,6.08136e-01,9.99998e-01
9.018370173e-01,5.82140e-01,9.99550e-01,9.48307e-01,6.14140e-01,9.99998e-01
9.063462024e-01,5.84565e-01,9.88123e-01,9.53627e-01,6.20082e-01,9.99997e-01
9.108779334e-01,5.66333e-01,9.73530e-01,9.28972e-01,6.25963e-01,9.99997e-01
9.154323231e-01,5.77628e-01,9.93791e-01,9.19850e-01,6.31782e-01,9.99997e-01
9.200094847e-01,5.47049e-01,9.12221e-01,9.36827e-01,6.37539e-01,9.99996e-01
9.246095321e-01,5.09821e-01,8.76883e-01,9.01316e-01,6.43233e-01,9.99994e-01
9.292325798e-01,2.99825e-01,9.01359e-01,5.06096e-01,6.48864e-01,9.99989e-01
9.338787427e-01,2.51499e-01,9.05292e-01,4.19453e-01,6.54431e-01,9.99986e-01
9.385481364e-01,4.34115e-01,9.29398e-01,7.04303e-01,6.59935e-01,9.99986e-01
9.432408771e-01,3.91301e-01,9.56255e-01,6.13221e-01,6.65375e-01,9.99985e-01
9.479570815e-01,3.35629e-01,9.77267e-01,5.11264e-01,6.70751e-01,9.99986e-01
9.526968669e-01,4.04554e-01,9.89000e-01,6.04382e-01,6.76063e-01,9.99989e-01
9.574603512e-01,4.24824e-01,9.95286e-01,6.26262e-01,6.81311e-01,9.99992e-01
9.622476530e-01,4.68454e-01,9.98529e-01,6.83322e-01,6.86495e-01,9.99994e-01
9.670588912e-01,5.54728e-01,9.99559e-01,8.02410e-01,6.91614e-01,9.99996e-01
9.718941857e-01,6.06702e-01,9.99969e-01,8.70885e-01,6.96670e-01,9.99997e-01
9.767536566e-01,6.25554e-01,9.99999e-01,8.91533e-01,7.01661e-01,9.99998e-01
9.816374249e-01,6.49073e-01,9.99999e-01,9.18601e-01,7.06589e-01,9.99998e-01
9.865456120e-01,6.74702e-01,9.99999e-01,9.48343e-01,7.11453e-01,9.99999e-01
9.914783401e-01,6.93139e-01,9.99999e-01,9.67728e-01,7.16253e-01,9.99999e-01
9.964357318e-01,7.08230e-01,9.99999e-01,9.82301e-01,7.20990e-01,9.99999e-01
1.001417910e+00,7.17945e-01,9.99999e-01,9.89361e-01,7.25664e-01,9.99999e-01
1.006425000e+00,7.25828e-01,9.99999e-01,9.93909e-01,7.30275e-01,9.99999e-01
1.011457125e+00,7.32050e-01,9.99999e-01,9.96225e-01,7.34823e-01,9.99999e-01
1.016514411e+00,7.37412e-01,9.99999e-01,9.97432e-01,7.39309e-01,9.99999e-01
1.021596983e+00,7.42158e-01,9.99928e-01,9.97952e-01,7.43733e-01,9.99999e-01
1.026704968e+00,7.43414e-01,9.95329e-01,9.98402e-01,7.48095e-01,9.99999e-01
1.031838492e+00,7.10877e-01,9.45872e-01,9.98840e-01,7.52396e-01,9.99999e-01
1.036997685e+00,9.50078e-02,1.25634e-01,9.99309e-01,7.56636e-01,9.99999e-01
1.042182673e+00,6.07916e-02,7.99605e-02,9.99174e-01,7.60816e-01,9.99999e-01
1.047393587e+00,7.85493e-02,1.02786e-01,9.98906e-01,7.64935e-01,9.99999e-01
1.052630555e+00,1.16047e-03,1.51069e-03,9.98498e-01,7.68994e-01,9.99999e-01
1.057893707e+00,3.32248e-03,4.30518e-03,9.97490e-01,7.72995e-01,9.99999e-01
1.063183176e+00,1.36529e-02,1.76229e-02,9.95876e-01,7.76936e-01,9.99999e-01
1.068499092e+00,4.48629e-02,5.77810e-02,9.93113e-01,7.80819e-01,9.99999e-01
1.073841587e+00,1.28789e-01,1.65251e-01,9.91929e-01,7.84644e-01,9.99999e-01
1.079210795e+00,2.49710e-01,3.19674e-01,9.89702e-01,7.88412e-01,9.99999e-01
1.084606849e+00,4.16035e-01,5.33072e-01,9.84424e-01,7.92123e-01,9.99999e-01
1.090029883e+00,5.61176e-01,7.20837e-01,9.77561e-01,7.95778e-01,9.99998e-01
1.095480033e+00,6.40219e-01,8.51197e-01,9.40153e-01,7.99376e-01,9.99998e-01
1.100957433e+00,6.35822e-01,9.25242e-01,8.55031e-01,8.02920e-01,9.99996e-01
1.106462220e+00,5.25998e-01,9.68426e-01,6.72603e-01,8.06409e-01,9.99993e-01
1.111994531e+00,3.51098e-01,9.88176e-01,4.38285e-01,8.09843e-01,9.99987e-01
1.117554504e+00,2.15713e-01,9.97116e-01,2.65862e-01,8.13224e-01,9.99983e-01
1.123142276e+00,3.14545e-01,9.99811e-01,3.85248e-01,8.16552e-01,9.99980e-01
1.128757988e+00,4.39443e-01,9.99999e-01,5.36030e-01,8.19827e-01,9.99978e-01
1.134401778e+00,2.37578e-01,9.99999e-01,2.88661e-01,8.23050e-01,9.99975e-01
1.140073787e+00,5.66993e-01,9.99999e-01,6.86259e-01,8.26222e-01,9.99980e-01
1.145774156e+00,3.82708e-01,9.99999e-01,4.61465e-01,8.29344e-01,9.99983e-01
1.151503026e+00,3.52677e-01,9.99999e-01,4.23685e-01,8.32415e-01,9.99985e-01
1.157260541e+00,4.03702e-01,9.99999e-01,4.83228e-01,8.35436e-01,9.99988e-01
1.163046844e+00,4.89699e-01,9.99999e-01,5.84085e-01,8.38408e-01,9.99992e-01
1.168862078e+00,5.77992e-01,9.99999e-01,6.86997e-01,8.41332e-01,9.99996e-01
1.174706389e+00,6.69525e-01,9.99999e-01,7.93081e-01,8.44208e-01,9.99997e-01
1.180579921e+00,7.35480e-01,9.99999e-01,8.68298e-01,8.47037e-01,9.99998e-01
1.186482820e+00,7.84534e-01,9.99988e-01,9.23187e-01,8.49819e-01,9.99998e-01
1.192415234e+00,8.00341e-01,9.83403e-01,9.54382e-01,8.52555e-01,9.99998e-01
1.198377311e+00,4.59340e-01,5.55047e-01,9.61349e-01,8.55246e-01,9.99998e-01
1.204369197e+00,3.47978e-13,4.14444e-13,9.63431e-01,8.57891e-01,9.99998e-01
1.210391043e+00,3.37713e-49,4.00306e-49,9.65003e-01,8.60493e-01,9.99999e-01
1.216442998e+00,9.30003e-43,1.09797e-42,9.70213e-01,8.63050e-01,9.99999e-01
1.222525213e+00,3.91679e-42,4.58043e-42,9.76712e-01,8.65564e-01,9.99999e-01
1.228637839e+00,1.22437e-32,1.42647e-32,9.83762e-01,8.68036e-01,9.99999e-01
1.234781029e+00,6.26728e-21,7.23783e-21,9.87932e-01,8.70466e-01,9.99999e-01
1.240954934e+00,4.42424e-14,5.09379e-14,9.92346e-01,8.72855e-01,9.99999e-01
1.247159708e+00,1.32402e-07,1.51820e-07,9.94041e-01,8.75202e-01,9.99999e-01
1.253395507e+00,5.73522e-05,6.56144e-05,9.94700e-01,8.77510e-01,9.99999e-01
1.259662485e+00,3.47895e-03,3.97009e-03,9.94954e-01,8.79778e-01,9.99999e-01
1.265960797e+00,3.66307e-02,4.17888e-02,9.91965e-01,8.82006e-01,9.99999e-01
1.272290601e+00,2.23192e-01,2.55327e-01,9.87363e-01,8.84196e-01,9.99999e-01
1.278652054e+00,1.86066e-01,2.14043e-01,9.75039e-01,8.86349e-01,9.99999e-01
1.285045314e+00,2.59238e-03,2.97498e-03,9.55138e-01,8.88463e-01,9.99998e-01
1.291470541e+00,1.91397e-06,2.25971e-06,9.23137e-01,8.90541e-01,9.99998e-01
1.297927893e+00,4.05717e-03,4.80464e-03,8.92504e-01,8.92583e-01,9.99996e-01
1.304417533e+00,6.56318e-02,8.25068e-02,8.74847e-01,8.94588e-01,9.99994e-01
1.310939621e+00,1.08485e-02,1.32230e-02,8.44467e-01,8.96559e-01,9.99990e-01
1.317494319e+00,1.68289e-17,2.06204e-17,8.47269e-01,8.98495e-01,9.99985e-01
1.324081790e+00,5.32570e-09,6.60441e-09,7.83323e-01,9.00396e-01,9.99975e-01
1.330702199e+00,3.20994e-07,5.67426e-07,3.88389e-01,9.02264e-01,9.99960e-01
1.337355710e+00,1.81208e-07,1.00436e-06,8.63299e-02,9.04099e-01,9.99923e-01
1.344042489e+00,2.73984e-08,3.16491e-07,4.06922e-03,9.05901e-01,9.99837e-01
1.350762701e+00,8.14392e-12,3.42195e-07,5.56114e-06,9.07671e-01,9.99740e-01
1.357516515e+00,1.39506e-11,8.22383e-05,3.08752e-08,9.09410e-01,9.99678e-01
1.364304097e+00,7.49385e-08,1.94267e-03,1.75420e-05,9.11117e-01,9.99655e-01
1.371125618e+00,4.36753e-05,3.94021e-02,6.75007e-04,9.12794e-01,9.99652e-01
1.377981246e+00,1.57561e-04,6.81566e-02,1.79208e-03,9.14440e-01,9.99627e-01
1.384871152e+00,8.90015e-06,2.09671e-01,3.49073e-05,9.16057e-01,9.99637e-01
1.391795508e+00,6.55409e-06,2.36337e-01,2.24073e-05,9.17645e-01,9.99692e-01
1.398754485e+00,6.52744e-05,4.09438e-01,1.58635e-04,9.19204e-01,9.99736e-01
1.405748258e+00,7.43153e-05,5.19128e-01,1.38358e-04,9.20735e-01,9.99763e-01
1.412776999e+00,9.45211e-05,6.60724e-01,1.40717e-04,9.22238e-01,9.99809e-01
1.419840884e+00,1.78795e-04,5.86550e-01,2.59650e-04,9.23714e-01,9.99857e-01
1.426940089e+00,5.16243e-04,4.62002e-02,1.63817e-03,9.25163e-01,9.99911e-01
1.434074789e+00,0.00000e+00,0.00000e+00,7.28162e-03,9.26585e-01,9.99944e-01
1.441245163e+00,0.00000e+00,0.00000e+00,2.04359e-02,9.27982e-01,9.99956e-01
1.448451389e+00,0.00000e+00,0.00000e+00,6.49233e-02,9.29353e-01,9.99964e-01
1.455693646e+00,0.00000e+00,0.00000e+00,1.59562e-01,9.30699e-01,9.99970e-01
1.462972114e+00,3.30978e-193,9.50348e-193,2.01622e-01,9.32020e-01,9.99974e-01
1.470286975e+00,4.13875e-81,1.28301e-80,1.55579e-01,9.33317e-01,9.99977e-01
