#,Wave/freq,Total,CO2,H2O,Rayleigh,CIA
4.000000000e-01,1.14357e-23,9.99999e-01,9.99896e-01,1.14368e-23,9.99999e-01
4.020000000e-01,3.25006e-23,9.99999e-01,9.99935e-01,3.25027e-23,9.99999e-01
4.040100000e-01,9.03863e-23,9.99999e-01,9.99972e-01,9.03887e-23,9.99999e-01
4.060300500e-01,2.46339e-22,9.99999e-01,9.99993e-01,2.46340e-22,9.99999e-01
4.080602003e-01,6.58196e-22,9.99999e-01,9.99997e-01,6.58198e-22,9.99999e-01
4.101005013e-01,1.72483e-21,9.99999e-01,9.99999e-01,1.72483e-21,9.99999e-01
4.121510038e-01,4.43476e-21,9.99999e-01,9.99995e-01,4.43478e-21,9.99999e-01
4.142117588e-01,1.11914e-20,9.99999e-01,9.99970e-01,1.11917e-20,9.99999e-01
4.162828176e-01,2.77284e-20,9.99999e-01,9.99871e-01,2.77319e-20,9.99999e-01
4.183642317e-01,6.74912e-20,9.99999e-01,9.99923e-01,6.74963e-20,9.99999e-01
4.204560528e-01,1.61409e-19,9.99999e-01,9.99953e-01,1.61417e-19,9.99999e-01
4.225583331e-01,3.79430e-19,9.99999e-01,9.99982e-01,3.79436e-19,9.99999e-01
4.246711247e-01,8.76981e-19,9.99999e-01,9.99985e-01,8.76994e-19,9.99999e-01
4.267944804e-01,1.99369e-18,9.99999e-01,9.99979e-01,1.99373e-18,9.99999e-01
4.289284528e-01,4.45949e-18,9.99999e-01,9.99983e-01,4.45956e-18,9.99999e-01
4.310730950e-01,9.81768e-18,9.99999e-01,9.99992e-01,9.81775e-18,9.99999e-01
4.332284605e-01,2.12795e-17,9.99999e-01,9.99997e-01,2.12795e-17,9.99999e-01
4.353946028e-01,4.54230e-17,9.99999e-01,9.99998e-01,4.54230e-17,9.99999e-01
4.375715758e-01,9.55167e-17,9.99999e-01,9.99986e-01,9.55180e-17,9.99999e-01
4.397594337e-01,1.97910e-16,9.99999e-01,9.99885e-01,1.97933e-16,9.99999e-01
4.419582309e-01,4.04063e-16,9.99999e-01,9.99421e-01,4.04297e-16,9.99999e-01
4.441680220e-01,8.13887e-16,9.99999e-01,9.99556e-01,8.14248e-16,9.99999e-01
4.463888621e-01,1.61661e-15,9.99999e-01,9.99535e-01,1.61736e-15,9.99999e-01
4.486208064e-01,3.16843e-15,9.99999e-01,9.99712e-01,3.16934e-15,9.99999e-01
4.508639105e-01,6.12777e-15,9.99999e-01,9.99865e-01,6.12860e-15,9.99999e-01
4.531182300e-01,1.16970e-14,9.99999e-01,9.99946e-01,1.16976e-14,9.99999e-01
4.553838212e-01,2.20430e-14,9.99999e-01,9.99963e-01,2.20438e-14,9.99999e-01
4.576607403e-01,4.10235e-14,9.99999e-01,9.99982e-01,4.10241e-14,9.99999e-01
4.599490440e-01,7.54154e-14,9.99999e-01,9.99987e-01,7.54163e-14,9.99999e-01
4.622487892e-01,1.36983e-13,9.99999e-01,9.99997e-01,1.36983e-13,9.99999e-01
4.645600332e-01,2.45893e-13,9.99999e-01,9.99991e-01,2.45895e-13,9.99999e-01
4.668828333e-01,4.36269e-13,9.99999e-01,9.99862e-01,4.36329e-13,9.99999e-01
4.692172475e-01,7.65301e-13,9.99999e-01,9.99708e-01,7.65524e-13,9.99999e-01
4.715633337e-01,1.32800e-12,9.99999e-01,9.99809e-01,1.32825e-12,9.99999e-01
4.739211504e-01,2.27927e-12,9.99999e-01,9.99818e-01,2.27969e-12,9.99999e-01
4.762907561e-01,3.87075e-12,9.99999e-01,9.99905e-01,3.87111e-12,9.99999e-01
4.786722099e-01,6.50486e-12,9.99999e-01,9.99961e-01,6.50511e-12,9.99999e-01
4.810655710e-01,1.08197e-11,9.99999e-01,9.99987e-01,1.08198e-11,9.99999e-01
4.834708988e-01,1.78144e-11,9.99999e-01,9.99885e-01,1.78165e-11,9.99999e-01
4.858882533e-01,2.90439e-11,9.99999e-01,9.99794e-01,2.90499e-11,9.99999e-01
4.883176946e-01,4.69028e-11,9.99999e-01,9.99826e-01,4.69109e-11,9.99999e-01
4.907592831e-01,7.50281e-11,9.99999e-01,9.99844e-01,7.50398e-11,9.99999e-01
4.932130795e-01,1.18914e-10,9.99999e-01,9.99889e-01,1.18927e-10,9.99999e-01
4.956791449e-01,1.86764e-10,9.99999e-01,9.99941e-01,1.86774e-10,9.99999e-01
4.981575406e-01,2.90640e-10,9.99999e-01,9.99705e-01,2.90725e-10,9.99999e-01
5.006483283e-01,4.48250e-10,9.99999e-01,9.99234e-01,4.48593e-10,9.99999e-01
5.031515699e-01,6.83643e-10,9.99999e-01,9.96155e-01,6.86281e-10,9.99999e-01
5.056673278e-01,1.03902e-09,9.99999e-01,9.97975e-01,1.04113e-09,9.99999e-01
5.081956644e-01,1.56250e-09,9.99999e-01,9.97447e-01,1.56650e-09,9.99999e-01
5.107366428e-01,2.33401e-09,9.99999e-01,9.98276e-01,2.33804e-09,9.99999e-01
5.132903260e-01,3.45869e-09,9.99999e-01,9.99016e-01,3.46209e-09,9.99999e-01
5.158567776e-01,5.08484e-09,9.99999e-01,9.99584e-01,5.08695e-09,9.99999e-01
5.184360615e-01,7.41658e-09,9.99999e-01,9.99833e-01,7.41781e-09,9.99999e-01
5.210282418e-01,1.07357e-08,9.99999e-01,9.99937e-01,1.07364e-08,9.99999e-01
5.236333830e-01,1.54227e-08,9.99999e-01,9.99749e-01,1.54265e-08,9.99999e-01
5.262515499e-01,2.20040e-08,9.99999e-01,9.99842e-01,2.20074e-08,9.99999e-01
5.288828077e-01,3.11717e-08,9.99999e-01,9.99855e-01,3.11762e-08,9.99999e-01
5.315272217e-01,4.38565e-08,9.99999e-01,9.99873e-01,4.38620e-08,9.99999e-01
5.341848578e-01,6.12899e-08,9.99999e-01,9.99916e-01,6.12950e-08,9.99999e-01
5.368557821e-01,8.50676e-08,9.99999e-01,9.99706e-01,8.50925e-08,9.99999e-01
5.395400610e-01,1.17242e-07,9.99999e-01,9.98936e-01,1.17366e-07,9.99999e-01
5.422377613e-01,1.60638e-07,9.99999e-01,9.98643e-01,1.60856e-07,9.99999e-01
5.449489501e-01,2.18814e-07,9.99999e-01,9.98729e-01,2.19092e-07,9.99999e-01
5.476736949e-01,2.96265e-07,9.99999e-01,9.98883e-01,2.96596e-07,9.99999e-01
5.504120634e-01,3.98800e-07,9.99999e-01,9.99189e-01,3.99123e-07,9.99999e-01
5.531641237e-01,5.33733e-07,9.99999e-01,9.99591e-01,5.33950e-07,9.99999e-01
5.559299443e-01,7.10089e-07,9.99999e-01,9.99802e-01,7.10229e-07,9.99999e-01
5.587095940e-01,9.39279e-07,9.99999e-01,9.99875e-01,9.39395e-07,9.99999e-01
5.615031420e-01,1.23549e-06,9.99999e-01,9.99861e-01,1.23566e-06,9.99999e-01
5.643106577e-01,1.61633e-06,9.99999e-01,9.99841e-01,1.61659e-06,9.99999e-01
5.671322110e-01,2.09969e-06,9.99999e-01,9.98070e-01,2.10375e-06,9.99999e-01
5.699678720e-01,2.71805e-06,9.99999e-01,9.97995e-01,2.72351e-06,9.99999e-01
5.728177114e-01,3.50052e-06,9.99999e-01,9.97891e-01,3.50791e-06,9.99999e-01
5.756818000e-01,4.48702e-06,9.99999e-01,9.98069e-01,4.49570e-06,9.99999e-01
5.785602090e-01,5.72384e-06,9.99999e-01,9.98319e-01,5.73347e-06,9.99999e-01
5.814530100e-01,7.26469e-06,9.99999e-01,9.98309e-01,7.27700e-06,9.99999e-01
5.843602750e-01,9.17402e-06,9.99999e-01,9.97971e-01,9.19266e-06,9.99999e-01
5.872820764e-01,1.13591e-05,9.99999e-01,9.82696e-01,1.15591e-05,9.99999e-01
5.902184868e-01,1.41681e-05,9.99999e-01,9.79186e-01,1.44692e-05,9.99999e-01
5.931695792e-01,1.77656e-05,9.99999e-01,9.85236e-01,1.80318e-05,9.99999e-01
5.961354271e-01,2.20125e-05,9.99999e-01,9.83841e-01,2.23740e-05,9.99999e-01
5.991161043e-01,2.73175e-05,9.99999e-01,9.88196e-01,2.76438e-05,9.99999e-01
6.021116848e-01,3.37843e-05,9.99999e-01,9.93293e-01,3.40124e-05,9.99999e-01
6.051222432e-01,4.15356e-05,9.99999e-01,9.96602e-01,4.16772e-05,9.99999e-01
6.081478544e-01,5.07900e-05,9.99999e-01,9.98531e-01,5.08647e-05,9.99999e-01
6.111885937e-01,6.17954e-05,9.99999e-01,9.99380e-01,6.18337e-05,9.99999e-01
6.142445367e-01,7.48581e-05,9.99999e-01,9.99722e-01,7.48788e-05,9.99999e-01
6.173157594e-01,9.03200e-05,9.99999e-01,9.99846e-01,9.03339e-05,9.99999e-01
6.204023382e-01,1.08562e-04,9.99999e-01,9.99869e-01,1.08576e-04,9.99999e-01
6.235043498e-01,1.29952e-04,9.99999e-01,9.99419e-01,1.30028e-04,9.99999e-01
6.266218716e-01,1.54695e-04,9.99999e-01,9.96973e-01,1.55165e-04,9.99999e-01
6.297549810e-01,1.84312e-04,9.99999e-01,9.98888e-01,1.84517e-04,9.99999e-01
6.329037559e-01,2.18192e-04,9.99999e-01,9.97810e-01,2.18671e-04,9.99999e-01
6.360682746e-01,2.57795e-04,9.99999e-01,9.98127e-01,2.58279e-04,9.99999e-01
6.392486160e-01,3.03324e-04,9.99999e-01,9.97578e-01,3.04060e-04,9.99999e-01
6.424448591e-01,3.55640e-04,9.99999e-01,9.96737e-01,3.56803e-04,9.99999e-01
6.456570834e-01,4.11096e-04,9.99999e-01,9.84954e-01,4.17376e-04,9.99999e-01
6.488853688e-01,4.81403e-04,9.99999e-01,9.89073e-01,4.86721e-04,9.99999e-01
6.521297956e-01,5.59570e-04,9.99999e-01,9.88871e-01,5.65867e-04,9.99999e-01
6.553904446e-01,6.48619e-04,9.99999e-01,9.88856e-01,6.55928e-04,9.99999e-01
6.586673968e-01,7.50900e-04,9.99999e-01,9.90491e-01,7.58108e-04,9.99999e-01
6.619607338e-01,8.69065e-04,9.99999e-01,9.94689e-01,8.73704e-04,9.99999e-01
6.652705375e-01,1.00090e-03,9.99999e-01,9.96809e-01,1.00411e-03,9.99999e-01
6.685968902e-01,1.14925e-03,9.99999e-01,9.98643e-01,1.15081e-03,9.99999e-01
6.719398746e-01,1.31449e-03,9.99999e-01,9.99313e-01,1.31539e-03,9.99999e-01
6.752995740e-01,1.49900e-03,9.99999e-01,9.99636e-01,1.49955e-03,9.99999e-01
6.786760719e-01,1.70414e-03,9.99999e-01,9.99456e-01,1.70507e-03,9.99999e-01
6.820694522e-01,1.93206e-03,9.99999e-01,9.99075e-01,1.93385e-03,9.99999e-01
6.854797995e-01,2.18526e-03,9.99999e-01,9.98806e-01,2.18787e-03,9.99999e-01
6.889071985e-01,2.46203e-03,9.99999e-01,9.97078e-01,2.46924e-03,9.99999e-01
6.923517345e-01,2.65175e-03,9.99999e-01,9.53819e-01,2.78014e-03,9.99999e-01
6.958134932e-01,3.04845e-03,9.99999e-01,9.76173e-01,3.12286e-03,9.99998e-01
6.992925606e-01,3.41888e-03,9.99999e-01,9.76883e-01,3.49978e-03,9.99998e-01
7.027890234e-01,3.80273e-03,9.99999e-01,9.71723e-01,3.91339e-03,9.99998e-01
7.063029686e-01,4.26201e-03,9.99999e-01,9.76132e-01,4.36622e-03,9.99998e-01
7.098344834e-01,4.74952e-03,9.99999e-01,9.77081e-01,4.86093e-03,9.99998e-01
7.133836558e-01,5.23473e-03,9.99999e-01,9.69352e-01,5.40023e-03,9.99998e-01
7.169505741e-01,4.69103e-03,9.99999e-01,7.83550e-01,5.98691e-03,9.99996e-01
7.205353270e-01,5.88410e-03,9.99999e-01,8.88326e-01,6.62382e-03,9.99996e-01
7.241380036e-01,6.27681e-03,9.99999e-01,8.58208e-01,7.31387e-03,9.99995e-01
7.277586936e-01,7.02265e-03,9.99999e-01,8.71297e-01,8.06001e-03,9.99996e-01
7.313974871e-01,7.65689e-03,9.99999e-01,8.63699e-01,8.86524e-03,9.99997e-01
7.350544745e-01,8.98046e-03,9.99999e-01,9.22720e-01,9.73260e-03,9.99998e-01
7.387297469e-01,1.00509e-02,9.99999e-01,9.42407e-01,1.06651e-02,9.99998e-01
7.424233956e-01,1.13324e-02,9.99999e-01,9.71411e-01,1.16659e-02,9.99999e-01
7.461355126e-01,1.25157e-02,9.99999e-01,9.82548e-01,1.27380e-02,9.99999e-01
7.498661902e-01,1.37715e-02,9.99999e-01,9.91857e-01,1.38845e-02,9.99999e-01
7.536155211e-01,1.50478e-02,9.99999e-01,9.95987e-01,1.51085e-02,9.99999e-01
7.573835987e-01,1.63790e-02,9.99999e-01,9.97933e-01,1.64129e-02,9.99999e-01
7.611705167e-01,1.77779e-02,9.99999e-01,9.98715e-01,1.78008e-02,9.99999e-01
7.649763693e-01,1.92596e-02,9.99999e-01,9.99193e-01,1.92752e-02,9.99999e-01
7.688012511e-01,2.08271e-02,9.99999e-01,9.99437e-01,2.08388e-02,9.99999e-01
7.726452574e-01,2.24843e-02,9.99999e-01,9.99536e-01,2.24947e-02,9.99999e-01
7.765084837e-01,2.42294e-02,9.99999e-01,9.99337e-01,2.42455e-02,9.99999e-01
7.803910261e-01,2.27352e-02,8.73505e-01,9.97137e-01,2.60938e-02,9.99999e-01
7.842929812e-01,1.38564e-02,4.98256e-01,9.90044e-01,2.80424e-02,9.99999e-01
7.882144461e-01,1.42371e-02,4.81491e-01,9.79734e-01,3.00936e-02,9.99999e-01
7.921555184e-01,2.00275e-02,6.27290e-01,9.88892e-01,3.22499e-02,9.99999e-01
7.961162960e-01,2.46612e-02,7.28326e-01,9.80263e-01,3.45135e-02,9.99999e-01
8.000968774e-01,3.03465e-02,8.41528e-01,9.77318e-01,3.68865e-02,9.99999e-01
8.040973618e-01,3.51947e-02,9.14493e-01,9.77294e-01,3.93709e-02,9.99998e-01
8.081178486e-01,3.82511e-02,9.59580e-01,9.49473e-01,4.19685e-02,9.99998e-01
8.121584379e-01,3.56612e-02,9.87448e-01,8.07788e-01,4.46812e-02,9.99996e-01
8.162192301e-01,3.68980e-02,9.97212e-01,7.78612e-01,4.75103e-02,9.99996e-01
8.203003262e-01,4.46213e-02,9.99961e-01,8.84358e-01,5.04574e-02,9.99995e-01
8.244018279e-01,4.53417e-02,9.99999e-01,8.47138e-01,5.35236e-02,9.99995e-01
8.285238370e-01,4.87406e-02,9.99999e-01,8.59474e-01,5.67100e-02,9.99996e-01
8.326664562e-01,5.15484e-02,9.99999e-01,8.58891e-01,6.00175e-02,9.99997e-01
8.368297885e-01,5.68718e-02,9.99999e-01,8.96370e-01,6.34468e-02,9.99998e-01
8.410139374e-01,6.27750e-02,9.99999e-01,9.36961e-01,6.69985e-02,9.99999e-01
8.452190071e-01,6.84511e-02,9.99999e-01,9.68561e-01,7.06730e-02,9.99999e-01
8.494451021e-01,7.30977e-02,9.99999e-01,9.81567e-01,7.44703e-02,9.99999e-01
8.536923276e-01,7.75356e-02,9.99999e-01,9.89091e-01,7.83907e-02,9.99999e-01
8.579607893e-01,8.18776e-02,9.99999e-01,9.93251e-01,8.24338e-02,9.99999e-01
8.622505932e-01,8.62285e-02,9.99999e-01,9.95716e-01,8.65994e-02,9.99999e-01
8.665618462e-01,7.58094e-02,8.36156e-01,9.97340e-01,9.08870e-02,9.99999e-01
8.708946554e-01,1.76485e-02,1.85695e-01,9.96949e-01,9.52958e-02,9.99999e-01
8.752491287e-01,2.35632e-02,2.36920e-01,9.95923e-01,9.98251e-02,9.99999e-01
8.796253743e-01,4.59658e-02,4.42186e-01,9.94343e-01,1.04474e-01,9.99999e-01
8.840235012e-01,7.01527e-02,6.46062e-01,9.93546e-01,1.09241e-01,9.99999e-01
8.884436187e-01,9.37661e-02,8.40470e-01,9.76468e-01,1.14124e-01,9.99998e-01
8.928858368e-01,8.72061e-02,9.31543e-01,7.83444e-01,1.19124e-01,9.99996e-01
8.973502660e-01,7.99722e-02,9.82993e-01,6.53790e-01,1.24236e-01,9.99994e-01
9.018370173e-01,1.04214e-01,9.98115e-01,8.06293e-01,1.29461e-01,9.99993e-01
9.063462024e-01,1.06603e-01,9.52982e-01,8.24077e-01,1.34796e-01,9.99992e-01
9.108779334e-01,9.34783e-02,8.94275e-01,7.40874e-01,1.40239e-01,9.99991e-01
9.154323231e-01,1.01132e-01,9.74309e-01,7.10206e-01,1.45787e-01,9.99990e-01
9.200094847e-01,8.97892e-02,7.38140e-01,7.66462e-01,1.51439e-01,9.99988e-01
9.246095321e-01,6.31915e-02,5.81915e-01,6.69850e-01,1.57192e-01,9.99980e-01
9.292325798e-01,1.14099e-02,6.60732e-01,9.48743e-02,1.63043e-01,9.99957e-01
9.338787427e-01,5.60348e-03,6.66253e-01,4.50788e-02,1.68990e-01,9.99945e-01
9.385481364e-01,3.84450e-02,7.38843e-01,2.81960e-01,1.75030e-01,9.99945e-01
9.432408771e-01,2.87656e-02,8.29605e-01,1.85433e-01,1.81161e-01,9.99938e-01
9.479570815e-01,1.61219e-02,9.08273e-01,9.31992e-02,1.87378e-01,9.99946e-01
9.526968669e-01,2.94140e-02,9.54827e-01,1.57332e-01,1.93680e-01,9.99959e-01
9.574603512e-01,3.35101e-02,9.80404e-01,1.70046e-01,2.00063e-01,9.99969e-01
9.622476530e-01,4.70505e-02,9.93849e-01,2.28907e-01,2.06524e-01,9.99979e-01
9.670588912e-01,8.95901e-02,9.98156e-01,4.21107e-01,2.13060e-01,9.99986e-01
9.718941857e-01,1.24702e-01,9.99872e-01,5.67739e-01,2.19667e-01,9.99991e-01
9.767536566e-01,1.41281e-01,9.99999e-01,6.24191e-01,2.26343e-01,9.99994e-01
9.816374249e-01,1.63978e-01,9.99999e-01,7.03518e-01,2.33084e-01,9.99995e-01
9.865456120e-01,1.92349e-01,9.99999e-01,8.01835e-01,2.39886e-01,9.99997e-01
9.914783401e-01,2.15128e-01,9.99999e-01,8.71859e-01,2.46747e-01,9.99998e-01
9.964357318e-01,2.35405e-01,9.99999e-01,9.28026e-01,2.53662e-01,9.99999e-01
1.001417910e+00,2.49212e-01,9.99999e-01,9.56191e-01,2.60629e-01,9.99999e-01
1.006425000e+00,2.60881e-01,9.99999e-01,9.74727e-01,2.67644e-01,9.99999e-01
1.011457125e+00,2.70385e-01,9.99999e-01,9.84275e-01,2.74704e-01,9.99999e-01
1.016514411e+00,2.78786e-01,9.99999e-01,9.89283e-01,2.81805e-01,9.99999e-01
1.021596983e+00,2.86390e-01,9.99706e-01,9.91446e-01,2.88944e-01,9.99999e-01
1.026704968e+00,2.88522e-01,9.80858e-01,9.93320e-01,2.96118e-01,9.99999e-01
1.031838492e+00,2.61775e-01,8.66932e-01,9.95150e-01,3.03322e-01,9.99999e-01
1.036997685e+00,8.37620e-03,2.70302e-02,9.97111e-01,3.10555e-01,9.99999e-01
1.042182673e+00,1.02382e-04,3.22946e-04,9.96545e-01,3.17811e-01,9.99999e-01
1.047393587e+00,2.93273e-04,9.05449e-04,9.95429e-01,3.25089e-01,9.99999e-01
1.052630555e+00,4.13749e-10,1.24959e-09,9.93725e-01,3.32385e-01,9.99999e-01
1.057893707e+00,1.56439e-09,4.62796e-09,9.89534e-01,3.39696e-01,9.99999e-01
1.063183176e+00,3.39148e-07,9.86246e-07,9.82856e-01,3.47019e-01,9.99999e-01
1.068499092e+00,7.51552e-06,2.15444e-05,9.71505e-01,3.54350e-01,9.99999e-01
1.073841587e+00,3.03354e-04,8.57136e-04,9.66740e-01,3.61686e-01,9.99998e-01
1.079210795e+00,4.45479e-03,1.24536e-02,9.57647e-01,3.69025e-01,9.99998e-01
1.084606849e+00,2.81620e-02,7.89881e-02,9.36595e-01,3.76364e-01,9.99997e-01
1.090029883e+00,9.26236e-02,2.62247e-01,9.10065e-01,3.83699e-01,9.99996e-01
1.095480033e+00,1.57883e-01,5.14813e-01,7.74243e-01,3.91028e-01,9.99993e-01
1.100957433e+00,1.54816e-01,7.23863e-01,5.28393e-01,3.98348e-01,9.99988e-01
1.106462220e+00,7.84747e-02,8.74666e-01,2.17157e-01,4.05656e-01,9.99975e-01
1.111994531e+00,1.80038e-02,9.51456e-01,4.52766e-02,4.12951e-01,9.99950e-01
1.117554504e+00,3.60937e-03,9.87978e-01,8.63935e-03,4.20228e-01,9.99930e-01
1.123142276e+00,1.77598e-02,9.99211e-01,4.15501e-02,4.27486e-01,9.99918e-01
1.128757988e+00,4.33611e-02,9.99999e-01,9.97530e-02,4.34723e-01,9.99910e-01
1.134401778e+00,2.07428e-02,9.99999e-01,4.69409e-02,4.41935e-01,9.99900e-01
1.140073787e+00,1.03916e-01,9.99999e-01,2.31395e-01,4.49121e-01,9.99919e-01
1.145774156e+00,2.92639e-02,9.99999e-01,6.41404e-02,4.56279e-01,9.99931e-01
1.151503026e+00,2.16933e-02,9.99999e-01,4.68154e-02,4.63406e-01,9.99941e-01
1.157260541e+00,2.82468e-02,9.99999e-01,6.00383e-02,4.70500e-01,9.99955e-01
1.163046844e+00,5.85636e-02,9.99999e-01,1.22634e-01,4.77559e-01,9.99971e-01
1.168862078e+00,1.06018e-01,9.99999e-01,2.18785e-01,4.84582e-01,9.99985e-01
1.174706389e+00,1.91126e-01,9.99999e-01,3.88812e-01,4.91566e-01,9.99992e-01
1.180579921e+00,2.78929e-01,9.99999e-01,5.59528e-01,4.98510e-01,9.99994e-01
1.186482820e+00,3.62428e-01,9.99956e-01,7.17119e-01,5.05412e-01,9.99995e-01
1.192415234e+00,3.96311e-01,9.37095e-01,8.22705e-01,5.12270e-01,9.99996e-01
1.198377311e+00,2.17163e-01,4.79465e-01,8.48244e-01,5.19084e-01,9.99996e-01
1.204369197e+00,4.48313e-48,9.33024e-48,8.56572e-01,5.25850e-01,9.99997e-01
1.210391043e+00,5.00787e-199,1.02162e-198,8.61992e-01,5.32569e-01,9.99997e-01
1.216442998e+00,4.98583e-172,1.00019e-171,8.81523e-01,5.39238e-01,9.99998e-01
1.222525213e+00,2.04671e-169,3.94535e-169,9.06161e-01,5.45857e-01,9.99998e-01
1.228637839e+00,2.19929e-130,4.16894e-130,9.33779e-01,5.52423e-01,9.99999e-01
1.234781029e+00,1.53680e-80,2.81069e-80,9.50457e-01,5.58937e-01,9.99999e-01
1.240954934e+00,4.99582e-53,9.00891e-53,9.68349e-01,5.65396e-01,9.99999e-01
1.247159708e+00,9.56739e-25,1.69813e-24,9.75274e-01,5.71800e-01,9.99999e-01
1.253395507e+00,7.34295e-17,1.28954e-16,9.77990e-01,5.78149e-01,9.99999e-01
1.259662485e+00,1.07322e-09,1.86331e-09,9.79040e-01,5.84440e-01,9.99999e-01
1.265960797e+00,1.29215e-05,2.23196e-05,9.66798e-01,5.90673e-01,9.99998e-01
1.272290601e+00,2.84399e-03,4.95404e-03,9.48238e-01,5.96848e-01,9.99998e-01
1.278652054e+00,2.94044e-03,5.18850e-03,9.00124e-01,6.02963e-01,9.99997e-01
1.285045314e+00,2.31870e-07,4.10898e-07,8.26961e-01,6.09019e-01,9.99995e-01
1.291470541e+00,1.23887e-22,2.40554e-22,7.18715e-01,6.15014e-01,9.99993e-01
1.297927893e+00,2.55715e-07,4.99929e-07,6.27286e-01,6.20947e-01,9.99988e-01
1.304417533e+00,2.27350e-05,5.34211e-05,5.80429e-01,6.26820e-01,9.99978e-01
1.310939621e+00,5.32573e-06,1.19575e-05,5.03436e-01,6.32630e-01,9.99963e-01
1.317494319e+00,4.64399e-68,1.05641e-67,5.11092e-01,6.38377e-01,9.99938e-01
1.324081790e+00,1.52634e-30,3.76170e-30,3.75634e-01,6.44062e-01,9.99900e-01
1.330702199e+00,2.95031e-26,1.50539e-25,7.08357e-02,6.49683e-01,9.99834e-01
1.337355710e+00,6.03870e-26,5.38581e-23,2.33661e-04,6.55241e-01,9.99682e-01
1.344042489e+00,1.44251e-27,3.49758e-23,1.87408e-06,6.60736e-01,9.99320e-01
1.350762701e+00,1.62506e-43,6.45210e-26,2.36615e-19,6.66166e-01,9.98915e-01
1.357516515e+00,5.74569e-42,3.99134e-15,7.12885e-29,6.71533e-01,9.98656e-01
1.364304097e+00,3.10831e-27,3.15004e-11,1.13476e-17,6.76835e-01,9.98560e-01
1.371125618e+00,1.11816e-15,4.70330e-06,7.90788e-11,6.82074e-01,9.98548e-01
1.377981246e+00,2.00329e-14,2.22306e-05,2.40021e-10,6.87248e-01,9.98440e-01
1.384871152e+00,3.26263e-17,1.81126e-03,9.81376e-15,6.92359e-01,9.98484e-01
1.391795508e+00,5.99588e-20,3.21616e-03,6.40380e-18,6.97405e-01,9.98715e-01
1.398754485e+00,2.24203e-15,2.43340e-02,7.69922e-14,7.02387e-01,9.98895e-01
1.405748258e+00,6.33006e-15,6.88782e-02,8.18393e-14,7.07305e-01,9.99009e-01
1.412776999e+00,3.58335e-14,1.80229e-01,1.65261e-13,7.12160e-01,9.99204e-01
1.419840884e+00,5.63615e-14,1.83150e-01,2.58830e-13,7.16951e-01,9.99405e-01
1.426940089e+00,4.66879e-10,4.73795e-03,4.29174e-09,7.21679e-01,9.99631e-01
1.434074789e+00,0.00000e+00,0.00000e+00,6.05077e-08,7.26343e-01,9.99770e-01
1.441245163e+00,0.00000e+00,0.00000e+00,1.22524e-06,7.30945e-01,9.99821e-01
1.448451389e+00,0.00000e+00,0.00000e+00,1.08413e-04,7.35484e-01,9.99851e-01
1.455693646e+00,0.00000e+00,0.00000e+00,2.02053e-03,7.39961e-01,9.99877e-01
1.462972114e+00,0.00000e+00,0.00000e+00,2.91221e-03,7.44376e-01,9.99895e-01
1.470286975e+00,0.00000e+00,0.00000e+00,1.27602e-03,7.48729e-01,9.99905e-01
