#,Wave/freq,Total,CO2,H2O,Rayleigh,CIA
4.000000000e-01,3.32531e-14,9.99999e-01,9.99938e-01,3.32551e-14,9.99999e-01
4.020000000e-01,6.14252e-14,9.99999e-01,9.99961e-01,6.14275e-14,9.99999e-01
4.040100000e-01,1.12026e-13,9.99999e-01,9.99983e-01,1.12028e-13,9.99999e-01
4.060300500e-01,2.01898e-13,9.99999e-01,9.99995e-01,2.01899e-13,9.99999e-01
4.080602003e-01,3.59657e-13,9.99999e-01,9.99998e-01,3.59657e-13,9.99999e-01
4.101005013e-01,6.33418e-13,9.99999e-01,9.99999e-01,6.33418e-13,9.99999e-01
4.121510038e-01,1.10315e-12,9.99999e-01,9.99997e-01,1.10316e-12,9.99999e-01
4.142117588e-01,1.90028e-12,9.99999e-01,9.99982e-01,1.90031e-12,9.99999e-01
4.162828176e-01,3.23828e-12,9.99999e-01,9.99924e-01,3.23852e-12,9.99999e-01
4.183642317e-01,5.46106e-12,9.99999e-01,9.99954e-01,5.46130e-12,9.99999e-01
4.204560528e-01,9.11487e-12,9.99999e-01,9.99972e-01,9.11513e-12,9.99999e-01
4.225583331e-01,1.50602e-11,9.99999e-01,9.99989e-01,1.50603e-11,9.99999e-01
4.246711247e-01,2.46374e-11,9.99999e-01,9.99991e-01,2.46376e-11,9.99999e-01
4.267944804e-01,3.99150e-11,9.99999e-01,9.99987e-01,3.99155e-11,9.99999e-01
4.289284528e-01,6.40532e-11,9.99999e-01,9.99990e-01,6.40538e-11,9.99999e-01
4.310730950e-01,1.01833e-10,9.99999e-01,9.99995e-01,1.01833e-10,9.99999e-01
4.332284605e-01,1.60420e-10,9.99999e-01,9.99998e-01,1.60420e-10,9.99999e-01
4.353946028e-01,2.50455e-10,9.99999e-01,9.99999e-01,2.50455e-10,9.99999e-01
4.375715758e-01,3.87593e-10,9.99999e-01,9.99992e-01,3.87596e-10,9.99999e-01
4.397594337e-01,5.94639e-10,9.99999e-01,9.99934e-01,5.94678e-10,9.99999e-01
4.419582309e-01,9.04416e-10,9.99999e-01,9.99667e-01,9.04716e-10,9.99999e-01
4.441680220e-01,1.36468e-09,9.99999e-01,9.99736e-01,1.36503e-09,9.99999e-01
4.463888621e-01,2.04234e-09,9.99999e-01,9.99726e-01,2.04290e-09,9.99999e-01
4.486208064e-01,3.03261e-09,9.99999e-01,9.99829e-01,3.03313e-09,9.99999e-01
4.508639105e-01,4.46797e-09,9.99999e-01,9.99920e-01,4.46832e-09,9.99999e-01
4.531182300e-01,6.53223e-09,9.99999e-01,9.99968e-01,6.53243e-09,9.99999e-01
4.553838212e-01,9.47847e-09,9.99999e-01,9.99978e-01,9.47867e-09,9.99999e-01
4.576607403e-01,1.36528e-08,9.99999e-01,9.99989e-01,1.36530e-08,9.99999e-01
4.599490440e-01,1.95242e-08,9.99999e-01,9.99992e-01,1.95243e-08,9.99999e-01
4.622487892e-01,2.77239e-08,9.99999e-01,9.99998e-01,2.77240e-08,9.99999e-01
4.645600332e-01,3.90954e-08,9.99999e-01,9.99994e-01,3.90956e-08,9.99999e-01
4.668828333e-01,5.47542e-08,9.99999e-01,9.99919e-01,5.47585e-08,9.99999e-01
4.692172475e-01,7.61747e-08,9.99999e-01,9.99828e-01,7.61878e-08,9.99999e-01
4.715633337e-01,1.05302e-07,9.99999e-01,9.99887e-01,1.05314e-07,9.99999e-01
4.739211504e-01,1.44631e-07,9.99999e-01,9.99892e-01,1.44647e-07,9.99999e-01
4.762907561e-01,1.97417e-07,9.99999e-01,9.99943e-01,1.97428e-07,9.99999e-01
4.786722099e-01,2.67813e-07,9.99999e-01,9.99976e-01,2.67819e-07,9.99999e-01
4.810655710e-01,3.61123e-07,9.99999e-01,9.99992e-01,3.61126e-07,9.99999e-01
4.834708988e-01,4.84041e-07,9.99999e-01,9.99935e-01,4.84073e-07,9.99999e-01
4.858882533e-01,6.45055e-07,9.99999e-01,9.99878e-01,6.45133e-07,9.99999e-01
4.883176946e-01,8.54831e-07,9.99999e-01,9.99898e-01,8.54917e-07,9.99999e-01
4.907592831e-01,1.12653e-06,9.99999e-01,9.99907e-01,1.12664e-06,9.99999e-01
4.932130795e-01,1.47655e-06,9.99999e-01,9.99934e-01,1.47664e-06,9.99999e-01
4.956791449e-01,1.92500e-06,9.99999e-01,9.99965e-01,1.92507e-06,9.99999e-01
4.981575406e-01,2.49614e-06,9.99999e-01,9.99828e-01,2.49657e-06,9.99999e-01
5.006483283e-01,3.21971e-06,9.99999e-01,9.99557e-01,3.22114e-06,9.99999e-01
5.031515699e-01,4.12582e-06,9.99999e-01,9.97746e-01,4.13514e-06,9.99999e-01
5.056673278e-01,5.27606e-06,9.99999e-01,9.98807e-01,5.28235e-06,9.99999e-01
5.081956644e-01,6.70519e-06,9.99999e-01,9.98495e-01,6.71529e-06,9.99999e-01
5.107366428e-01,8.48792e-06,9.99999e-01,9.98983e-01,8.49656e-06,9.99999e-01
5.132903260e-01,1.06943e-05,9.99999e-01,9.99418e-01,1.07005e-05,9.99999e-01
5.158567776e-01,1.34115e-05,9.99999e-01,9.99753e-01,1.34148e-05,9.99999e-01
5.184360615e-01,1.67411e-05,9.99999e-01,9.99901e-01,1.67428e-05,9.99999e-01
5.210282418e-01,2.08043e-05,9.99999e-01,9.99962e-01,2.08050e-05,9.99999e-01
5.236333830e-01,2.57384e-05,9.99999e-01,9.99852e-01,2.57422e-05,9.99999e-01
5.262515499e-01,3.17144e-05,9.99999e-01,9.99907e-01,3.17174e-05,9.99999e-01
5.288828077e-01,3.89154e-05,9.99999e-01,9.99915e-01,3.89186e-05,9.99999e-01
5.315272217e-01,4.75588e-05,9.99999e-01,9.99925e-01,4.75623e-05,9.99999e-01
5.341848578e-01,5.78931e-05,9.99999e-01,9.99951e-01,5.78959e-05,9.99999e-01
5.368557821e-01,7.01894e-05,9.99999e-01,9.99828e-01,7.02014e-05,9.99999e-01
5.395400610e-01,8.47470e-05,9.99999e-01,9.99385e-01,8.47990e-05,9.99999e-01
5.422377613e-01,1.01969e-04,9.99999e-01,9.99199e-01,1.02051e-04,9.99999e-01
5.449489501e-01,1.22273e-04,9.99999e-01,9.99258e-01,1.22363e-04,9.99999e-01
5.476736949e-01,1.46098e-04,9.99999e-01,9.99339e-01,1.46194e-04,9.99999e-01
5.504120634e-01,1.73970e-04,9.99999e-01,9.99520e-01,1.74053e-04,9.99999e-01
5.531641237e-01,2.06459e-04,9.99999e-01,9.99758e-01,2.06508e-04,9.99999e-01
5.559299443e-01,2.44161e-04,9.99999e-01,9.99883e-01,2.44189e-04,9.99999e-01
5.587095940e-01,2.87771e-04,9.99999e-01,9.99926e-01,2.87791e-04,9.99999e-01
5.615031420e-01,3.38053e-04,9.99999e-01,9.99918e-01,3.38080e-04,9.99999e-01
5.643106577e-01,3.95859e-04,9.99999e-01,9.99908e-01,3.95895e-04,9.99999e-01
5.671322110e-01,4.61644e-04,9.99999e-01,9.98896e-01,4.62154e-04,9.99999e-01
5.699678720e-01,5.37213e-04,9.99999e-01,9.98806e-01,5.37855e-04,9.99999e-01
5.728177114e-01,6.23313e-04,9.99999e-01,9.98765e-01,6.24084e-04,9.99999e-01
5.756818000e-01,7.21193e-04,9.99999e-01,9.98865e-01,7.22012e-04,9.99999e-01
5.785602090e-01,8.32082e-04,9.99999e-01,9.99009e-01,8.32906e-04,9.99999e-01
5.814530100e-01,9.57173e-04,9.99999e-01,9.99006e-01,9.58125e-04,9.99999e-01
5.843602750e-01,1.09783e-03,9.99999e-01,9.98822e-01,1.09912e-03,9.99999e-01
5.872820764e-01,1.24474e-03,9.99999e-01,9.89887e-01,1.25746e-03,9.99999e-01
5.902184868e-01,1.41710e-03,9.99999e-01,9.87677e-01,1.43478e-03,9.99999e-01
5.931695792e-01,1.61865e-03,9.99999e-01,9.91303e-01,1.63285e-03,9.99999e-01
5.961354271e-01,1.83582e-03,9.99999e-01,9.90452e-01,1.85352e-03,9.99999e-01
5.991161043e-01,2.08411e-03,9.99999e-01,9.93022e-01,2.09875e-03,9.99999e-01
6.021116848e-01,2.36120e-03,9.99999e-01,9.96032e-01,2.37060e-03,9.99999e-01
6.051222432e-01,2.66586e-03,9.99999e-01,9.97989e-01,2.67123e-03,9.99999e-01
6.081478544e-01,3.00030e-03,9.99999e-01,9.99132e-01,3.00290e-03,9.99999e-01
6.111885937e-01,3.36671e-03,9.99999e-01,9.99632e-01,3.36795e-03,9.99999e-01
6.142445367e-01,3.76821e-03,9.99999e-01,9.99835e-01,3.76883e-03,9.99999e-01
6.173157594e-01,4.20768e-03,9.99999e-01,9.99909e-01,4.20806e-03,9.99999e-01
6.204023382e-01,4.68791e-03,9.99999e-01,9.99923e-01,4.68827e-03,9.99999e-01
6.235043498e-01,5.21040e-03,9.99999e-01,9.99667e-01,5.21213e-03,9.99999e-01
6.266218716e-01,5.77215e-03,9.99999e-01,9.98222e-01,5.78243e-03,9.99999e-01
6.297549810e-01,6.39780e-03,9.99999e-01,9.99347e-01,6.40197e-03,9.99999e-01
6.329037559e-01,7.06454e-03,9.99999e-01,9.98708e-01,7.07367e-03,9.99999e-01
6.360682746e-01,7.79190e-03,9.99999e-01,9.98903e-01,7.80045e-03,9.99999e-01
6.392486160e-01,8.57309e-03,9.99999e-01,9.98577e-01,8.58530e-03,9.99999e-01
6.424448591e-01,9.41338e-03,9.99999e-01,9.98106e-01,9.43124e-03,9.99999e-01
6.456570834e-01,1.02507e-02,9.99999e-01,9.91232e-01,1.03413e-02,9.99999e-01
6.488853688e-01,1.12454e-02,9.99999e-01,9.93533e-01,1.13186e-02,9.99999e-01
6.521297956e-01,1.22847e-02,9.99999e-01,9.93409e-01,1.23662e-02,9.99999e-01
6.553904446e-01,1.33992e-02,9.99999e-01,9.93482e-01,1.34871e-02,9.99999e-01
6.586673968e-01,1.46019e-02,9.99999e-01,9.94375e-01,1.46844e-02,9.99999e-01
6.619607338e-01,1.59093e-02,9.99999e-01,9.96744e-01,1.59612e-02,9.99999e-01
6.652705375e-01,1.72878e-02,9.99999e-01,9.98111e-01,1.73205e-02,9.99999e-01
6.685968902e-01,1.87487e-02,9.99999e-01,9.99122e-01,1.87652e-02,9.99999e-01
6.719398746e-01,2.02900e-02,9.99999e-01,9.99592e-01,2.02983e-02,9.99999e-01
6.752995740e-01,2.19177e-02,9.99999e-01,9.99779e-01,2.19225e-02,9.99999e-01
6.786760719e-01,2.36333e-02,9.99999e-01,9.99683e-01,2.36408e-02,9.99999e-01
6.820694522e-01,2.54420e-02,9.99999e-01,9.99457e-01,2.54558e-02,9.99999e-01
6.854797995e-01,2.73510e-02,9.99999e-01,9.99301e-01,2.73701e-02,9.99999e-01
6.889071985e-01,2.93370e-02,9.99999e-01,9.98324e-01,2.93862e-02,9.99999e-01
6.923517345e-01,3.06500e-02,9.99999e-01,9.72811e-01,3.15066e-02,9.99999e-01
6.958134932e-01,3.32479e-02,9.99999e-01,9.85604e-01,3.37335e-02,9.99999e-01
6.992925606e-01,3.55810e-02,9.99999e-01,9.86465e-01,3.60692e-02,9.99999e-01
7.027890234e-01,3.78697e-02,9.99999e-01,9.83230e-01,3.85156e-02,9.99999e-01
7.063029686e-01,4.04949e-02,9.99999e-01,9.85885e-01,4.10746e-02,9.99999e-01
7.098344834e-01,4.31553e-02,9.99999e-01,9.86451e-01,4.37481e-02,9.99999e-01
7.133836558e-01,4.57065e-02,9.99999e-01,9.82142e-01,4.65375e-02,9.99998e-01
7.169505741e-01,4.28070e-02,9.99999e-01,8.65760e-01,4.94444e-02,9.99997e-01
7.205353270e-01,4.88475e-02,9.99999e-01,9.30959e-01,5.24701e-02,9.99997e-01
7.241380036e-01,5.08196e-02,9.99999e-01,9.13766e-01,5.56156e-02,9.99997e-01
7.277586936e-01,5.42786e-02,9.99999e-01,9.21820e-01,5.88820e-02,9.99997e-01
7.313974871e-01,5.70733e-02,9.99999e-01,9.16547e-01,6.22699e-02,9.99998e-01
7.350544745e-01,6.27217e-02,9.99999e-01,9.53506e-01,6.57800e-02,9.99998e-01
7.387297469e-01,6.70193e-02,9.99999e-01,9.65516e-01,6.94128e-02,9.99999e-01
7.424233956e-01,7.19207e-02,9.99999e-01,9.82946e-01,7.31685e-02,9.99999e-01
7.461355126e-01,7.62490e-02,9.99999e-01,9.89640e-01,7.70471e-02,9.99999e-01
7.498661902e-01,8.06561e-02,9.99999e-01,9.95156e-01,8.10487e-02,9.99999e-01
7.536155211e-01,8.49706e-02,9.99999e-01,9.97625e-01,8.51728e-02,9.99999e-01
7.573835987e-01,8.93097e-02,9.99999e-01,9.98776e-01,8.94190e-02,9.99999e-01
7.611705167e-01,9.37156e-02,9.99999e-01,9.99239e-01,9.37868e-02,9.99999e-01
7.649763693e-01,9.82286e-02,9.99999e-01,9.99523e-01,9.82753e-02,9.99999e-01
7.688012511e-01,1.02850e-01,9.99999e-01,9.99668e-01,1.02884e-01,9.99999e-01
7.726452574e-01,1.07581e-01,9.99999e-01,9.99727e-01,1.07611e-01,9.99999e-01
7.765084837e-01,1.12412e-01,9.99999e-01,9.99614e-01,1.12455e-01,9.99999e-01
7.803910261e-01,1.07616e-01,9.17952e-01,9.98337e-01,1.17415e-01,9.99999e-01
7.842929812e-01,7.92510e-02,6.50324e-01,9.94208e-01,1.22490e-01,9.99999e-01
7.882144461e-01,8.02957e-02,6.35765e-01,9.88038e-01,1.27677e-01,9.99999e-01
7.921555184e-01,1.00104e-01,7.57491e-01,9.93405e-01,1.32974e-01,9.99999e-01
7.961162960e-01,1.13291e-01,8.27999e-01,9.88451e-01,1.38381e-01,9.99999e-01
8.000968774e-01,1.28167e-01,9.02684e-01,9.86616e-01,1.43894e-01,9.99999e-01
8.040973618e-01,1.39871e-01,9.48131e-01,9.86626e-01,1.49511e-01,9.99999e-01
8.081178486e-01,1.47000e-01,9.75886e-01,9.70265e-01,1.55230e-01,9.99998e-01
8.121584379e-01,1.41025e-01,9.92452e-01,8.82141e-01,1.61048e-01,9.99998e-01
8.162192301e-01,1.43545e-01,9.98328e-01,8.61106e-01,1.66963e-01,9.99997e-01
8.203003262e-01,1.60842e-01,9.99972e-01,9.29895e-01,1.72971e-01,9.99997e-01
8.244018279e-01,1.61648e-01,9.99999e-01,9.02705e-01,1.79071e-01,9.99997e-01
8.285238370e-01,1.69448e-01,9.99999e-01,9.14650e-01,1.85260e-01,9.99997e-01
8.326664562e-01,1.74996e-01,9.99999e-01,9.13658e-01,1.91533e-01,9.99998e-01
8.368297885e-01,1.85469e-01,9.99999e-01,9.37238e-01,1.97889e-01,9.99998e-01
8.410139374e-01,1.96596e-01,9.99999e-01,9.62179e-01,2.04324e-01,9.99999e-01
8.452190071e-01,2.06882e-01,9.99999e-01,9.81250e-01,2.10835e-01,9.99999e-01
8.494451021e-01,2.15049e-01,9.99999e-01,9.89101e-01,2.17418e-01,9.99999e-01
8.536923276e-01,2.22621e-01,9.99999e-01,9.93528e-01,2.24071e-01,9.99999e-01
8.579607893e-01,2.29871e-01,9.99999e-01,9.96017e-01,2.30790e-01,9.99999e-01
8.622505932e-01,2.36970e-01,9.99999e-01,9.97465e-01,2.37572e-01,9.99999e-01
8.665618462e-01,2.13212e-01,8.73620e-01,9.98434e-01,2.44413e-01,9.99999e-01
8.708946554e-01,8.73424e-02,3.48119e-01,9.98210e-01,2.51311e-01,9.99999e-01
8.752491287e-01,1.06831e-01,4.14581e-01,9.97605e-01,2.58261e-01,9.99999e-01
8.796253743e-01,1.61045e-01,6.08979e-01,9.96691e-01,2.65260e-01,9.99999e-01
8.840235012e-01,2.08852e-01,7.69763e-01,9.96219e-01,2.72305e-01,9.99999e-01
8.884436187e-01,2.48468e-01,9.01188e-01,9.86453e-01,2.79392e-01,9.99998e-01
8.928858368e-01,2.38177e-01,9.58694e-01,8.66175e-01,2.86519e-01,9.99997e-01
8.973502660e-01,2.25458e-01,9.89765e-01,7.75177e-01,2.93681e-01,9.99996e-01
9.018370173e-01,2.63783e-01,9.98865e-01,8.77632e-01,3.00875e-01,9.99995e-01
9.063462024e-01,2.67932e-01,9.72324e-01,8.92142e-01,3.08098e-01,9.99995e-01
9.108779334e-01,2.47439e-01,9.35801e-01,8.36590e-01,3.15347e-01,9.99994e-01
9.154323231e-01,2.59358e-01,9.84450e-01,8.15847e-01,3.22619e-01,9.99994e-01
9.200094847e-01,2.35622e-01,8.20795e-01,8.52822e-01,3.29909e-01,9.99992e-01
9.246095321e-01,1.94789e-01,7.24239e-01,7.87255e-01,3.37215e-01,9.99988e-01
9.292325798e-01,6.18213e-02,7.80997e-01,2.18223e-01,3.44534e-01,9.99975e-01
9.338787427e-01,4.01108e-02,7.84336e-01,1.38405e-01,3.51862e-01,9.99968e-01
9.385481364e-01,1.37308e-01,8.35350e-01,4.46889e-01,3.59197e-01,9.99967e-01
9.432408771e-01,1.13587e-01,8.94997e-01,3.41643e-01,3.66536e-01,9.99963e-01
9.479570815e-01,8.05328e-02,9.44713e-01,2.26504e-01,3.73875e-01,9.99968e-01
9.526968669e-01,1.17883e-01,9.72944e-01,3.16254e-01,3.81211e-01,9.99976e-01
9.574603512e-01,1.28569e-01,9.88325e-01,3.34166e-01,3.88543e-01,9.99982e-01
9.622476530e-01,1.59187e-01,9.96341e-01,4.03373e-01,3.95866e-01,9.99987e-01
9.670588912e-01,2.37686e-01,9.98901e-01,5.90093e-01,4.03179e-01,9.99992e-01
9.718941857e-01,2.92990e-01,9.99921e-01,7.13826e-01,4.10478e-01,9.99995e-01
9.767536566e-01,3.15673e-01,9.99999e-01,7.55630e-01,4.17762e-01,9.99996e-01
9.816374249e-01,3.44909e-01,9.99999e-01,8.11501e-01,4.25027e-01,9.99997e-01
9.865456120e-01,3.79242e-01,9.99999e-01,8.77325e-01,4.32271e-01,9.99998e-01
9.914783401e-01,4.05287e-01,9.99999e-01,9.22173e-01,4.39492e-01,9.99999e-01
9.964357318e-01,4.27400e-01,9.99999e-01,9.56822e-01,4.46687e-01,9.99999e-01
1.001417910e+00,4.42000e-01,9.99999e-01,9.73879e-01,4.53854e-01,9.99999e-01
1.006425000e+00,4.54096e-01,9.99999e-01,9.85041e-01,4.60992e-01,9.99999e-01
1.011457125e+00,4.63733e-01,9.99999e-01,9.90676e-01,4.68097e-01,9.99999e-01
1.016514411e+00,4.72159e-01,9.99999e-01,9.93666e-01,4.75169e-01,9.99999e-01
1.021596983e+00,4.79703e-01,9.99857e-01,9.94952e-01,4.82204e-01,9.99999e-01
1.026704968e+00,4.81927e-01,9.89008e-01,9.96063e-01,4.89201e-01,9.99999e-01
1.031838492e+00,4.50644e-01,9.10740e-01,9.97133e-01,4.96159e-01,9.99999e-01
1.036997685e+00,2.72506e-02,5.42377e-02,9.98298e-01,5.03076e-01,9.99999e-01
1.042182673e+00,2.13433e-03,4.19191e-03,9.97976e-01,5.09949e-01,9.99999e-01
1.047393587e+00,5.46415e-03,1.05972e-02,9.97314e-01,5.16778e-01,9.99999e-01
1.052630555e+00,8.82842e-07,1.69018e-06,9.96318e-01,5.23560e-01,9.99999e-01
1.057893707e+00,3.27273e-06,6.19132e-06,9.93867e-01,5.30295e-01,9.99999e-01
1.063183176e+00,7.38051e-05,1.38255e-04,9.89922e-01,5.36982e-01,9.99999e-01
1.068499092e+00,6.92985e-04,1.28938e-03,9.83169e-01,5.43617e-01,9.99999e-01
1.073841587e+00,7.45952e-03,1.37538e-02,9.80369e-01,5.50202e-01,9.99999e-01
1.079210795e+00,3.69204e-02,6.76646e-02,9.74848e-01,5.56733e-01,9.99998e-01
1.084606849e+00,1.18049e-01,2.16840e-01,9.62236e-01,5.63211e-01,9.99998e-01
1.090029883e+00,2.43202e-01,4.49212e-01,9.46457e-01,5.69634e-01,9.99997e-01
1.095480033e+00,3.35156e-01,6.72892e-01,8.60701e-01,5.76002e-01,9.99995e-01
1.100957433e+00,3.31382e-01,8.25436e-01,6.85501e-01,5.82312e-01,9.99992e-01
1.106462220e+00,2.16475e-01,9.23559e-01,3.95359e-01,5.88565e-01,9.99985e-01
1.111994531e+00,8.57747e-02,9.70921e-01,1.47799e-01,5.94760e-01,9.99970e-01
1.117554504e+00,2.96911e-02,9.92802e-01,4.96303e-02,6.00896e-01,9.99959e-01
1.123142276e+00,7.61512e-02,9.99524e-01,1.25476e-01,6.06972e-01,9.99951e-01
1.128757988e+00,1.46941e-01,9.99999e-01,2.39725e-01,6.12987e-01,9.99947e-01
1.134401778e+00,6.53274e-02,9.99999e-01,1.05553e-01,6.18942e-01,9.99941e-01
1.140073787e+00,2.57354e-01,9.99999e-01,4.11894e-01,6.24835e-01,9.99952e-01
1.145774156e+00,1.09834e-01,9.99999e-01,1.74162e-01,6.30666e-01,9.99959e-01
1.151503026e+00,9.25902e-02,9.99999e-01,1.45488e-01,6.36434e-01,9.99965e-01
1.157260541e+00,1.15575e-01,9.99999e-01,1.79988e-01,6.42140e-01,9.99973e-01
1.163046844e+00,1.79928e-01,9.99999e-01,2.77764e-01,6.47783e-01,9.99983e-01
1.168862078e+00,2.61954e-01,9.99999e-01,4.00935e-01,6.53363e-01,9.99991e-01
1.174706389e+00,3.74330e-01,9.99999e-01,5.68134e-01,6.58879e-01,9.99995e-01
1.180579921e+00,4.69918e-01,9.99999e-01,7.07356e-01,6.64331e-01,9.99996e-01
1.186482820e+00,5.50103e-01,9.99982e-01,8.21405e-01,6.69720e-01,9.99997e-01
1.192415234e+00,5.79912e-01,9.62596e-01,8.91343e-01,6.75044e-01,9.99997e-01
1.198377311e+00,3.26916e-01,5.20891e-01,9.07742e-01,6.80304e-01,9.99997e-01
1.204369197e+00,3.54606e-29,5.45449e-29,9.12655e-01,6.85500e-01,9.99998e-01
1.210391043e+00,7.34916e-118,1.11725e-117,9.16163e-01,6.90632e-01,9.99998e-01
1.216442998e+00,5.31609e-102,8.00241e-102,9.28134e-01,6.95700e-01,9.99998e-01
1.222525213e+00,1.83046e-100,2.69163e-100,9.43542e-01,7.00704e-01,9.99999e-01
1.228637839e+00,1.63500e-77,2.38080e-77,9.60455e-01,7.05644e-01,9.99999e-01
1.234781029e+00,3.00671e-48,4.28678e-48,9.70467e-01,7.10521e-01,9.99999e-01
1.240954934e+00,5.01580e-32,7.09354e-32,9.81233e-01,7.15333e-01,9.99999e-01
1.247159708e+00,1.81273e-15,2.53937e-15,9.85346e-01,7.20082e-01,9.99999e-01
1.253395507e+00,1.61000e-10,2.24178e-10,9.86992e-01,7.24768e-01,9.99999e-01
1.259662485e+00,2.55830e-06,3.53876e-06,9.87656e-01,7.29391e-01,9.99999e-01
1.265960797e+00,6.99940e-04,9.65772e-04,9.80323e-01,7.33952e-01,9.99999e-01
1.272290601e+00,2.26003e-02,3.13028e-02,9.71232e-01,7.38450e-01,9.99998e-01
1.278652054e+00,2.57798e-02,3.61173e-02,9.40247e-01,7.42885e-01,9.99998e-01
1.285045314e+00,3.65186e-05,5.11785e-05,9.07798e-01,7.47259e-01,9.99997e-01
1.291470541e+00,5.33245e-14,7.88432e-14,8.23382e-01,7.51572e-01,9.99995e-01
1.297927893e+00,3.60791e-06,5.35625e-06,7.76745e-01,7.55824e-01,9.99992e-01
1.304417533e+00,1.52407e-03,2.57564e-03,7.22904e-01,7.60015e-01,9.99987e-01
1.310939621e+00,4.16892e-04,6.73429e-04,6.90547e-01,7.64146e-01,9.99978e-01
1.317494319e+00,3.35437e-40,5.43816e-40,6.68668e-01,7.68217e-01,9.99963e-01
1.324081790e+00,1.84784e-26,3.14252e-26,5.52853e-01,7.72228e-01,9.99941e-01
1.330702199e+00,5.21482e-16,1.45552e-15,1.64245e-01,7.76181e-01,9.99902e-01
1.337355710e+00,4.96276e-16,2.87269e-14,4.93316e-03,7.80075e-01,9.99813e-01
1.344042489e+00,4.00031e-17,1.50817e-14,1.02180e-04,7.83911e-01,9.99600e-01
1.350762701e+00,1.98247e-26,7.09678e-16,3.45081e-12,7.87690e-01,9.99362e-01
1.357516515e+00,1.40548e-25,1.04041e-09,7.69332e-18,7.91412e-01,9.99210e-01
1.364304097e+00,7.47071e-17,4.01098e-07,3.47762e-11,7.95078e-01,9.99153e-01
1.371125618e+00,4.33863e-10,5.51319e-04,3.11507e-07,7.98687e-01,9.99146e-01
1.377981246e+00,3.59031e-09,1.52951e-03,1.04211e-06,8.02241e-01,9.99083e-01
1.384871152e+00,4.85178e-11,2.27686e-02,1.38705e-09,8.05740e-01,9.99092e-01
1.391795508e+00,1.79618e-12,3.05493e-02,3.02710e-11,8.09185e-01,9.99222e-01
1.398754485e+00,7.12882e-10,1.11047e-01,5.84972e-09,8.12577e-01,9.99350e-01
1.405748258e+00,1.50092e-09,2.01548e-01,6.80166e-09,8.15915e-01,9.99417e-01
1.412776999e+00,3.17736e-09,3.60397e-01,7.85260e-09,8.19200e-01,9.99532e-01
1.419840884e+00,6.22829e-09,3.39963e-01,1.53472e-08,8.22433e-01,9.99650e-01
1.426940089e+00,7.78132e-07,1.27057e-02,3.00786e-06,8.25615e-01,9.99783e-01
1.434074789e+00,0.00000e+00,0.00000e+00,2.74767e-05,8.28746e-01,9.99864e-01
1.441245163e+00,0.00000e+00,0.00000e+00,1.85973e-04,8.31827e-01,9.99894e-01
1.448451389e+00,0.00000e+00,0.00000e+00,2.74481e-03,8.34858e-01,9.99912e-01
1.455693646e+00,0.00000e+00,0.00000e+00,1.76347e-02,8.37839e-01,9.99927e-01
1.462972114e+00,0.00000e+00,0.00000e+00,2.61308e-02,8.40772e-01,9.99938e-01
1.470286975e+00,1.97835e-196,3.20825e-195,1.48768e-02,8.43658e-01,9.99944e-01
