#,Wave/freq,Total,CO2,H2O,Rayleigh,CIA
4.000000000e-01,2.75593e-04,9.99999e-01,9.99983e-01,2.75597e-04,9.99999e-01
4.020000000e-01,3.24081e-04,9.99999e-01,9.99989e-01,3.24085e-04,9.99999e-01
4.040100000e-01,3.79822e-04,9.99999e-01,9.99995e-01,3.79823e-04,9.99999e-01
4.060300500e-01,4.43755e-04,9.99999e-01,9.99998e-01,4.43755e-04,9.99999e-01
4.080602003e-01,5.16857e-04,9.99999e-01,9.99999e-01,5.16857e-04,9.99999e-01
4.101005013e-01,6.00191e-04,9.99999e-01,9.99999e-01,6.00191e-04,9.99999e-01
4.121510038e-01,6.94906e-04,9.99999e-01,9.99998e-01,6.94906e-04,9.99999e-01
4.142117588e-01,8.02240e-04,9.99999e-01,9.99995e-01,8.02243e-04,9.99999e-01
4.162828176e-01,9.23517e-04,9.99999e-01,9.99979e-01,9.23536e-04,9.99999e-01
4.183642317e-01,1.06020e-03,9.99999e-01,9.99987e-01,1.06021e-03,9.99999e-01
4.204560528e-01,1.21380e-03,9.99999e-01,9.99992e-01,1.21381e-03,9.99999e-01
4.225583331e-01,1.38594e-03,9.99999e-01,9.99996e-01,1.38594e-03,9.99999e-01
4.246711247e-01,1.57834e-03,9.99999e-01,9.99997e-01,1.57835e-03,9.99999e-01
4.267944804e-01,1.79285e-03,9.99999e-01,9.99996e-01,1.79285e-03,9.99999e-01
4.289284528e-01,2.03139e-03,9.99999e-01,9.99997e-01,2.03139e-03,9.99999e-01
4.310730950e-01,2.29600e-03,9.99999e-01,9.99998e-01,2.29600e-03,9.99999e-01
4.332284605e-01,2.58880e-03,9.99999e-01,9.99999e-01,2.58880e-03,9.99999e-01
4.353946028e-01,2.91204e-03,9.99999e-01,9.99999e-01,2.91204e-03,9.99999e-01
4.375715758e-01,3.26802e-03,9.99999e-01,9.99997e-01,3.26802e-03,9.99999e-01
4.397594337e-01,3.65912e-03,9.99999e-01,9.99981e-01,3.65918e-03,9.99999e-01
4.419582309e-01,4.08765e-03,9.99999e-01,9.99909e-01,4.08802e-03,9.99999e-01
4.441680220e-01,4.55682e-03,9.99999e-01,9.99930e-01,4.55713e-03,9.99999e-01
4.463888621e-01,5.06882e-03,9.99999e-01,9.99927e-01,5.06919e-03,9.99999e-01
4.486208064e-01,5.62668e-03,9.99999e-01,9.99955e-01,5.62693e-03,9.99999e-01
4.508639105e-01,6.23305e-03,9.99999e-01,9.99978e-01,6.23318e-03,9.99999e-01
4.531182300e-01,6.89074e-03,9.99999e-01,9.99991e-01,6.89079e-03,9.99999e-01
4.553838212e-01,7.60267e-03,9.99999e-01,9.99993e-01,7.60272e-03,9.99999e-01
4.576607403e-01,8.37190e-03,9.99999e-01,9.99996e-01,8.37192e-03,9.99999e-01
4.599490440e-01,9.20139e-03,9.99999e-01,9.99997e-01,9.20141e-03,9.99999e-01
4.622487892e-01,1.00942e-02,9.99999e-01,9.99999e-01,1.00942e-02,9.99999e-01
4.645600332e-01,1.10534e-02,9.99999e-01,9.99998e-01,1.10534e-02,9.99999e-01
4.668828333e-01,1.20819e-02,9.99999e-01,9.99978e-01,1.20821e-02,9.99999e-01
4.692172475e-01,1.31828e-02,9.99999e-01,9.99954e-01,1.31834e-02,9.99999e-01
4.715633337e-01,1.43598e-02,9.99999e-01,9.99969e-01,1.43602e-02,9.99999e-01
4.739211504e-01,1.56152e-02,9.99999e-01,9.99971e-01,1.56157e-02,9.99999e-01
4.762907561e-01,1.69526e-02,9.99999e-01,9.99984e-01,1.69528e-02,9.99999e-01
4.786722099e-01,1.83745e-02,9.99999e-01,9.99993e-01,1.83747e-02,9.99999e-01
4.810655710e-01,1.98840e-02,9.99999e-01,9.99997e-01,1.98841e-02,9.99999e-01
4.834708988e-01,2.14836e-02,9.99999e-01,9.99981e-01,2.14839e-02,9.99999e-01
4.858882533e-01,2.31763e-02,9.99999e-01,9.99967e-01,2.31771e-02,9.99999e-01
4.883176946e-01,2.49656e-02,9.99999e-01,9.99972e-01,2.49662e-02,9.99999e-01
4.907592831e-01,2.68534e-02,9.99999e-01,9.99975e-01,2.68540e-02,9.99999e-01
4.932130795e-01,2.88425e-02,9.99999e-01,9.99982e-01,2.88430e-02,9.99999e-01
4.956791449e-01,3.09353e-02,9.99999e-01,9.99990e-01,3.09356e-02,9.99999e-01
4.981575406e-01,3.31326e-02,9.99999e-01,9.99953e-01,3.31341e-02,9.99999e-01
5.006483283e-01,3.54366e-02,9.99999e-01,9.99880e-01,3.54408e-02,9.99999e-01
5.031515699e-01,3.78351e-02,9.99999e-01,9.99401e-01,3.78577e-02,9.99999e-01
5.056673278e-01,4.03741e-02,9.99999e-01,9.99685e-01,4.03868e-02,9.99999e-01
5.081956644e-01,4.30128e-02,9.99999e-01,9.99603e-01,4.30298e-02,9.99999e-01
5.107366428e-01,4.57762e-02,9.99999e-01,9.99732e-01,4.57885e-02,9.99999e-01
5.132903260e-01,4.86568e-02,9.99999e-01,9.99846e-01,4.86642e-02,9.99999e-01
5.158567776e-01,5.16550e-02,9.99999e-01,9.99935e-01,5.16583e-02,9.99999e-01
5.184360615e-01,5.47706e-02,9.99999e-01,9.99973e-01,5.47720e-02,9.99999e-01
5.210282418e-01,5.80058e-02,9.99999e-01,9.99989e-01,5.80063e-02,9.99999e-01
5.236333830e-01,6.13597e-02,9.99999e-01,9.99960e-01,6.13621e-02,9.99999e-01
5.262515499e-01,6.48383e-02,9.99999e-01,9.99975e-01,6.48398e-02,9.99999e-01
5.288828077e-01,6.84386e-02,9.99999e-01,9.99977e-01,6.84401e-02,9.99999e-01
5.315272217e-01,7.21619e-02,9.99999e-01,9.99980e-01,7.21633e-02,9.99999e-01
5.341848578e-01,7.60084e-02,9.99999e-01,9.99986e-01,7.60094e-02,9.99999e-01
5.368557821e-01,7.99748e-02,9.99999e-01,9.99953e-01,7.99785e-02,9.99999e-01
5.395400610e-01,8.40563e-02,9.99999e-01,9.99834e-01,8.40702e-02,9.99999e-01
5.422377613e-01,8.82656e-02,9.99999e-01,9.99789e-01,8.82842e-02,9.99999e-01
5.449489501e-01,9.26017e-02,9.99999e-01,9.99802e-01,9.26199e-02,9.99999e-01
5.476736949e-01,9.70598e-02,9.99999e-01,9.99826e-01,9.70766e-02,9.99999e-01
5.504120634e-01,1.01641e-01,9.99999e-01,9.99873e-01,1.01653e-01,9.99999e-01
5.531641237e-01,1.06342e-01,9.99999e-01,9.99936e-01,1.06349e-01,9.99999e-01
5.559299443e-01,1.11159e-01,9.99999e-01,9.99969e-01,1.11162e-01,9.99999e-01
5.587095940e-01,1.16090e-01,9.99999e-01,9.99980e-01,1.16092e-01,9.99999e-01
5.615031420e-01,1.21134e-01,9.99999e-01,9.99978e-01,1.21136e-01,9.99999e-01
5.643106577e-01,1.26291e-01,9.99999e-01,9.99974e-01,1.26294e-01,9.99999e-01
5.671322110e-01,1.31523e-01,9.99999e-01,9.99698e-01,1.31563e-01,9.99999e-01
5.699678720e-01,1.36898e-01,9.99999e-01,9.99688e-01,1.36940e-01,9.99999e-01
5.728177114e-01,1.42379e-01,9.99999e-01,9.99672e-01,1.42425e-01,9.99999e-01
5.756818000e-01,1.47971e-01,9.99999e-01,9.99699e-01,1.48015e-01,9.99999e-01
5.785602090e-01,1.53667e-01,9.99999e-01,9.99738e-01,1.53707e-01,9.99999e-01
5.814530100e-01,1.59458e-01,9.99999e-01,9.99736e-01,1.59500e-01,9.99999e-01
5.843602750e-01,1.65337e-01,9.99999e-01,9.99683e-01,1.65389e-01,9.99999e-01
5.872820764e-01,1.70908e-01,9.99999e-01,9.97281e-01,1.71373e-01,9.99999e-01
5.902184868e-01,1.76871e-01,9.99999e-01,9.96739e-01,1.77450e-01,9.99999e-01
5.931695792e-01,1.83190e-01,9.99999e-01,9.97688e-01,1.83615e-01,9.99999e-01
5.961354271e-01,1.89386e-01,9.99999e-01,9.97472e-01,1.89866e-01,9.99999e-01
5.991161043e-01,1.95839e-01,9.99999e-01,9.98158e-01,1.96200e-01,9.99999e-01
6.021116848e-01,2.02403e-01,9.99999e-01,9.98956e-01,2.02614e-01,9.99999e-01
6.051222432e-01,2.08995e-01,9.99999e-01,9.99471e-01,2.09105e-01,9.99999e-01
6.081478544e-01,2.15621e-01,9.99999e-01,9.99771e-01,2.15670e-01,9.99999e-01
6.111885937e-01,2.22284e-01,9.99999e-01,9.99903e-01,2.22305e-01,9.99999e-01
6.142445367e-01,2.28997e-01,9.99999e-01,9.99956e-01,2.29007e-01,9.99999e-01
6.173157594e-01,2.35767e-01,9.99999e-01,9.99975e-01,2.35772e-01,9.99999e-01
6.204023382e-01,2.42593e-01,9.99999e-01,9.99979e-01,2.42598e-01,9.99999e-01
6.235043498e-01,2.49459e-01,9.99999e-01,9.99909e-01,2.49481e-01,9.99999e-01
6.266218716e-01,2.56297e-01,9.99999e-01,9.99529e-01,2.56418e-01,9.99999e-01
6.297549810e-01,2.63359e-01,9.99999e-01,9.99826e-01,2.63404e-01,9.99999e-01
6.329037559e-01,2.70345e-01,9.99999e-01,9.99659e-01,2.70437e-01,9.99999e-01
6.360682746e-01,2.77433e-01,9.99999e-01,9.99708e-01,2.77514e-01,9.99999e-01
6.392486160e-01,2.84523e-01,9.99999e-01,9.99623e-01,2.84630e-01,9.99999e-01
6.424448591e-01,2.91635e-01,9.99999e-01,9.99491e-01,2.91783e-01,9.99999e-01
6.456570834e-01,2.98265e-01,9.99999e-01,9.97642e-01,2.98970e-01,9.99999e-01
6.488853688e-01,3.05663e-01,9.99999e-01,9.98293e-01,3.06186e-01,9.99999e-01
6.521297956e-01,3.12883e-01,9.99999e-01,9.98260e-01,3.13428e-01,9.99999e-01
6.553904446e-01,3.20136e-01,9.99999e-01,9.98260e-01,3.20694e-01,9.99999e-01
6.586673968e-01,3.27493e-01,9.99999e-01,9.98516e-01,3.27979e-01,9.99999e-01
6.619607338e-01,3.35004e-01,9.99999e-01,9.99173e-01,3.35281e-01,9.99999e-01
6.652705375e-01,3.42427e-01,9.99999e-01,9.99503e-01,3.42597e-01,9.99999e-01
6.685968902e-01,3.49850e-01,9.99999e-01,9.99789e-01,3.49923e-01,9.99999e-01
6.719398746e-01,3.57219e-01,9.99999e-01,9.99892e-01,3.57257e-01,9.99999e-01
6.752995740e-01,3.64574e-01,9.99999e-01,9.99943e-01,3.64595e-01,9.99999e-01
6.786760719e-01,3.71902e-01,9.99999e-01,9.99915e-01,3.71934e-01,9.99999e-01
6.820694522e-01,3.79216e-01,9.99999e-01,9.99854e-01,3.79271e-01,9.99999e-01
6.854797995e-01,3.86533e-01,9.99999e-01,9.99814e-01,3.86604e-01,9.99999e-01
6.889071985e-01,3.93751e-01,9.99999e-01,9.99543e-01,3.93930e-01,9.99999e-01
6.923517345e-01,3.98295e-01,9.99999e-01,9.92644e-01,4.01246e-01,9.99999e-01
6.958134932e-01,4.07019e-01,9.99999e-01,9.96253e-01,4.08549e-01,9.99999e-01
6.992925606e-01,4.14325e-01,9.99999e-01,9.96363e-01,4.15837e-01,9.99999e-01
7.027890234e-01,4.21224e-01,9.99999e-01,9.95549e-01,4.23107e-01,9.99999e-01
7.063029686e-01,4.28745e-01,9.99999e-01,9.96254e-01,4.30357e-01,9.99999e-01
7.098344834e-01,4.36012e-01,9.99999e-01,9.96406e-01,4.37584e-01,9.99999e-01
7.133836558e-01,4.42628e-01,9.99999e-01,9.95146e-01,4.44787e-01,9.99999e-01
7.169505741e-01,4.34670e-01,9.99999e-01,9.61741e-01,4.51962e-01,9.99999e-01
7.205353270e-01,4.50604e-01,9.99999e-01,9.81478e-01,4.59107e-01,9.99999e-01
7.241380036e-01,4.55097e-01,9.99999e-01,9.76139e-01,4.66221e-01,9.99998e-01
7.277586936e-01,4.63110e-01,9.99999e-01,9.78465e-01,4.73302e-01,9.99999e-01
7.313974871e-01,4.69436e-01,9.99999e-01,9.77286e-01,4.80347e-01,9.99999e-01
7.350544745e-01,4.81270e-01,9.99999e-01,9.87514e-01,4.87355e-01,9.99999e-01
7.387297469e-01,4.89780e-01,9.99999e-01,9.90809e-01,4.94323e-01,9.99999e-01
7.424233956e-01,4.98998e-01,9.99999e-01,9.95505e-01,5.01251e-01,9.99999e-01
7.461355126e-01,5.06749e-01,9.99999e-01,9.97270e-01,5.08136e-01,9.99999e-01
7.498661902e-01,5.14324e-01,9.99999e-01,9.98732e-01,5.14976e-01,9.99999e-01
7.536155211e-01,5.21446e-01,9.99999e-01,9.99375e-01,5.21771e-01,9.99999e-01
7.573835987e-01,5.28349e-01,9.99999e-01,9.99678e-01,5.28519e-01,9.99999e-01
7.611705167e-01,5.35111e-01,9.99999e-01,9.99800e-01,5.35218e-01,9.99999e-01
7.649763693e-01,5.41800e-01,9.99999e-01,9.99874e-01,5.41867e-01,9.99999e-01
7.688012511e-01,5.48418e-01,9.99999e-01,9.99912e-01,5.48465e-01,9.99999e-01
7.726452574e-01,5.54971e-01,9.99999e-01,9.99927e-01,5.55011e-01,9.99999e-01
7.765084837e-01,5.61446e-01,9.99999e-01,9.99896e-01,5.61503e-01,9.99999e-01
7.803910261e-01,5.51521e-01,9.71508e-01,9.99553e-01,5.67941e-01,9.99999e-01
7.842929812e-01,5.08804e-01,8.87246e-01,9.98443e-01,5.74323e-01,9.99999e-01
7.882144461e-01,5.08674e-01,8.78744e-01,9.96824e-01,5.80649e-01,9.99999e-01
7.921555184e-01,5.43607e-01,9.27784e-01,9.98267e-01,5.86917e-01,9.99999e-01
7.961162960e-01,5.62638e-01,9.51522e-01,9.96901e-01,5.93128e-01,9.99999e-01
8.000968774e-01,5.81252e-01,9.73372e-01,9.96443e-01,5.99279e-01,9.99999e-01
8.040973618e-01,5.94881e-01,9.86180e-01,9.96437e-01,6.05371e-01,9.99999e-01
8.081178486e-01,6.02595e-01,9.93606e-01,9.91926e-01,6.11402e-01,9.99999e-01
8.121584379e-01,5.95702e-01,9.98043e-01,9.66774e-01,6.17373e-01,9.99999e-01
8.162192301e-01,5.98759e-01,9.99567e-01,9.61064e-01,6.23282e-01,9.99998e-01
8.203003262e-01,6.16535e-01,9.99993e-01,9.79986e-01,6.29130e-01,9.99998e-01
8.244018279e-01,6.17668e-01,9.99999e-01,9.72835e-01,6.34915e-01,9.99998e-01
8.285238370e-01,6.25552e-01,9.99999e-01,9.76452e-01,6.40638e-01,9.99999e-01
8.326664562e-01,6.30976e-01,9.99999e-01,9.76294e-01,6.46297e-01,9.99999e-01
8.368297885e-01,6.40852e-01,9.99999e-01,9.83062e-01,6.51894e-01,9.99999e-01
8.410139374e-01,6.50795e-01,9.99999e-01,9.89912e-01,6.57426e-01,9.99999e-01
8.452190071e-01,6.59615e-01,9.99999e-01,9.95050e-01,6.62896e-01,9.99999e-01
8.494451021e-01,6.66373e-01,9.99999e-01,9.97115e-01,6.68301e-01,9.99999e-01
8.536923276e-01,6.72497e-01,9.99999e-01,9.98299e-01,6.73642e-01,9.99999e-01
8.579607893e-01,6.78206e-01,9.99999e-01,9.98949e-01,6.78919e-01,9.99999e-01
8.622505932e-01,6.83677e-01,9.99999e-01,9.99333e-01,6.84132e-01,9.99999e-01
8.665618462e-01,6.42932e-01,9.33128e-01,9.99586e-01,6.89281e-01,9.99999e-01
8.708946554e-01,5.10384e-01,7.35374e-01,9.99525e-01,6.94366e-01,9.99999e-01
8.752491287e-01,5.46871e-01,7.82413e-01,9.99365e-01,6.99387e-01,9.99999e-01
8.796253743e-01,6.15439e-01,8.74527e-01,9.99118e-01,7.04344e-01,9.99999e-01
8.840235012e-01,6.61040e-01,9.32970e-01,9.98994e-01,7.09237e-01,9.99999e-01
8.884436187e-01,6.92328e-01,9.73167e-01,9.96260e-01,7.14067e-01,9.99999e-01
8.928858368e-01,6.83769e-01,9.89026e-01,9.61702e-01,7.18833e-01,9.99998e-01
8.973502660e-01,6.73885e-01,9.97340e-01,9.33822e-01,7.23535e-01,9.99998e-01
9.018370173e-01,7.03172e-01,9.99707e-01,9.65939e-01,7.28175e-01,9.99998e-01
9.063462024e-01,7.04984e-01,9.92215e-01,9.69467e-01,7.32752e-01,9.99998e-01
9.108779334e-01,6.90591e-01,9.82687e-01,9.53031e-01,7.37266e-01,9.99998e-01
9.154323231e-01,6.99580e-01,9.95957e-01,9.46951e-01,7.41718e-01,9.99998e-01
9.200094847e-01,6.73507e-01,9.40276e-01,9.58300e-01,7.46109e-01,9.99997e-01
9.246095321e-01,6.44056e-01,9.17919e-01,9.33784e-01,7.50438e-01,9.99996e-01
9.292325798e-01,4.50945e-01,9.34229e-01,6.35693e-01,7.54705e-01,9.99993e-01
9.338787427e-01,4.00733e-01,9.37116e-01,5.60259e-01,7.58912e-01,9.99991e-01
9.385481364e-01,5.77626e-01,9.53410e-01,7.92207e-01,7.63059e-01,9.99991e-01
9.432408771e-01,5.37097e-01,9.71310e-01,7.19851e-01,7.67146e-01,9.99990e-01
9.479570815e-01,4.82530e-01,9.85148e-01,6.34701e-01,7.71173e-01,9.99991e-01
9.526968669e-01,5.49879e-01,9.92828e-01,7.14143e-01,7.75141e-01,9.99993e-01
9.574603512e-01,5.70433e-01,9.96930e-01,7.34351e-01,7.79051e-01,9.99994e-01
9.622476530e-01,6.09076e-01,9.99043e-01,7.78683e-01,7.82902e-01,9.99996e-01
9.670588912e-01,6.80781e-01,9.99713e-01,8.65605e-01,7.86696e-01,9.99997e-01
9.718941857e-01,7.22249e-01,9.99979e-01,9.13755e-01,7.90433e-01,9.99998e-01
9.767536566e-01,7.36822e-01,9.99999e-01,9.27855e-01,7.94114e-01,9.99998e-01
9.816374249e-01,7.54813e-01,9.99999e-01,9.46191e-01,7.97738e-01,9.99998e-01
9.865456120e-01,7.74109e-01,9.99999e-01,9.66058e-01,8.01307e-01,9.99999e-01
9.914783401e-01,7.87822e-01,9.99999e-01,9.78878e-01,8.04820e-01,9.99999e-01
9.964357318e-01,7.98942e-01,9.99999e-01,9.88447e-01,8.08280e-01,9.99999e-01
1.001417910e+00,8.06057e-01,9.99999e-01,9.93065e-01,8.11685e-01,9.99999e-01
1.006425000e+00,8.11804e-01,9.99999e-01,9.96032e-01,8.15037e-01,9.99999e-01
1.011457125e+00,8.16326e-01,9.99999e-01,9.97542e-01,8.18336e-01,9.99999e-01
1.016514411e+00,8.20211e-01,9.99999e-01,9.98328e-01,8.21583e-01,9.99999e-01
1.021596983e+00,8.23641e-01,9.99952e-01,9.98667e-01,8.24779e-01,9.99999e-01
1.026704968e+00,8.24541e-01,9.96949e-01,9.98959e-01,8.27923e-01,9.99999e-01
1.031838492e+00,7.96432e-01,9.59083e-01,9.99245e-01,8.31017e-01,9.99999e-01
1.036997685e+00,1.55649e-01,1.86684e-01,9.99550e-01,8.34061e-01,9.99999e-01
1.042182673e+00,1.52394e-01,1.82148e-01,9.99462e-01,8.37055e-01,9.99999e-01
1.047393587e+00,1.60448e-01,1.91130e-01,9.99288e-01,8.40001e-01,9.99999e-01
1.052630555e+00,8.64307e-03,1.02615e-02,9.99022e-01,8.42899e-01,9.99999e-01
1.057893707e+00,2.00955e-02,2.37883e-02,9.98365e-01,8.45750e-01,9.99999e-01
1.063183176e+00,5.44644e-02,6.43141e-02,9.97314e-01,8.48553e-01,9.99999e-01
1.068499092e+00,1.28576e-01,1.51622e-01,9.95512e-01,8.51310e-01,9.99999e-01
1.073841587e+00,2.59480e-01,3.05239e-01,9.94738e-01,8.54021e-01,9.99999e-01
1.079210795e+00,4.01732e-01,4.71878e-01,9.93285e-01,8.56687e-01,9.99999e-01
1.084606849e+00,5.63952e-01,6.62780e-01,9.89831e-01,8.59309e-01,9.99999e-01
1.090029883e+00,6.86147e-01,8.07698e-01,9.85320e-01,8.61886e-01,9.99998e-01
1.095480033e+00,7.47832e-01,9.00315e-01,9.60584e-01,8.64420e-01,9.99998e-01
1.100957433e+00,7.44350e-01,9.50668e-01,9.02799e-01,8.66911e-01,9.99997e-01
1.106462220e+00,6.56230e-01,9.79337e-01,7.70297e-01,8.69360e-01,9.99995e-01
1.111994531e+00,5.01347e-01,9.92291e-01,5.79299e-01,8.71768e-01,9.99991e-01
1.117554504e+00,3.61069e-01,9.98123e-01,4.13721e-01,8.74134e-01,9.99988e-01
1.123142276e+00,4.58815e-01,9.99877e-01,5.23528e-01,8.76460e-01,9.99986e-01
1.128757988e+00,5.79625e-01,9.99999e-01,6.59613e-01,8.78746e-01,9.99985e-01
1.134401778e+00,3.54674e-01,9.99999e-01,4.02591e-01,8.80992e-01,9.99984e-01
1.140073787e+00,6.89062e-01,9.99999e-01,7.80197e-01,8.83200e-01,9.99987e-01
1.145774156e+00,5.28366e-01,9.99999e-01,5.96781e-01,8.85369e-01,9.99988e-01
1.151503026e+00,4.98781e-01,9.99999e-01,5.62010e-01,8.87501e-01,9.99990e-01
1.157260541e+00,5.50816e-01,9.99999e-01,6.19180e-01,8.89596e-01,9.99992e-01
1.163046844e+00,6.26237e-01,9.99999e-01,7.02335e-01,8.91654e-01,9.99995e-01
1.168862078e+00,6.99371e-01,9.99999e-01,7.82579e-01,8.93676e-01,9.99997e-01
1.174706389e+00,7.69885e-01,9.99999e-01,8.59571e-01,8.95662e-01,9.99998e-01
1.180579921e+00,8.18656e-01,9.99999e-01,9.12036e-01,8.97614e-01,9.99998e-01
1.186482820e+00,8.53909e-01,9.99992e-01,9.49289e-01,8.99531e-01,9.99998e-01
1.192415234e+00,8.64950e-01,9.89058e-01,9.70068e-01,9.01414e-01,9.99998e-01
1.198377311e+00,5.00961e-01,5.66636e-01,9.74666e-01,9.03264e-01,9.99999e-01
1.204369197e+00,2.30018e-09,2.57724e-09,9.76028e-01,9.05081e-01,9.99999e-01
1.210391043e+00,8.50032e-33,9.49474e-33,9.77073e-01,9.06866e-01,9.99999e-01
1.216442998e+00,1.31753e-28,1.46784e-28,9.80507e-01,9.08619e-01,9.99999e-01
1.222525213e+00,3.36854e-28,3.72969e-28,9.84782e-01,9.10340e-01,9.99999e-01
1.228637839e+00,8.02006e-22,8.85931e-22,9.89403e-01,9.12031e-01,9.99999e-01
1.234781029e+00,2.10726e-14,2.31422e-14,9.92131e-01,9.13691e-01,9.99999e-01
1.240954934e+00,9.80058e-10,1.07424e-09,9.95013e-01,9.15322e-01,9.99999e-01
1.247159708e+00,1.22201e-05,1.33599e-05,9.96118e-01,9.16923e-01,9.99999e-01
1.253395507e+00,1.38551e-03,1.51247e-03,9.96548e-01,9.18495e-01,9.99999e-01
1.259662485e+00,2.23453e-02,2.43535e-02,9.96713e-01,9.20039e-01,9.99999e-01
1.265960797e+00,1.07078e-01,1.16702e-01,9.94764e-01,9.21554e-01,9.99999e-01
1.272290601e+00,3.72619e-01,4.06806e-01,9.91755e-01,9.23043e-01,9.99999e-01
1.278652054e+00,3.15737e-01,3.46151e-01,9.83673e-01,9.24504e-01,9.99999e-01
1.285045314e+00,9.01589e-03,9.86720e-03,9.70531e-01,9.25938e-01,9.99998e-01
1.291470541e+00,1.46434e-04,1.63568e-04,9.49203e-01,9.27347e-01,9.99998e-01
1.297927893e+00,1.79981e-02,2.02093e-02,9.28503e-01,9.28729e-01,9.99997e-01
1.304417533e+00,1.66919e-01,1.94390e-01,9.16400e-01,9.30087e-01,9.99996e-01
1.310939621e+00,2.86328e-02,3.26322e-02,8.95469e-01,9.31419e-01,9.99993e-01
1.317494319e+00,7.91188e-12,9.05848e-12,8.97389e-01,9.32727e-01,9.99990e-01
1.324081790e+00,1.24011e-06,1.42737e-06,8.52296e-01,9.34011e-01,9.99984e-01
1.330702199e+00,4.67668e-05,7.12772e-05,5.13121e-01,9.35271e-01,9.99973e-01
1.337355710e+00,2.32189e-05,7.28017e-05,1.88404e-01,9.36508e-01,9.99950e-01
1.344042489e+00,3.64257e-06,2.06824e-05,1.51934e-02,9.37723e-01,9.99894e-01
1.350762701e+00,3.02068e-08,4.82194e-05,2.06056e-04,9.38914e-01,9.99831e-01
1.357516515e+00,4.17893e-08,1.62829e-03,8.24095e-06,9.40084e-01,9.99790e-01
1.364304097e+00,1.31448e-05,1.62034e-02,4.89084e-04,9.41232e-01,9.99775e-01
1.371125618e+00,9.43376e-04,1.15843e-01,5.89361e-03,9.42359e-01,9.99774e-01
1.377981246e+00,2.43387e-03,1.72627e-01,1.23490e-02,9.43464e-01,9.99757e-01
1.384871152e+00,2.08863e-04,3.60082e-01,5.14198e-04,9.44550e-01,9.99764e-01
1.391795508e+00,2.88563e-04,3.89393e-01,6.61855e-04,9.45615e-01,9.99799e-01
1.398754485e+00,1.21067e-03,5.59091e-01,2.17258e-03,9.46660e-01,9.99828e-01
1.405748258e+00,1.25439e-03,6.51859e-01,1.88911e-03,9.47685e-01,9.99845e-01
1.412776999e+00,1.57744e-03,7.63397e-01,2.07113e-03,9.48691e-01,9.99875e-01
1.419840884e+00,2.45629e-03,6.86912e-01,3.14281e-03,9.49679e-01,9.99907e-01
1.426940089e+00,3.12764e-03,7.23752e-02,1.09788e-02,9.50648e-01,9.99942e-01
1.434074789e+00,0.00000e+00,0.00000e+00,3.19082e-02,9.51599e-01,9.99963e-01
1.441245163e+00,0.00000e+00,0.00000e+00,7.10668e-02,9.52532e-01,9.99971e-01
1.448451389e+00,0.00000e+00,0.00000e+00,1.52574e-01,9.53447e-01,9.99976e-01
1.455693646e+00,2.78351e-260,5.53418e-260,2.90815e-01,9.54345e-01,9.99980e-01
1.462972114e+00,1.68992e-126,3.35681e-126,3.44036e-01,9.55227e-01,9.99983e-01
1.470286975e+00,1.46422e-53,3.05727e-53,2.88137e-01,9.56091e-01,9.99984e-01
