#,Wave/freq,Total,CO2,H2O,Rayleigh,CIA
4.000000000e-01,2.44358e-08,9.99999e-01,9.99965e-01,2.44367e-08,9.99999e-01
4.020000000e-01,3.45579e-08,9.99999e-01,9.99978e-01,3.45586e-08,9.99999e-01
4.040100000e-01,4.85215e-08,9.99999e-01,9.99990e-01,4.85219e-08,9.99999e-01
4.060300500e-01,6.76718e-08,9.99999e-01,9.99997e-01,6.76720e-08,9.99999e-01
4.080602003e-01,9.37618e-08,9.99999e-01,9.99998e-01,9.37618e-08,9.99999e-01
4.101005013e-01,1.29076e-07,9.99999e-01,9.99999e-01,1.29076e-07,9.99999e-01
4.121510038e-01,1.76573e-07,9.99999e-01,9.99998e-01,1.76573e-07,9.99999e-01
4.142117588e-01,2.40054e-07,9.99999e-01,9.99990e-01,2.40057e-07,9.99999e-01
4.162828176e-01,3.24377e-07,9.99999e-01,9.99956e-01,3.24391e-07,9.99999e-01
4.183642317e-01,4.35743e-07,9.99999e-01,9.99974e-01,4.35754e-07,9.99999e-01
4.204560528e-01,5.81936e-07,9.99999e-01,9.99983e-01,5.81945e-07,9.99999e-01
4.225583331e-01,7.72749e-07,9.99999e-01,9.99993e-01,7.72754e-07,9.99999e-01
4.246711247e-01,1.02039e-06,9.99999e-01,9.99994e-01,1.02039e-06,9.99999e-01
4.267944804e-01,1.34000e-06,9.99999e-01,9.99992e-01,1.34001e-06,9.99999e-01
4.289284528e-01,1.75029e-06,9.99999e-01,9.99994e-01,1.75030e-06,9.99999e-01
4.310730950e-01,2.27418e-06,9.99999e-01,9.99997e-01,2.27419e-06,9.99999e-01
4.332284605e-01,2.93963e-06,9.99999e-01,9.99998e-01,2.93963e-06,9.99999e-01
4.353946028e-01,3.78057e-06,9.99999e-01,9.99999e-01,3.78057e-06,9.99999e-01
4.375715758e-01,4.83796e-06,9.99999e-01,9.99995e-01,4.83798e-06,9.99999e-01
4.397594337e-01,6.16083e-06,9.99999e-01,9.99962e-01,6.16106e-06,9.99999e-01
4.419582309e-01,7.80714e-06,9.99999e-01,9.99813e-01,7.80859e-06,9.99999e-01
4.441680220e-01,9.84900e-06,9.99999e-01,9.99850e-01,9.85047e-06,9.99999e-01
4.463888621e-01,1.23675e-05,9.99999e-01,9.99845e-01,1.23694e-05,9.99999e-01
4.486208064e-01,1.54613e-05,9.99999e-01,9.99903e-01,1.54628e-05,9.99999e-01
4.508639105e-01,1.92438e-05,9.99999e-01,9.99954e-01,1.92447e-05,9.99999e-01
4.531182300e-01,2.38478e-05,9.99999e-01,9.99981e-01,2.38483e-05,9.99999e-01
4.553838212e-01,2.94278e-05,9.99999e-01,9.99987e-01,2.94282e-05,9.99999e-01
4.576607403e-01,3.61630e-05,9.99999e-01,9.99993e-01,3.61632e-05,9.99999e-01
4.599490440e-01,4.42589e-05,9.99999e-01,9.99995e-01,4.42590e-05,9.99999e-01
4.622487892e-01,5.39516e-05,9.99999e-01,9.99998e-01,5.39516e-05,9.99999e-01
4.645600332e-01,6.55098e-05,9.99999e-01,9.99996e-01,6.55100e-05,9.99999e-01
4.668828333e-01,7.92367e-05,9.99999e-01,9.99954e-01,7.92403e-05,9.99999e-01
4.692172475e-01,9.54795e-05,9.99999e-01,9.99902e-01,9.54887e-05,9.99999e-01
4.715633337e-01,1.14639e-04,9.99999e-01,9.99936e-01,1.14646e-04,9.99999e-01
4.739211504e-01,1.37142e-04,9.99999e-01,9.99938e-01,1.37150e-04,9.99999e-01
4.762907561e-01,1.63486e-04,9.99999e-01,9.99967e-01,1.63492e-04,9.99999e-01
4.786722099e-01,1.94215e-04,9.99999e-01,9.99986e-01,1.94217e-04,9.99999e-01
4.810655710e-01,2.29933e-04,9.99999e-01,9.99995e-01,2.29934e-04,9.99999e-01
4.834708988e-01,2.71303e-04,9.99999e-01,9.99963e-01,2.71313e-04,9.99999e-01
4.858882533e-01,3.19072e-04,9.99999e-01,9.99930e-01,3.19094e-04,9.99999e-01
4.883176946e-01,3.74068e-04,9.99999e-01,9.99942e-01,3.74089e-04,9.99999e-01
4.907592831e-01,4.37164e-04,9.99999e-01,9.99947e-01,4.37187e-04,9.99999e-01
4.932130795e-01,5.09338e-04,9.99999e-01,9.99962e-01,5.09357e-04,9.99999e-01
4.956791449e-01,5.91641e-04,9.99999e-01,9.99980e-01,5.91653e-04,9.99999e-01
4.981575406e-01,6.85148e-04,9.99999e-01,9.99902e-01,6.85214e-04,9.99999e-01
5.006483283e-01,7.91077e-04,9.99999e-01,9.99751e-01,7.91274e-04,9.99999e-01
5.031515699e-01,9.09997e-04,9.99999e-01,9.98727e-01,9.11155e-04,9.99999e-01
5.056673278e-01,1.04558e-03,9.99999e-01,9.99325e-01,1.04628e-03,9.99999e-01
5.081956644e-01,1.19715e-03,9.99999e-01,9.99148e-01,1.19817e-03,9.99999e-01
5.107366428e-01,1.36765e-03,9.99999e-01,9.99424e-01,1.36843e-03,9.99999e-01
5.132903260e-01,1.55829e-03,9.99999e-01,9.99670e-01,1.55880e-03,9.99999e-01
5.158567776e-01,1.77084e-03,9.99999e-01,9.99860e-01,1.77109e-03,9.99999e-01
5.184360615e-01,2.00710e-03,9.99999e-01,9.99943e-01,2.00722e-03,9.99999e-01
5.210282418e-01,2.26916e-03,9.99999e-01,9.99978e-01,2.26921e-03,9.99999e-01
5.236333830e-01,2.55898e-03,9.99999e-01,9.99916e-01,2.55919e-03,9.99999e-01
5.262515499e-01,2.87923e-03,9.99999e-01,9.99947e-01,2.87938e-03,9.99999e-01
5.288828077e-01,3.23194e-03,9.99999e-01,9.99952e-01,3.23209e-03,9.99999e-01
5.315272217e-01,3.61959e-03,9.99999e-01,9.99957e-01,3.61974e-03,9.99999e-01
5.341848578e-01,4.04472e-03,9.99999e-01,9.99972e-01,4.04483e-03,9.99999e-01
5.368557821e-01,4.50949e-03,9.99999e-01,9.99903e-01,4.50993e-03,9.99999e-01
5.395400610e-01,5.01598e-03,9.99999e-01,9.99655e-01,5.01771e-03,9.99999e-01
5.422377613e-01,5.56839e-03,9.99999e-01,9.99546e-01,5.57091e-03,9.99999e-01
5.449489501e-01,6.16976e-03,9.99999e-01,9.99582e-01,6.17234e-03,9.99999e-01
5.476736949e-01,6.82231e-03,9.99999e-01,9.99626e-01,6.82486e-03,9.99999e-01
5.504120634e-01,7.52936e-03,9.99999e-01,9.99728e-01,7.53140e-03,9.99999e-01
5.531641237e-01,8.29380e-03,9.99999e-01,9.99863e-01,8.29493e-03,9.99999e-01
5.559299443e-01,9.11786e-03,9.99999e-01,9.99933e-01,9.11846e-03,9.99999e-01
5.587095940e-01,1.00046e-02,9.99999e-01,9.99958e-01,1.00050e-02,9.99999e-01
5.615031420e-01,1.09572e-02,9.99999e-01,9.99953e-01,1.09577e-02,9.99999e-01
5.643106577e-01,1.19789e-02,9.99999e-01,9.99948e-01,1.19795e-02,9.99999e-01
5.671322110e-01,1.30655e-02,9.99999e-01,9.99383e-01,1.30736e-02,9.99999e-01
5.699678720e-01,1.42333e-02,9.99999e-01,9.99322e-01,1.42430e-02,9.99999e-01
5.728177114e-01,1.54799e-02,9.99999e-01,9.99303e-01,1.54907e-02,9.99999e-01
5.756818000e-01,1.68091e-02,9.99999e-01,9.99358e-01,1.68198e-02,9.99999e-01
5.785602090e-01,1.82231e-02,9.99999e-01,9.99439e-01,1.82333e-02,9.99999e-01
5.814530100e-01,1.97231e-02,9.99999e-01,9.99438e-01,1.97342e-02,9.99999e-01
5.843602750e-01,2.13110e-02,9.99999e-01,9.99337e-01,2.13252e-02,9.99999e-01
5.872820764e-01,2.28779e-02,9.99999e-01,9.94293e-01,2.30092e-02,9.99999e-01
5.902184868e-01,2.46157e-02,9.99999e-01,9.93012e-01,2.47889e-02,9.99999e-01
5.931695792e-01,2.65358e-02,9.99999e-01,9.95078e-01,2.66670e-02,9.99999e-01
5.961354271e-01,2.84912e-02,9.99999e-01,9.94590e-01,2.86461e-02,9.99999e-01
5.991161043e-01,3.06071e-02,9.99999e-01,9.96047e-01,3.07286e-02,9.99999e-01
6.021116848e-01,3.28428e-02,9.99999e-01,9.97752e-01,3.29168e-02,9.99999e-01
6.051222432e-01,3.51728e-02,9.99999e-01,9.98861e-01,3.52129e-02,9.99999e-01
6.081478544e-01,3.76006e-02,9.99999e-01,9.99509e-01,3.76191e-02,9.99999e-01
6.111885937e-01,4.01289e-02,9.99999e-01,9.99791e-01,4.01372e-02,9.99999e-01
6.142445367e-01,4.27652e-02,9.99999e-01,9.99906e-01,4.27692e-02,9.99999e-01
6.173157594e-01,4.55142e-02,9.99999e-01,9.99948e-01,4.55165e-02,9.99999e-01
6.204023382e-01,4.83788e-02,9.99999e-01,9.99956e-01,4.83809e-02,9.99999e-01
6.235043498e-01,5.13540e-02,9.99999e-01,9.99813e-01,5.13635e-02,9.99999e-01
6.266218716e-01,5.44109e-02,9.99999e-01,9.98995e-01,5.44656e-02,9.99999e-01
6.297549810e-01,5.76670e-02,9.99999e-01,9.99631e-01,5.76882e-02,9.99999e-01
6.329037559e-01,6.09876e-02,9.99999e-01,9.99269e-01,6.10322e-02,9.99999e-01
6.360682746e-01,6.44582e-02,9.99999e-01,9.99381e-01,6.44981e-02,9.99999e-01
6.392486160e-01,6.80318e-02,9.99999e-01,9.99195e-01,6.80865e-02,9.99999e-01
6.424448591e-01,7.17287e-02,9.99999e-01,9.99037e-01,7.17978e-02,9.99999e-01
6.456570834e-01,7.52616e-02,9.99999e-01,9.95100e-01,7.56320e-02,9.99999e-01
6.488853688e-01,7.92465e-02,9.99999e-01,9.95693e-01,7.95892e-02,9.99999e-01
6.521297956e-01,8.33568e-02,9.99999e-01,9.96267e-01,8.36691e-02,9.99999e-01
6.553904446e-01,8.75476e-02,9.99999e-01,9.96315e-01,8.78713e-02,9.99999e-01
6.586673968e-01,9.19013e-02,9.99999e-01,9.96811e-01,9.21953e-02,9.99999e-01
6.619607338e-01,9.64622e-02,9.99999e-01,9.98156e-01,9.66403e-02,9.99999e-01
6.652705375e-01,1.01097e-01,9.99999e-01,9.98928e-01,1.01205e-01,9.99999e-01
6.685968902e-01,1.05837e-01,9.99999e-01,9.99502e-01,1.05890e-01,9.99999e-01
6.719398746e-01,1.10666e-01,9.99999e-01,9.99768e-01,1.10692e-01,9.99999e-01
6.752995740e-01,1.15596e-01,9.99999e-01,9.99875e-01,1.15610e-01,9.99999e-01
6.786760719e-01,1.20622e-01,9.99999e-01,9.99821e-01,1.20644e-01,9.99999e-01
6.820694522e-01,1.25752e-01,9.99999e-01,9.99693e-01,1.25790e-01,9.99999e-01
6.854797995e-01,1.30997e-01,9.99999e-01,9.99605e-01,1.31048e-01,9.99999e-01
6.889071985e-01,1.36288e-01,9.99999e-01,9.99062e-01,1.36416e-01,9.99999e-01
6.923517345e-01,1.39703e-01,9.99999e-01,9.84584e-01,1.41890e-01,9.99999e-01
6.958134932e-01,1.46257e-01,9.99999e-01,9.91772e-01,1.47470e-01,9.99999e-01
6.992925606e-01,1.51981e-01,9.99999e-01,9.92354e-01,1.53152e-01,9.99999e-01
7.027890234e-01,1.57422e-01,9.99999e-01,9.90478e-01,1.58935e-01,9.99999e-01
7.063029686e-01,1.63496e-01,9.99999e-01,9.91997e-01,1.64815e-01,9.99999e-01
7.098344834e-01,1.69479e-01,9.99999e-01,9.92320e-01,1.70790e-01,9.99999e-01
7.133836558e-01,1.75078e-01,9.99999e-01,9.89935e-01,1.76858e-01,9.99999e-01
7.169505741e-01,1.68631e-01,9.99999e-01,9.21409e-01,1.83015e-01,9.99998e-01
7.205353270e-01,1.81663e-01,9.99999e-01,9.59870e-01,1.89258e-01,9.99998e-01
7.241380036e-01,1.85838e-01,9.99999e-01,9.50168e-01,1.95584e-01,9.99998e-01
7.277586936e-01,1.92876e-01,9.99999e-01,9.54876e-01,2.01991e-01,9.99998e-01
7.313974871e-01,1.98404e-01,9.99999e-01,9.51695e-01,2.08474e-01,9.99998e-01
7.350544745e-01,2.09307e-01,9.99999e-01,9.73373e-01,2.15032e-01,9.99999e-01
7.387297469e-01,2.17297e-01,9.99999e-01,9.80316e-01,2.21660e-01,9.99999e-01
7.424233956e-01,2.26140e-01,9.99999e-01,9.90294e-01,2.28356e-01,9.99999e-01
7.461355126e-01,2.33733e-01,9.99999e-01,9.94119e-01,2.35115e-01,9.99999e-01
7.498661902e-01,2.41270e-01,9.99999e-01,9.97250e-01,2.41936e-01,9.99999e-01
7.536155211e-01,2.48479e-01,9.99999e-01,9.98655e-01,2.48813e-01,9.99999e-01
7.573835987e-01,2.55567e-01,9.99999e-01,9.99306e-01,2.55744e-01,9.99999e-01
7.611705167e-01,2.62613e-01,9.99999e-01,9.99569e-01,2.62726e-01,9.99999e-01
7.649763693e-01,2.69683e-01,9.99999e-01,9.99730e-01,2.69755e-01,9.99999e-01
7.688012511e-01,2.76776e-01,9.99999e-01,9.99812e-01,2.76828e-01,9.99999e-01
7.726452574e-01,2.83897e-01,9.99999e-01,9.99845e-01,2.83940e-01,9.99999e-01
7.765084837e-01,2.91027e-01,9.99999e-01,9.99782e-01,2.91090e-01,9.99999e-01
7.803910261e-01,2.82893e-01,9.49281e-01,9.99064e-01,2.98273e-01,9.99999e-01
7.842929812e-01,2.36720e-01,7.77235e-01,9.96739e-01,3.05486e-01,9.99999e-01
7.882144461e-01,2.38027e-01,7.66003e-01,9.93224e-01,3.12726e-01,9.99999e-01
7.921555184e-01,2.72140e-01,8.53539e-01,9.96257e-01,3.19990e-01,9.99999e-01
7.961162960e-01,2.92078e-01,8.98220e-01,9.93479e-01,3.27274e-01,9.99999e-01
8.000968774e-01,3.13305e-01,9.43544e-01,9.92419e-01,3.34574e-01,9.99999e-01
8.040973618e-01,3.29193e-01,9.70185e-01,9.92430e-01,3.41889e-01,9.99999e-01
8.081178486e-01,3.38628e-01,9.86268e-01,9.83146e-01,3.49214e-01,9.99999e-01
8.121584379e-01,3.30710e-01,9.95697e-01,9.31476e-01,3.56547e-01,9.99998e-01
8.162192301e-01,3.33842e-01,9.99047e-01,9.18286e-01,3.63885e-01,9.99998e-01
8.203003262e-01,3.56160e-01,9.99983e-01,9.59434e-01,3.71224e-01,9.99998e-01
8.244018279e-01,3.56706e-01,9.99999e-01,9.42266e-01,3.78562e-01,9.99998e-01
8.285238370e-01,3.66883e-01,9.99999e-01,9.50732e-01,3.85895e-01,9.99998e-01
8.326664562e-01,3.73556e-01,9.99999e-01,9.49988e-01,3.93222e-01,9.99998e-01
8.368297885e-01,3.86085e-01,9.99999e-01,9.63913e-01,4.00539e-01,9.99999e-01
8.410139374e-01,3.99029e-01,9.99999e-01,9.78388e-01,4.07843e-01,9.99999e-01
8.452190071e-01,4.10704e-01,9.99999e-01,9.89331e-01,4.15133e-01,9.99999e-01
8.494451021e-01,4.19796e-01,9.99999e-01,9.93824e-01,4.22405e-01,9.99999e-01
8.536923276e-01,4.28080e-01,9.99999e-01,9.96328e-01,4.29657e-01,9.99999e-01
8.579607893e-01,4.35902e-01,9.99999e-01,9.97746e-01,4.36886e-01,9.99999e-01
8.622505932e-01,4.43454e-01,9.99999e-01,9.98563e-01,4.44091e-01,9.99999e-01
8.665618462e-01,4.07864e-01,9.04575e-01,9.99115e-01,4.51269e-01,9.99999e-01
8.708946554e-01,2.44616e-01,5.34120e-01,9.98989e-01,4.58417e-01,9.99999e-01
8.752491287e-01,2.77964e-01,5.97856e-01,9.98647e-01,4.65535e-01,9.99999e-01
8.796253743e-01,3.54362e-01,7.51120e-01,9.98134e-01,4.72619e-01,9.99999e-01
8.840235012e-01,4.12300e-01,8.61345e-01,9.97866e-01,4.79667e-01,9.99999e-01
8.884436187e-01,4.55245e-01,9.42454e-01,9.92407e-01,4.86679e-01,9.99999e-01
8.928858368e-01,4.44420e-01,9.76346e-01,9.21767e-01,4.93651e-01,9.99998e-01
8.973502660e-01,4.30319e-01,9.94158e-01,8.64518e-01,5.00582e-01,9.99997e-01
9.018370173e-01,4.70543e-01,9.99352e-01,9.27802e-01,5.07472e-01,9.99997e-01
9.063462024e-01,4.74855e-01,9.84266e-01,9.37259e-01,5.14317e-01,9.99997e-01
9.108779334e-01,4.53685e-01,9.63033e-01,9.03336e-01,5.21116e-01,9.99996e-01
9.154323231e-01,4.66077e-01,9.91096e-01,8.90592e-01,5.27868e-01,9.99996e-01
9.200094847e-01,4.35942e-01,8.86519e-01,9.13078e-01,5.34572e-01,9.99995e-01
9.246095321e-01,3.94458e-01,8.32148e-01,8.71557e-01,5.41226e-01,9.99993e-01
9.292325798e-01,1.94815e-01,8.68138e-01,4.01066e-01,5.47830e-01,9.99986e-01
9.338787427e-01,1.50104e-01,8.70400e-01,3.04633e-01,5.54380e-01,9.99981e-01
9.385481364e-01,3.15587e-01,9.02780e-01,6.17625e-01,5.60878e-01,9.99981e-01
9.432408771e-01,2.79072e-01,9.38939e-01,5.21233e-01,5.67321e-01,9.99979e-01
9.479570815e-01,2.27920e-01,9.68305e-01,4.09258e-01,5.73708e-01,9.99982e-01
9.526968669e-01,2.88214e-01,9.84564e-01,5.03669e-01,5.80040e-01,9.99986e-01
9.574603512e-01,3.06462e-01,9.93364e-01,5.25822e-01,5.86314e-01,9.99989e-01
9.622476530e-01,3.48648e-01,9.97923e-01,5.89517e-01,5.92529e-01,9.99992e-01
9.670588912e-01,4.41004e-01,9.99375e-01,7.37044e-01,5.98687e-01,9.99995e-01
9.718941857e-01,4.99092e-01,9.99954e-01,8.25275e-01,6.04784e-01,9.99996e-01
9.767536566e-01,5.20804e-01,9.99999e-01,8.52629e-01,6.10821e-01,9.99997e-01
9.816374249e-01,5.47783e-01,9.99999e-01,8.88108e-01,6.16798e-01,9.99998e-01
9.865456120e-01,5.78163e-01,9.99999e-01,9.28457e-01,6.22713e-01,9.99998e-01
9.914783401e-01,6.00384e-01,9.99999e-01,9.55162e-01,6.28567e-01,9.99999e-01
9.964357318e-01,6.18702e-01,9.99999e-01,9.75319e-01,6.34358e-01,9.99999e-01
1.001417910e+00,6.30569e-01,9.99999e-01,9.85130e-01,6.40087e-01,9.99999e-01
1.006425000e+00,6.40275e-01,9.99999e-01,9.91517e-01,6.45753e-01,9.99999e-01
1.011457125e+00,6.47910e-01,9.99999e-01,9.94710e-01,6.51355e-01,9.99999e-01
1.016514411e+00,6.54538e-01,9.99999e-01,9.96413e-01,6.56894e-01,9.99999e-01
1.021596983e+00,6.60428e-01,9.99924e-01,9.97143e-01,6.62369e-01,9.99999e-01
1.026704968e+00,6.62188e-01,9.93832e-01,9.97773e-01,6.67781e-01,9.99999e-01
1.031838492e+00,6.32610e-01,9.41276e-01,9.98377e-01,6.73128e-01,9.99999e-01
1.036997685e+00,6.52277e-02,9.62188e-02,9.99038e-01,6.78412e-01,9.99999e-01
1.042182673e+00,2.26180e-02,3.31167e-02,9.98857e-01,6.83631e-01,9.99999e-01
1.047393587e+00,3.80380e-02,5.52971e-02,9.98482e-01,6.88786e-01,9.99999e-01
1.052630555e+00,1.49007e-04,2.15052e-04,9.97921e-01,6.93877e-01,9.99999e-01
1.057893707e+00,4.73778e-04,6.79283e-04,9.96538e-01,6.98904e-01,9.99999e-01
1.063183176e+00,3.07793e-03,4.38909e-03,9.94301e-01,7.03867e-01,9.99999e-01
1.068499092e+00,1.42404e-02,2.02407e-02,9.90459e-01,7.08767e-01,9.99999e-01
1.073841587e+00,5.88913e-02,8.32640e-02,9.88870e-01,7.13602e-01,9.99999e-01
1.079210795e+00,1.47159e-01,2.07405e-01,9.85700e-01,7.18374e-01,9.99999e-01
1.084606849e+00,2.94712e-01,4.15868e-01,9.78478e-01,7.23083e-01,9.99998e-01
1.090029883e+00,4.47490e-01,6.33413e-01,9.69444e-01,7.27729e-01,9.99998e-01
1.095480033e+00,5.37717e-01,7.97989e-01,9.18749e-01,7.32312e-01,9.99997e-01
1.100957433e+00,5.34182e-01,8.96815e-01,8.06878e-01,7.36832e-01,9.99995e-01
1.106462220e+00,4.15106e-01,9.55882e-01,5.84335e-01,7.41290e-01,9.99991e-01
1.111994531e+00,2.38950e-01,9.83410e-01,3.25257e-01,7.45687e-01,9.99983e-01
1.117554504e+00,1.24223e-01,9.95902e-01,1.66124e-01,7.50022e-01,9.99976e-01
1.123142276e+00,2.09142e-01,9.99728e-01,2.77299e-01,7.54295e-01,9.99972e-01
1.128757988e+00,3.25609e-01,9.99999e-01,4.29288e-01,7.58508e-01,9.99970e-01
1.134401778e+00,1.57455e-01,9.99999e-01,2.06462e-01,7.62661e-01,9.99966e-01
1.140073787e+00,4.58443e-01,9.99999e-01,5.97918e-01,7.66753e-01,9.99971e-01
1.145774156e+00,2.69827e-01,9.99999e-01,3.50075e-01,7.70786e-01,9.99976e-01
1.151503026e+00,2.43248e-01,9.99999e-01,3.13972e-01,7.74760e-01,9.99980e-01
1.157260541e+00,2.86838e-01,9.99999e-01,3.68372e-01,7.78675e-01,9.99984e-01
1.163046844e+00,3.71946e-01,9.99999e-01,4.75314e-01,7.82532e-01,9.99990e-01
1.168862078e+00,4.66082e-01,9.99999e-01,5.92731e-01,7.86332e-01,9.99994e-01
1.174706389e+00,5.72057e-01,9.99999e-01,7.24055e-01,7.90074e-01,9.99997e-01
1.180579921e+00,6.51719e-01,9.99999e-01,8.21054e-01,7.93760e-01,9.99997e-01
1.186482820e+00,7.13235e-01,9.99992e-01,8.94468e-01,7.97390e-01,9.99998e-01
1.192415234e+00,7.34710e-01,9.78550e-01,9.37004e-01,8.00964e-01,9.99998e-01
1.198377311e+00,4.20528e-01,5.47173e-01,9.46761e-01,8.04483e-01,9.99998e-01
1.204369197e+00,1.85969e-17,2.37168e-17,9.49540e-01,8.07947e-01,9.99998e-01
1.210391043e+00,1.53567e-67,1.94551e-67,9.51652e-01,8.11358e-01,9.99998e-01
1.216442998e+00,1.38819e-58,1.74891e-58,9.58617e-01,8.14715e-01,9.99999e-01
1.222525213e+00,1.02487e-57,1.27421e-57,9.67653e-01,8.18019e-01,9.99999e-01
1.228637839e+00,1.15557e-44,1.42903e-44,9.77445e-01,8.21271e-01,9.99999e-01
1.234781029e+00,3.15574e-28,3.85565e-28,9.83182e-01,8.24472e-01,9.99999e-01
1.240954934e+00,6.28830e-19,7.64936e-19,9.89346e-01,8.27621e-01,9.99999e-01
1.247159708e+00,2.70721e-12,3.27696e-12,9.91686e-01,8.30720e-01,9.99999e-01
1.253395507e+00,1.70327e-06,2.05373e-06,9.92627e-01,8.33769e-01,9.99999e-01
1.259662485e+00,2.79412e-04,3.35668e-04,9.93068e-01,8.36768e-01,9.99999e-01
1.265960797e+00,1.12930e-02,1.35535e-02,9.88879e-01,8.39719e-01,9.99999e-01
1.272290601e+00,1.08973e-01,1.31138e-01,9.83685e-01,8.42621e-01,9.99999e-01
1.278652054e+00,1.08950e-01,1.32166e-01,9.65821e-01,8.45476e-01,9.99998e-01
1.285045314e+00,1.00360e-03,1.21545e-03,9.46889e-01,8.48284e-01,9.99998e-01
1.291470541e+00,1.66883e-08,2.09188e-08,8.95853e-01,8.51045e-01,9.99997e-01
1.297927893e+00,3.05779e-04,3.82840e-04,8.66309e-01,8.53761e-01,9.99995e-01
1.304417533e+00,2.32409e-02,3.16969e-02,8.31026e-01,8.56431e-01,9.99992e-01
1.310939621e+00,5.93270e-03,7.81095e-03,8.10085e-01,8.59057e-01,9.99987e-01
1.317494319e+00,1.52825e-23,2.01399e-23,7.94341e-01,8.61639e-01,9.99979e-01
1.324081790e+00,7.69576e-16,1.04162e-15,7.10823e-01,8.64177e-01,9.99966e-01
1.330702199e+00,1.37071e-09,2.72201e-09,3.06307e-01,8.66672e-01,9.99944e-01
1.337355710e+00,8.51906e-10,8.82818e-09,3.88179e-02,8.69125e-01,9.99894e-01
1.344042489e+00,1.19299e-10,3.43565e-09,1.36175e-03,8.71537e-01,9.99774e-01
1.350762701e+00,9.52260e-16,1.45522e-09,1.16277e-07,8.73907e-01,9.99639e-01
1.357516515e+00,2.27117e-15,3.31754e-06,7.38845e-11,8.76237e-01,9.99553e-01
1.364304097e+00,2.59019e-10,1.85019e-04,4.65723e-07,8.78526e-01,9.99521e-01
1.371125618e+00,1.67558e-06,1.19194e-02,7.15515e-05,8.80777e-01,9.99517e-01
1.377981246e+00,8.38576e-06,2.40897e-02,2.33369e-04,8.82988e-01,9.99481e-01
1.384871152e+00,3.31697e-07,1.14332e-01,2.20625e-06,8.85161e-01,9.99487e-01
1.391795508e+00,1.04120e-07,1.34395e-01,5.53339e-07,8.87296e-01,9.99560e-01
1.398754485e+00,2.59329e-06,2.87531e-01,8.76625e-06,8.89395e-01,9.99633e-01
1.405748258e+00,3.91318e-06,4.00426e-01,9.24568e-06,8.91456e-01,9.99670e-01
1.412776999e+00,4.95520e-06,5.59671e-01,8.44574e-06,8.93482e-01,9.99735e-01
1.419840884e+00,1.06147e-05,5.08750e-01,1.77528e-05,8.95472e-01,9.99802e-01
1.426940089e+00,8.25520e-05,3.14110e-02,2.37043e-04,8.97426e-01,9.99877e-01
1.434074789e+00,0.00000e+00,0.00000e+00,1.49180e-03,8.99347e-01,9.99923e-01
1.441245163e+00,0.00000e+00,0.00000e+00,5.42026e-03,9.01233e-01,9.99940e-01
1.448451389e+00,0.00000e+00,0.00000e+00,2.62281e-02,9.03087e-01,9.99950e-01
1.455693646e+00,0.00000e+00,0.00000e+00,8.32078e-02,9.04907e-01,9.99958e-01
1.462972114e+00,8.33975e-268,3.61587e-267,1.13795e-01,9.06695e-01,9.99964e-01
1.470286975e+00,6.45338e-112,3.11262e-111,8.01459e-02,9.08450e-01,9.99968e-01
