#,Wave/freq,Total,CO2,H2O,Rayleigh,CIA
4.000000000e-01,8.11219e-12,9.99999e-01,9.99949e-01,8.11260e-12,9.99999e-01
4.020000000e-01,1.34414e-11,9.99999e-01,9.99968e-01,1.34418e-11,9.99999e-01
4.040100000e-01,2.20390e-11,9.99999e-01,9.99986e-01,2.20393e-11,9.99999e-01
4.060300500e-01,3.57845e-11,9.99999e-01,9.99996e-01,3.57846e-11,9.99999e-01
4.080602003e-01,5.75488e-11,9.99999e-01,9.99998e-01,5.75488e-11,9.99999e-01
4.101005013e-01,9.16856e-11,9.99999e-01,9.99999e-01,9.16856e-11,9.99999e-01
4.121510038e-01,1.44734e-10,9.99999e-01,9.99997e-01,1.44734e-10,9.99999e-01
4.142117588e-01,2.26422e-10,9.99999e-01,9.99985e-01,2.26425e-10,9.99999e-01
4.162828176e-01,3.51084e-10,9.99999e-01,9.99937e-01,3.51106e-10,9.99999e-01
4.183642317e-01,5.39726e-10,9.99999e-01,9.99962e-01,5.39745e-10,9.99999e-01
4.204560528e-01,8.22700e-10,9.99999e-01,9.99976e-01,8.22718e-10,9.99999e-01
4.225583331e-01,1.24364e-09,9.99999e-01,9.99991e-01,1.24365e-09,9.99999e-01
4.246711247e-01,1.86465e-09,9.99999e-01,9.99992e-01,1.86466e-09,9.99999e-01
4.267944804e-01,2.77346e-09,9.99999e-01,9.99989e-01,2.77349e-09,9.99999e-01
4.289284528e-01,4.09303e-09,9.99999e-01,9.99991e-01,4.09306e-09,9.99999e-01
4.310730950e-01,5.99417e-09,9.99999e-01,9.99996e-01,5.99419e-09,9.99999e-01
4.332284605e-01,8.71246e-09,9.99999e-01,9.99998e-01,8.71246e-09,9.99999e-01
4.353946028e-01,1.25702e-08,9.99999e-01,9.99999e-01,1.25702e-08,9.99999e-01
4.375715758e-01,1.80052e-08,9.99999e-01,9.99993e-01,1.80053e-08,9.99999e-01
4.397594337e-01,2.56066e-08,9.99999e-01,9.99945e-01,2.56080e-08,9.99999e-01
4.419582309e-01,3.61584e-08,9.99999e-01,9.99724e-01,3.61684e-08,9.99999e-01
4.441680220e-01,5.07256e-08,9.99999e-01,9.99783e-01,5.07365e-08,9.99999e-01
4.463888621e-01,7.06824e-08,9.99999e-01,9.99775e-01,7.06982e-08,9.99999e-01
4.486208064e-01,9.78565e-08,9.99999e-01,9.99860e-01,9.78702e-08,9.99999e-01
4.508639105e-01,1.34609e-07,9.99999e-01,9.99934e-01,1.34618e-07,9.99999e-01
4.531182300e-01,1.83996e-07,9.99999e-01,9.99973e-01,1.84001e-07,9.99999e-01
4.553838212e-01,2.49947e-07,9.99999e-01,9.99982e-01,2.49952e-07,9.99999e-01
4.576607403e-01,3.37490e-07,9.99999e-01,9.99991e-01,3.37493e-07,9.99999e-01
4.599490440e-01,4.52997e-07,9.99999e-01,9.99993e-01,4.52999e-07,9.99999e-01
4.622487892e-01,6.04512e-07,9.99999e-01,9.99998e-01,6.04513e-07,9.99999e-01
4.645600332e-01,8.02115e-07,9.99999e-01,9.99995e-01,8.02118e-07,9.99999e-01
4.668828333e-01,1.05832e-06,9.99999e-01,9.99933e-01,1.05839e-06,9.99999e-01
4.692172475e-01,1.38871e-06,9.99999e-01,9.99858e-01,1.38891e-06,9.99999e-01
4.715633337e-01,1.81271e-06,9.99999e-01,9.99907e-01,1.81288e-06,9.99999e-01
4.739211504e-01,2.35365e-06,9.99999e-01,9.99911e-01,2.35386e-06,9.99999e-01
4.762907561e-01,3.04041e-06,9.99999e-01,9.99953e-01,3.04055e-06,9.99999e-01
4.786722099e-01,3.90768e-06,9.99999e-01,9.99980e-01,3.90776e-06,9.99999e-01
4.810655710e-01,4.99744e-06,9.99999e-01,9.99993e-01,4.99747e-06,9.99999e-01
4.834708988e-01,6.35975e-06,9.99999e-01,9.99945e-01,6.36009e-06,9.99999e-01
4.858882533e-01,8.05498e-06,9.99999e-01,9.99899e-01,8.05578e-06,9.99999e-01
4.883176946e-01,1.01552e-05,9.99999e-01,9.99916e-01,1.01560e-05,9.99999e-01
4.907592831e-01,1.27445e-05,9.99999e-01,9.99924e-01,1.27454e-05,9.99999e-01
4.932130795e-01,1.59225e-05,9.99999e-01,9.99946e-01,1.59234e-05,9.99999e-01
4.956791449e-01,1.98059e-05,9.99999e-01,9.99971e-01,1.98065e-05,9.99999e-01
4.981575406e-01,2.45271e-05,9.99999e-01,9.99858e-01,2.45305e-05,9.99999e-01
5.006483283e-01,3.02422e-05,9.99999e-01,9.99633e-01,3.02532e-05,9.99999e-01
5.031515699e-01,3.70878e-05,9.99999e-01,9.98143e-01,3.71567e-05,9.99999e-01
5.056673278e-01,4.54061e-05,9.99999e-01,9.99018e-01,4.54507e-05,9.99999e-01
5.081956644e-01,5.53066e-05,9.99999e-01,9.98762e-01,5.53751e-05,9.99999e-01
5.107366428e-01,6.71478e-05,9.99999e-01,9.99163e-01,6.72039e-05,9.99999e-01
5.132903260e-01,8.12094e-05,9.99999e-01,9.99521e-01,8.12482e-05,9.99999e-01
5.158567776e-01,9.78402e-05,9.99999e-01,9.99797e-01,9.78600e-05,9.99999e-01
5.184360615e-01,1.17426e-04,9.99999e-01,9.99918e-01,1.17436e-04,9.99999e-01
5.210282418e-01,1.40417e-04,9.99999e-01,9.99969e-01,1.40421e-04,9.99999e-01
5.236333830e-01,1.67293e-04,9.99999e-01,9.99878e-01,1.67313e-04,9.99999e-01
5.262515499e-01,1.98651e-04,9.99999e-01,9.99923e-01,1.98666e-04,9.99999e-01
5.288828077e-01,2.35080e-04,9.99999e-01,9.99930e-01,2.35096e-04,9.99999e-01
5.315272217e-01,2.77265e-04,9.99999e-01,9.99938e-01,2.77282e-04,9.99999e-01
5.341848578e-01,3.25961e-04,9.99999e-01,9.99959e-01,3.25974e-04,9.99999e-01
5.368557821e-01,3.81940e-04,9.99999e-01,9.99858e-01,3.81994e-04,9.99999e-01
5.395400610e-01,4.46015e-04,9.99999e-01,9.99492e-01,4.46241e-04,9.99999e-01
5.422377613e-01,5.19353e-04,9.99999e-01,9.99341e-01,5.19695e-04,9.99999e-01
5.449489501e-01,6.03053e-04,9.99999e-01,9.99388e-01,6.03422e-04,9.99999e-01
5.476736949e-01,6.98194e-04,9.99999e-01,9.99457e-01,6.98573e-04,9.99999e-01
5.504120634e-01,8.06075e-04,9.99999e-01,9.99606e-01,8.06392e-04,9.99999e-01
5.531641237e-01,9.28034e-04,9.99999e-01,9.99801e-01,9.28217e-04,9.99999e-01
5.559299443e-01,1.06538e-03,9.99999e-01,9.99903e-01,1.06548e-03,9.99999e-01
5.587095940e-01,1.21964e-03,9.99999e-01,9.99939e-01,1.21972e-03,9.99999e-01
5.615031420e-01,1.39246e-03,9.99999e-01,9.99932e-01,1.39256e-03,9.99999e-01
5.643106577e-01,1.58561e-03,9.99999e-01,9.99924e-01,1.58573e-03,9.99999e-01
5.671322110e-01,1.79943e-03,9.99999e-01,9.99084e-01,1.80108e-03,9.99999e-01
5.699678720e-01,2.03853e-03,9.99999e-01,9.99020e-01,2.04053e-03,9.99999e-01
5.728177114e-01,2.30377e-03,9.99999e-01,9.98982e-01,2.30612e-03,9.99999e-01
5.756818000e-01,2.59756e-03,9.99999e-01,9.99065e-01,2.59999e-03,9.99999e-01
5.785602090e-01,2.92199e-03,9.99999e-01,9.99185e-01,2.92437e-03,9.99999e-01
5.814530100e-01,3.27890e-03,9.99999e-01,9.99182e-01,3.28159e-03,9.99999e-01
5.843602750e-01,3.67050e-03,9.99999e-01,9.99027e-01,3.67407e-03,9.99999e-01
5.872820764e-01,4.07003e-03,9.99999e-01,9.91644e-01,4.10433e-03,9.99999e-01
5.902184868e-01,4.52854e-03,9.99999e-01,9.89855e-01,4.57495e-03,9.99999e-01
5.931695792e-01,5.05214e-03,9.99999e-01,9.92833e-01,5.08861e-03,9.99999e-01
5.961354271e-01,5.60367e-03,9.99999e-01,9.92139e-01,5.64806e-03,9.99999e-01
5.991161043e-01,6.22021e-03,9.99999e-01,9.94259e-01,6.25612e-03,9.99999e-01
6.021116848e-01,6.89310e-03,9.99999e-01,9.96737e-01,6.91566e-03,9.99999e-01
6.051222432e-01,7.61701e-03,9.99999e-01,9.98347e-01,7.62961e-03,9.99999e-01
6.081478544e-01,8.39496e-03,9.99999e-01,9.99287e-01,8.40094e-03,9.99999e-01
6.111885937e-01,9.22989e-03,9.99999e-01,9.99697e-01,9.23268e-03,9.99999e-01
6.142445367e-01,1.01265e-02,9.99999e-01,9.99864e-01,1.01279e-02,9.99999e-01
6.173157594e-01,1.10887e-02,9.99999e-01,9.99925e-01,1.10895e-02,9.99999e-01
6.204023382e-01,1.21200e-02,9.99999e-01,9.99936e-01,1.21208e-02,9.99999e-01
6.235043498e-01,1.32211e-02,9.99999e-01,9.99724e-01,1.32247e-02,9.99999e-01
6.266218716e-01,1.43833e-02,9.99999e-01,9.98536e-01,1.44043e-02,9.99999e-01
6.297549810e-01,1.56543e-02,9.99999e-01,9.99462e-01,1.56627e-02,9.99999e-01
6.329037559e-01,1.69849e-02,9.99999e-01,9.98938e-01,1.70029e-02,9.99999e-01
6.360682746e-01,1.84112e-02,9.99999e-01,9.99096e-01,1.84279e-02,9.99999e-01
6.392486160e-01,1.99172e-02,9.99999e-01,9.98828e-01,1.99405e-02,9.99999e-01
6.424448591e-01,2.15100e-02,9.99999e-01,9.98436e-01,2.15437e-02,9.99999e-01
6.456570834e-01,2.30720e-02,9.99999e-01,9.92756e-01,2.32403e-02,9.99999e-01
6.488853688e-01,2.48998e-02,9.99999e-01,9.94679e-01,2.50330e-02,9.99999e-01
6.521297956e-01,2.67784e-02,9.99999e-01,9.94577e-01,2.69244e-02,9.99999e-01
6.553904446e-01,2.87611e-02,9.99999e-01,9.94606e-01,2.89171e-02,9.99999e-01
6.586673968e-01,3.08700e-02,9.99999e-01,9.95374e-01,3.10135e-02,9.99999e-01
6.619607338e-01,3.31270e-02,9.99999e-01,9.97323e-01,3.32159e-02,9.99999e-01
6.652705375e-01,3.54715e-02,9.99999e-01,9.98449e-01,3.55266e-02,9.99999e-01
6.685968902e-01,3.79202e-02,9.99999e-01,9.99279e-01,3.79475e-02,9.99999e-01
6.719398746e-01,4.04672e-02,9.99999e-01,9.99665e-01,4.04807e-02,9.99999e-01
6.752995740e-01,4.31201e-02,9.99999e-01,9.99818e-01,4.31279e-02,9.99999e-01
6.786760719e-01,4.58788e-02,9.99999e-01,9.99739e-01,4.58907e-02,9.99999e-01
6.820694522e-01,4.87490e-02,9.99999e-01,9.99553e-01,4.87707e-02,9.99999e-01
6.854797995e-01,5.17394e-02,9.99999e-01,9.99424e-01,5.17692e-02,9.99999e-01
6.889071985e-01,5.48111e-02,9.99999e-01,9.98611e-01,5.48873e-02,9.99999e-01
6.923517345e-01,5.68183e-02,9.99999e-01,9.77502e-01,5.81260e-02,9.99999e-01
6.958134932e-01,6.07602e-02,9.99999e-01,9.88193e-01,6.14861e-02,9.99999e-01
6.992925606e-01,6.42419e-02,9.99999e-01,9.88818e-01,6.49683e-02,9.99999e-01
7.027890234e-01,6.76257e-02,9.99999e-01,9.86184e-01,6.85731e-02,9.99999e-01
7.063029686e-01,7.14600e-02,9.99999e-01,9.88372e-01,7.23007e-02,9.99999e-01
7.098344834e-01,7.53014e-02,9.99999e-01,9.88839e-01,7.61513e-02,9.99999e-01
7.133836558e-01,7.89394e-02,9.99999e-01,9.85205e-01,8.01248e-02,9.99998e-01
7.169505741e-01,7.47487e-02,9.99999e-01,8.87531e-01,8.42210e-02,9.99998e-01
7.205353270e-01,8.33943e-02,9.99999e-01,9.42954e-01,8.84394e-02,9.99997e-01
7.241380036e-01,8.61231e-02,9.99999e-01,9.28256e-01,9.27795e-02,9.99997e-01
7.277586936e-01,9.09224e-02,9.99999e-01,9.35025e-01,9.72406e-02,9.99998e-01
7.313974871e-01,9.47781e-02,9.99999e-01,9.30824e-01,1.01822e-01,9.99998e-01
7.350544745e-01,1.02430e-01,9.99999e-01,9.61585e-01,1.06522e-01,9.99998e-01
7.387297469e-01,1.08173e-01,9.99999e-01,9.71560e-01,1.11339e-01,9.99999e-01
7.424233956e-01,1.14642e-01,9.99999e-01,9.85974e-01,1.16273e-01,9.99999e-01
7.461355126e-01,1.20288e-01,9.99999e-01,9.91479e-01,1.21322e-01,9.99999e-01
7.498661902e-01,1.25980e-01,9.99999e-01,9.96022e-01,1.26483e-01,9.99999e-01
7.536155211e-01,1.31499e-01,9.99999e-01,9.98048e-01,1.31756e-01,9.99999e-01
7.573835987e-01,1.37000e-01,9.99999e-01,9.98994e-01,1.37138e-01,9.99999e-01
7.611705167e-01,1.42537e-01,9.99999e-01,9.99375e-01,1.42626e-01,9.99999e-01
7.649763693e-01,1.48162e-01,9.99999e-01,9.99608e-01,1.48220e-01,9.99999e-01
7.688012511e-01,1.53874e-01,9.99999e-01,9.99727e-01,1.53916e-01,9.99999e-01
7.726452574e-01,1.59676e-01,9.99999e-01,9.99775e-01,1.59712e-01,9.99999e-01
7.765084837e-01,1.65552e-01,9.99999e-01,9.99681e-01,1.65605e-01,9.99999e-01
7.803910261e-01,1.59103e-01,9.28402e-01,9.98626e-01,1.71592e-01,9.99999e-01
7.842929812e-01,1.23675e-01,6.99093e-01,9.95215e-01,1.77672e-01,9.99999e-01
7.882144461e-01,1.24707e-01,6.84526e-01,9.90145e-01,1.83840e-01,9.99999e-01
7.921555184e-01,1.50310e-01,7.94789e-01,9.94579e-01,1.90094e-01,9.99999e-01
7.961162960e-01,1.66619e-01,8.56214e-01,9.90463e-01,1.96432e-01,9.99999e-01
8.000968774e-01,1.84424e-01,9.19237e-01,9.88971e-01,2.02849e-01,9.99999e-01
8.040973618e-01,1.98189e-01,9.57225e-01,9.88973e-01,2.09342e-01,9.99999e-01
8.081178486e-01,2.06426e-01,9.80137e-01,9.75369e-01,2.15910e-01,9.99998e-01
8.121584379e-01,1.99418e-01,9.93813e-01,9.01515e-01,2.22547e-01,9.99998e-01
8.162192301e-01,2.02410e-01,9.98630e-01,8.84074e-01,2.29251e-01,9.99997e-01
8.203003262e-01,2.22161e-01,9.99978e-01,9.41301e-01,2.36019e-01,9.99997e-01
8.244018279e-01,2.23146e-01,9.99999e-01,9.18876e-01,2.42847e-01,9.99997e-01
8.285238370e-01,2.32010e-01,9.99999e-01,9.29038e-01,2.49732e-01,9.99998e-01
8.326664562e-01,2.38264e-01,9.99999e-01,9.28290e-01,2.56670e-01,9.99998e-01
8.368297885e-01,2.49970e-01,9.99999e-01,9.48082e-01,2.63659e-01,9.99998e-01
8.410139374e-01,2.62248e-01,9.99999e-01,9.68802e-01,2.70693e-01,9.99999e-01
8.452190071e-01,2.73486e-01,9.99999e-01,9.84570e-01,2.77772e-01,9.99999e-01
8.494451021e-01,2.82333e-01,9.99999e-01,9.91026e-01,2.84889e-01,9.99999e-01
8.536923276e-01,2.90490e-01,9.99999e-01,9.94681e-01,2.92044e-01,9.99999e-01
8.579607893e-01,2.98251e-01,9.99999e-01,9.96723e-01,2.99231e-01,9.99999e-01
8.622505932e-01,3.05810e-01,9.99999e-01,9.97916e-01,3.06448e-01,9.99999e-01
8.665618462e-01,2.76440e-01,8.82317e-01,9.98711e-01,3.13691e-01,9.99999e-01
8.708946554e-01,1.32208e-01,4.12483e-01,9.98526e-01,3.20958e-01,9.99999e-01
8.752491287e-01,1.57550e-01,4.80869e-01,9.98028e-01,3.28244e-01,9.99999e-01
8.796253743e-01,2.22048e-01,6.63442e-01,9.97272e-01,3.35547e-01,9.99999e-01
8.840235012e-01,2.75545e-01,8.06081e-01,9.96884e-01,3.42863e-01,9.99999e-01
8.884436187e-01,3.17979e-01,9.18120e-01,9.88741e-01,3.50189e-01,9.99998e-01
8.928858368e-01,3.06816e-01,9.65947e-01,8.87783e-01,3.57523e-01,9.99997e-01
8.973502660e-01,2.93259e-01,9.91609e-01,8.10230e-01,3.64861e-01,9.99996e-01
9.018370173e-01,3.33955e-01,9.99071e-01,8.98022e-01,3.72200e-01,9.99996e-01
9.063462024e-01,3.37905e-01,9.76883e-01,9.09794e-01,3.79537e-01,9.99996e-01
9.108779334e-01,3.16575e-01,9.46903e-01,8.62837e-01,3.86870e-01,9.99995e-01
9.154323231e-01,3.29187e-01,9.87245e-01,8.45332e-01,3.94196e-01,9.99995e-01
9.200094847e-01,3.01690e-01,8.44622e-01,8.76859e-01,4.01511e-01,9.99994e-01
9.246095321e-01,2.59005e-01,7.66573e-01,8.18651e-01,4.08814e-01,9.99990e-01
9.292325798e-01,9.71370e-02,8.14434e-01,2.75704e-01,4.16101e-01,9.99979e-01
9.338787427e-01,6.82233e-02,8.18335e-01,1.89797e-01,4.23371e-01,9.99973e-01
9.385481364e-01,1.92144e-01,8.62269e-01,5.08685e-01,4.30620e-01,9.99973e-01
9.432408771e-01,1.62367e-01,9.12901e-01,4.02267e-01,4.37846e-01,9.99970e-01
9.479570815e-01,1.22022e-01,9.54316e-01,2.85927e-01,4.45047e-01,9.99974e-01
9.526968669e-01,1.69057e-01,9.77714e-01,3.80968e-01,4.52221e-01,9.99980e-01
9.574603512e-01,1.82498e-01,9.90402e-01,4.00588e-01,4.59366e-01,9.99985e-01
9.622476530e-01,2.18802e-01,9.96995e-01,4.70281e-01,4.66479e-01,9.99989e-01
9.670588912e-01,3.05459e-01,9.99098e-01,6.45547e-01,4.73558e-01,9.99993e-01
9.718941857e-01,3.63842e-01,9.99935e-01,7.57098e-01,4.80602e-01,9.99995e-01
9.767536566e-01,3.86946e-01,9.99999e-01,7.93560e-01,4.87608e-01,9.99996e-01
9.816374249e-01,4.16422e-01,9.99999e-01,8.41980e-01,4.94575e-01,9.99997e-01
9.865456120e-01,4.50306e-01,9.99999e-01,8.97916e-01,5.01501e-01,9.99998e-01
9.914783401e-01,4.75610e-01,9.99999e-01,9.35532e-01,5.08385e-01,9.99999e-01
9.964357318e-01,4.96859e-01,9.99999e-01,9.64355e-01,5.15224e-01,9.99999e-01
1.001417910e+00,5.10781e-01,9.99999e-01,9.78476e-01,5.22017e-01,9.99999e-01
1.006425000e+00,5.22248e-01,9.99999e-01,9.87678e-01,5.28763e-01,9.99999e-01
1.011457125e+00,5.31354e-01,9.99999e-01,9.92331e-01,5.35460e-01,9.99999e-01
1.016514411e+00,5.39283e-01,9.99999e-01,9.94789e-01,5.42108e-01,9.99999e-01
1.021596983e+00,5.46359e-01,9.99877e-01,9.95846e-01,5.48704e-01,9.99999e-01
1.026704968e+00,5.48392e-01,9.90853e-01,9.96760e-01,5.55248e-01,9.99999e-01
1.031838492e+00,5.15535e-01,9.19814e-01,9.97643e-01,5.61738e-01,9.99999e-01
1.036997685e+00,3.74254e-02,6.59398e-02,9.98600e-01,5.68174e-01,9.99999e-01
1.042182673e+00,5.33117e-03,9.29110e-03,9.98332e-01,5.74554e-01,9.99999e-01
1.047393587e+00,1.17266e-02,2.02256e-02,9.97788e-01,5.80877e-01,9.99999e-01
1.052630555e+00,6.63121e-06,1.13163e-05,9.96967e-01,5.87144e-01,9.99999e-01
1.057893707e+00,2.42077e-05,4.09114e-05,9.94943e-01,5.93352e-01,9.99999e-01
1.063183176e+00,3.23719e-04,5.42708e-04,9.91690e-01,5.99501e-01,9.99999e-01
1.068499092e+00,2.31998e-03,3.86909e-03,9.86119e-01,6.05591e-01,9.99999e-01
1.073841587e+00,1.72135e-02,2.84916e-02,9.83790e-01,6.11620e-01,9.99999e-01
1.079210795e+00,6.44458e-02,1.06153e-01,9.79249e-01,6.17588e-01,9.99998e-01
1.084606849e+00,1.71325e-01,2.82733e-01,9.68782e-01,6.23495e-01,9.99998e-01
1.090029883e+00,3.11658e-01,5.16742e-01,9.55560e-01,6.29341e-01,9.99997e-01
1.095480033e+00,4.06189e-01,7.21560e-01,8.83509e-01,6.35124e-01,9.99996e-01
1.100957433e+00,4.01939e-01,8.54005e-01,7.31553e-01,6.40844e-01,9.99994e-01
1.106462220e+00,2.80650e-01,9.36732e-01,4.61061e-01,6.46501e-01,9.99987e-01
1.111994531e+00,1.29083e-01,9.76045e-01,2.02089e-01,6.52095e-01,9.99975e-01
1.117554504e+00,5.23336e-02,9.94093e-01,7.98891e-02,6.57626e-01,9.99966e-01
1.123142276e+00,1.13820e-01,9.99610e-01,1.71670e-01,6.63093e-01,9.99960e-01
1.128757988e+00,2.02055e-01,9.99999e-01,3.02265e-01,6.68496e-01,9.99956e-01
1.134401778e+00,9.22188e-02,9.99999e-01,1.36863e-01,6.73835e-01,9.99951e-01
1.140073787e+00,3.24596e-01,9.99999e-01,4.77992e-01,6.79110e-01,9.99960e-01
1.145774156e+00,1.57036e-01,9.99999e-01,2.29485e-01,6.84320e-01,9.99966e-01
1.151503026e+00,1.35958e-01,9.99999e-01,1.97199e-01,6.89467e-01,9.99971e-01
1.157260541e+00,1.66608e-01,9.99999e-01,2.39884e-01,6.94550e-01,9.99978e-01
1.163046844e+00,2.41368e-01,9.99999e-01,3.45029e-01,6.99568e-01,9.99985e-01
1.168862078e+00,3.31151e-01,9.99999e-01,4.70038e-01,7.04523e-01,9.99992e-01
1.174706389e+00,4.44832e-01,9.99999e-01,6.27044e-01,7.09413e-01,9.99996e-01
1.180579921e+00,5.36919e-01,9.99999e-01,7.51735e-01,7.14241e-01,9.99997e-01
1.186482820e+00,6.11484e-01,9.99983e-01,8.50472e-01,7.19004e-01,9.99997e-01
1.192415234e+00,6.38145e-01,9.68485e-01,9.09679e-01,7.23705e-01,9.99997e-01
1.198377311e+00,3.61504e-01,5.30434e-01,9.23373e-01,7.28342e-01,9.99998e-01
1.204369197e+00,2.06631e-24,2.94498e-24,9.27463e-01,7.32917e-01,9.99998e-01
1.210391043e+00,2.13604e-97,3.01510e-97,9.30435e-01,7.37429e-01,9.99998e-01
1.216442998e+00,2.40613e-84,3.36890e-84,9.40481e-01,7.41879e-01,9.99998e-01
1.222525213e+00,4.43151e-83,6.08623e-83,9.53314e-01,7.46267e-01,9.99999e-01
1.228637839e+00,3.60672e-64,4.91400e-64,9.67345e-01,7.50594e-01,9.99999e-01
1.234781029e+00,4.16572e-40,5.57759e-40,9.75645e-01,7.54859e-01,9.99999e-01
1.240954934e+00,1.05374e-26,1.40165e-26,9.84534e-01,7.59064e-01,9.99999e-01
1.247159708e+00,3.96091e-13,5.22707e-13,9.87932e-01,7.63208e-01,9.99999e-01
1.253395507e+00,6.89304e-09,9.05202e-09,9.89283e-01,7.67293e-01,9.99999e-01
1.259662485e+00,2.03807e-05,2.66208e-05,9.89823e-01,7.71318e-01,9.99999e-01
1.265960797e+00,2.12883e-03,2.77561e-03,9.83778e-01,7.75284e-01,9.99999e-01
1.272290601e+00,5.16556e-02,6.77149e-02,9.74660e-01,7.79192e-01,9.99998e-01
1.278652054e+00,4.53218e-02,5.99210e-02,9.50294e-01,7.83041e-01,9.99998e-01
1.285045314e+00,1.34732e-04,1.77934e-04,9.23088e-01,7.86833e-01,9.99997e-01
1.291470541e+00,8.77168e-12,1.21320e-11,8.51666e-01,7.90568e-01,9.99996e-01
1.297927893e+00,2.14230e-05,2.96729e-05,8.11491e-01,7.94246e-01,9.99993e-01
1.304417533e+00,4.58077e-03,7.10870e-03,7.64781e-01,7.97868e-01,9.99989e-01
1.310939621e+00,1.17779e-03,1.75041e-03,7.35882e-01,8.01435e-01,9.99982e-01
1.317494319e+00,1.88610e-33,2.80931e-33,7.17079e-01,8.04947e-01,9.99970e-01
1.324081790e+00,3.74225e-22,5.79898e-22,6.11369e-01,8.08404e-01,9.99951e-01
1.330702199e+00,2.05139e-13,5.04695e-13,2.05478e-01,8.11807e-01,9.99919e-01
1.337355710e+00,1.66677e-13,4.82496e-12,1.10673e-02,8.15158e-01,9.99846e-01
1.344042489e+00,1.71785e-14,2.26774e-12,2.83115e-04,8.18455e-01,9.99671e-01
1.350762701e+00,4.22954e-22,2.58304e-13,2.30882e-10,8.21700e-01,9.99474e-01
1.357516515e+00,1.93923e-21,2.65419e-08,4.97811e-15,8.24894e-01,9.99349e-01
1.364304097e+00,3.31064e-14,4.75531e-06,1.61642e-09,8.28036e-01,9.99303e-01
1.371125618e+00,1.19159e-08,1.91095e-03,2.70532e-06,8.31128e-01,9.99297e-01
1.377981246e+00,8.07397e-08,4.66034e-03,9.04339e-06,8.34170e-01,9.99245e-01
1.384871152e+00,1.74847e-09,4.37773e-02,2.76160e-08,8.37163e-01,9.99266e-01
1.391795508e+00,1.50095e-10,5.56908e-02,1.58433e-09,8.40107e-01,9.99378e-01
1.398754485e+00,1.93879e-08,1.63741e-01,1.11374e-07,8.43004e-01,9.99465e-01
1.405748258e+00,3.50885e-08,2.66684e-01,1.21946e-07,8.45852e-01,9.99520e-01
1.412776999e+00,5.97382e-08,4.31597e-01,1.26632e-07,8.48654e-01,9.99614e-01
1.419840884e+00,1.24341e-07,3.96610e-01,2.61826e-07,8.51409e-01,9.99712e-01
1.426940089e+00,5.09863e-06,1.73827e-02,1.67229e-05,8.54119e-01,9.99821e-01
1.434074789e+00,0.00000e+00,0.00000e+00,1.36659e-04,8.56783e-01,9.99888e-01
1.441245163e+00,0.00000e+00,0.00000e+00,7.08939e-04,8.59403e-01,9.99913e-01
1.448451389e+00,0.00000e+00,0.00000e+00,6.70455e-03,8.61979e-01,9.99927e-01
1.455693646e+00,0.00000e+00,0.00000e+00,3.25529e-02,8.64511e-01,9.99940e-01
1.462972114e+00,0.00000e+00,0.00000e+00,4.68254e-02,8.67001e-01,9.99949e-01
1.470286975e+00,4.57606e-162,4.53213e-161,2.90278e-02,8.69449e-01,9.99954e-01
