#,Wave/freq,Total,CO2,H2O,Rayleigh,CIA
4.000000000e-01,7.28451e-04,9.99999e-01,9.99985e-01,7.28461e-04,9.99999e-01
4.020000000e-01,8.40313e-04,9.99999e-01,9.99990e-01,8.40320e-04,9.99999e-01
4.040100000e-01,9.66480e-04,9.99999e-01,9.99995e-01,9.66484e-04,9.99999e-01
4.060300500e-01,1.10852e-03,9.99999e-01,9.99998e-01,1.10852e-03,9.99999e-01
4.080602003e-01,1.26800e-03,9.99999e-01,9.99999e-01,1.26800e-03,9.99999e-01
4.101005013e-01,1.44657e-03,9.99999e-01,9.99999e-01,1.44657e-03,9.99999e-01
4.121510038e-01,1.64600e-03,9.99999e-01,9.99998e-01,1.64600e-03,9.99999e-01
4.142117588e-01,1.86814e-03,9.99999e-01,9.99995e-01,1.86815e-03,9.99999e-01
4.162828176e-01,2.11495e-03,9.99999e-01,9.99982e-01,2.11499e-03,9.99999e-01
4.183642317e-01,2.38855e-03,9.99999e-01,9.99989e-01,2.38858e-03,9.99999e-01
4.204560528e-01,2.69107e-03,9.99999e-01,9.99993e-01,2.69109e-03,9.99999e-01
4.225583331e-01,3.02477e-03,9.99999e-01,9.99997e-01,3.02477e-03,9.99999e-01
4.246711247e-01,3.39199e-03,9.99999e-01,9.99997e-01,3.39200e-03,9.99999e-01
4.267944804e-01,3.79519e-03,9.99999e-01,9.99996e-01,3.79520e-03,9.99999e-01
4.289284528e-01,4.23692e-03,9.99999e-01,9.99997e-01,4.23693e-03,9.99999e-01
4.310730950e-01,4.71979e-03,9.99999e-01,9.99998e-01,4.71979e-03,9.99999e-01
4.332284605e-01,5.24649e-03,9.99999e-01,9.99999e-01,5.24649e-03,9.99999e-01
4.353946028e-01,5.81978e-03,9.99999e-01,9.99999e-01,5.81978e-03,9.99999e-01
4.375715758e-01,6.44250e-03,9.99999e-01,9.99997e-01,6.44252e-03,9.99999e-01
4.397594337e-01,7.11747e-03,9.99999e-01,9.99984e-01,7.11758e-03,9.99999e-01
4.419582309e-01,7.84729e-03,9.99999e-01,9.99920e-01,7.84791e-03,9.99999e-01
4.441680220e-01,8.63597e-03,9.99999e-01,9.99938e-01,8.63650e-03,9.99999e-01
4.463888621e-01,9.48577e-03,9.99999e-01,9.99936e-01,9.48637e-03,9.99999e-01
4.486208064e-01,1.04002e-02,9.99999e-01,9.99960e-01,1.04006e-02,9.99999e-01
4.508639105e-01,1.13820e-02,9.99999e-01,9.99981e-01,1.13822e-02,9.99999e-01
4.531182300e-01,1.24342e-02,9.99999e-01,9.99992e-01,1.24343e-02,9.99999e-01
4.553838212e-01,1.35598e-02,9.99999e-01,9.99994e-01,1.35599e-02,9.99999e-01
4.576607403e-01,1.47621e-02,9.99999e-01,9.99997e-01,1.47621e-02,9.99999e-01
4.599490440e-01,1.60440e-02,9.99999e-01,9.99997e-01,1.60440e-02,9.99999e-01
4.622487892e-01,1.74085e-02,9.99999e-01,9.99999e-01,1.74085e-02,9.99999e-01
4.645600332e-01,1.88586e-02,9.99999e-01,9.99998e-01,1.88587e-02,9.99999e-01
4.668828333e-01,2.03970e-02,9.99999e-01,9.99980e-01,2.03974e-02,9.99999e-01
4.692172475e-01,2.20266e-02,9.99999e-01,9.99959e-01,2.20274e-02,9.99999e-01
4.715633337e-01,2.37511e-02,9.99999e-01,9.99973e-01,2.37517e-02,9.99999e-01
4.739211504e-01,2.55722e-02,9.99999e-01,9.99974e-01,2.55728e-02,9.99999e-01
4.762907561e-01,2.74931e-02,9.99999e-01,9.99986e-01,2.74934e-02,9.99999e-01
4.786722099e-01,2.95159e-02,9.99999e-01,9.99994e-01,2.95160e-02,9.99999e-01
4.810655710e-01,3.16430e-02,9.99999e-01,9.99997e-01,3.16430e-02,9.99999e-01
4.834708988e-01,3.38762e-02,9.99999e-01,9.99984e-01,3.38767e-02,9.99999e-01
4.858882533e-01,3.62182e-02,9.99999e-01,9.99971e-01,3.62192e-02,9.99999e-01
4.883176946e-01,3.86717e-02,9.99999e-01,9.99975e-01,3.86727e-02,9.99999e-01
4.907592831e-01,4.12379e-02,9.99999e-01,9.99978e-01,4.12388e-02,9.99999e-01
4.932130795e-01,4.39188e-02,9.99999e-01,9.99984e-01,4.39195e-02,9.99999e-01
4.956791449e-01,4.67159e-02,9.99999e-01,9.99991e-01,4.67163e-02,9.99999e-01
4.981575406e-01,4.96286e-02,9.99999e-01,9.99959e-01,4.96306e-02,9.99999e-01
5.006483283e-01,5.26582e-02,9.99999e-01,9.99895e-01,5.26637e-02,9.99999e-01
5.031515699e-01,5.57874e-02,9.99999e-01,9.99473e-01,5.58168e-02,9.99999e-01
5.056673278e-01,5.90744e-02,9.99999e-01,9.99722e-01,5.90907e-02,9.99999e-01
5.081956644e-01,6.24645e-02,9.99999e-01,9.99649e-01,6.24863e-02,9.99999e-01
5.107366428e-01,6.59886e-02,9.99999e-01,9.99763e-01,6.60041e-02,9.99999e-01
5.132903260e-01,6.96352e-02,9.99999e-01,9.99864e-01,6.96446e-02,9.99999e-01
5.158567776e-01,7.34038e-02,9.99999e-01,9.99942e-01,7.34080e-02,9.99999e-01
5.184360615e-01,7.72926e-02,9.99999e-01,9.99976e-01,7.72944e-02,9.99999e-01
5.210282418e-01,8.13029e-02,9.99999e-01,9.99990e-01,8.13036e-02,9.99999e-01
5.236333830e-01,8.54324e-02,9.99999e-01,9.99965e-01,8.54354e-02,9.99999e-01
5.262515499e-01,8.96873e-02,9.99999e-01,9.99978e-01,8.96893e-02,9.99999e-01
5.288828077e-01,9.40628e-02,9.99999e-01,9.99979e-01,9.40646e-02,9.99999e-01
5.315272217e-01,9.85590e-02,9.99999e-01,9.99982e-01,9.85607e-02,9.99999e-01
5.341848578e-01,1.03175e-01,9.99999e-01,9.99988e-01,1.03176e-01,9.99999e-01
5.368557821e-01,1.07906e-01,9.99999e-01,9.99959e-01,1.07911e-01,9.99999e-01
5.395400610e-01,1.12746e-01,9.99999e-01,9.99854e-01,1.12762e-01,9.99999e-01
5.422377613e-01,1.17708e-01,9.99999e-01,9.99813e-01,1.17730e-01,9.99999e-01
5.449489501e-01,1.22790e-01,9.99999e-01,9.99826e-01,1.22811e-01,9.99999e-01
5.476736949e-01,1.27986e-01,9.99999e-01,9.99846e-01,1.28005e-01,9.99999e-01
5.504120634e-01,1.33295e-01,9.99999e-01,9.99888e-01,1.33310e-01,9.99999e-01
5.531641237e-01,1.38715e-01,9.99999e-01,9.99943e-01,1.38723e-01,9.99999e-01
5.559299443e-01,1.44239e-01,9.99999e-01,9.99972e-01,1.44243e-01,9.99999e-01
5.587095940e-01,1.49864e-01,9.99999e-01,9.99982e-01,1.49866e-01,9.99999e-01
5.615031420e-01,1.55588e-01,9.99999e-01,9.99980e-01,1.55591e-01,9.99999e-01
5.643106577e-01,1.61412e-01,9.99999e-01,9.99977e-01,1.61416e-01,9.99999e-01
5.671322110e-01,1.67293e-01,9.99999e-01,9.99737e-01,1.67337e-01,9.99999e-01
5.699678720e-01,1.73303e-01,9.99999e-01,9.99724e-01,1.73351e-01,9.99999e-01
5.728177114e-01,1.79405e-01,9.99999e-01,9.99711e-01,1.79457e-01,9.99999e-01
5.756818000e-01,1.85601e-01,9.99999e-01,9.99735e-01,1.85650e-01,9.99999e-01
5.785602090e-01,1.91885e-01,9.99999e-01,9.99769e-01,1.91929e-01,9.99999e-01
5.814530100e-01,1.98244e-01,9.99999e-01,9.99768e-01,1.98290e-01,9.99999e-01
5.843602750e-01,2.04673e-01,9.99999e-01,9.99722e-01,2.04730e-01,9.99999e-01
5.872820764e-01,2.10741e-01,9.99999e-01,9.97613e-01,2.11245e-01,9.99999e-01
5.902184868e-01,2.17206e-01,9.99999e-01,9.97122e-01,2.17833e-01,9.99999e-01
5.931695792e-01,2.24033e-01,9.99999e-01,9.97963e-01,2.24490e-01,9.99999e-01
5.961354271e-01,2.30698e-01,9.99999e-01,9.97770e-01,2.31213e-01,9.99999e-01
5.991161043e-01,2.37612e-01,9.99999e-01,9.98374e-01,2.37999e-01,9.99999e-01
6.021116848e-01,2.44618e-01,9.99999e-01,9.99077e-01,2.44844e-01,9.99999e-01
6.051222432e-01,2.51627e-01,9.99999e-01,9.99533e-01,2.51745e-01,9.99999e-01
6.081478544e-01,2.58646e-01,9.99999e-01,9.99798e-01,2.58698e-01,9.99999e-01
6.111885937e-01,2.65677e-01,9.99999e-01,9.99914e-01,2.65700e-01,9.99999e-01
6.142445367e-01,2.72738e-01,9.99999e-01,9.99961e-01,2.72748e-01,9.99999e-01
6.173157594e-01,2.79832e-01,9.99999e-01,9.99978e-01,2.79838e-01,9.99999e-01
6.204023382e-01,2.86962e-01,9.99999e-01,9.99981e-01,2.86967e-01,9.99999e-01
6.235043498e-01,2.94108e-01,9.99999e-01,9.99920e-01,2.94131e-01,9.99999e-01
6.266218716e-01,3.01202e-01,9.99999e-01,9.99585e-01,3.01327e-01,9.99999e-01
6.297549810e-01,3.08505e-01,9.99999e-01,9.99847e-01,3.08552e-01,9.99999e-01
6.329037559e-01,3.15708e-01,9.99999e-01,9.99699e-01,3.15802e-01,9.99999e-01
6.360682746e-01,3.22992e-01,9.99999e-01,9.99743e-01,3.23075e-01,9.99999e-01
6.392486160e-01,3.30257e-01,9.99999e-01,9.99668e-01,3.30366e-01,9.99999e-01
6.424448591e-01,3.37523e-01,9.99999e-01,9.99554e-01,3.37673e-01,9.99999e-01
6.456570834e-01,3.44279e-01,9.99999e-01,9.97931e-01,3.44993e-01,9.99999e-01
6.488853688e-01,3.51791e-01,9.99999e-01,9.98493e-01,3.52322e-01,9.99999e-01
6.521297956e-01,3.59105e-01,9.99999e-01,9.98464e-01,3.59657e-01,9.99999e-01
6.553904446e-01,3.66434e-01,9.99999e-01,9.98468e-01,3.66996e-01,9.99999e-01
6.586673968e-01,3.73845e-01,9.99999e-01,9.98690e-01,3.74335e-01,9.99999e-01
6.619607338e-01,3.81393e-01,9.99999e-01,9.99270e-01,3.81671e-01,9.99999e-01
6.652705375e-01,3.88832e-01,9.99999e-01,9.99561e-01,3.89002e-01,9.99999e-01
6.685968902e-01,3.96251e-01,9.99999e-01,9.99813e-01,3.96325e-01,9.99999e-01
6.719398746e-01,4.03599e-01,9.99999e-01,9.99905e-01,4.03637e-01,9.99999e-01
6.752995740e-01,4.10914e-01,9.99999e-01,9.99948e-01,4.10935e-01,9.99999e-01
6.786760719e-01,4.18187e-01,9.99999e-01,9.99925e-01,4.18218e-01,9.99999e-01
6.820694522e-01,4.25428e-01,9.99999e-01,9.99873e-01,4.25481e-01,9.99999e-01
6.854797995e-01,4.32653e-01,9.99999e-01,9.99836e-01,4.32724e-01,9.99999e-01
6.889071985e-01,4.39768e-01,9.99999e-01,9.99601e-01,4.39943e-01,9.99999e-01
6.923517345e-01,4.44248e-01,9.99999e-01,9.93539e-01,4.47137e-01,9.99999e-01
6.958134932e-01,4.52790e-01,9.99999e-01,9.96669e-01,4.54303e-01,9.99999e-01
6.992925606e-01,4.59964e-01,9.99999e-01,9.96805e-01,4.61438e-01,9.99999e-01
7.027890234e-01,4.66701e-01,9.99999e-01,9.96072e-01,4.68541e-01,9.99999e-01
7.063029686e-01,4.74040e-01,9.99999e-01,9.96696e-01,4.75611e-01,9.99999e-01
7.098344834e-01,4.81114e-01,9.99999e-01,9.96830e-01,4.82644e-01,9.99999e-01
7.133836558e-01,4.87558e-01,9.99999e-01,9.95749e-01,4.89639e-01,9.99999e-01
7.169505741e-01,4.79850e-01,9.99999e-01,9.66282e-01,4.96594e-01,9.99999e-01
7.205353270e-01,4.95212e-01,9.99999e-01,9.83523e-01,5.03508e-01,9.99999e-01
7.241380036e-01,4.99644e-01,9.99999e-01,9.78967e-01,5.10378e-01,9.99999e-01
7.277586936e-01,5.07382e-01,9.99999e-01,9.81008e-01,5.17204e-01,9.99999e-01
7.313974871e-01,5.13449e-01,9.99999e-01,9.79894e-01,5.23984e-01,9.99999e-01
7.350544745e-01,5.24861e-01,9.99999e-01,9.88967e-01,5.30716e-01,9.99999e-01
7.387297469e-01,5.33035e-01,9.99999e-01,9.91878e-01,5.37399e-01,9.99999e-01
7.424233956e-01,5.41869e-01,9.99999e-01,9.96024e-01,5.44032e-01,9.99999e-01
7.461355126e-01,5.49285e-01,9.99999e-01,9.97587e-01,5.50613e-01,9.99999e-01
7.498661902e-01,5.56516e-01,9.99999e-01,9.98877e-01,5.57141e-01,9.99999e-01
7.536155211e-01,5.63305e-01,9.99999e-01,9.99448e-01,5.63616e-01,9.99999e-01
7.573835987e-01,5.69874e-01,9.99999e-01,9.99716e-01,5.70035e-01,9.99999e-01
7.611705167e-01,5.76297e-01,9.99999e-01,9.99823e-01,5.76399e-01,9.99999e-01
7.649763693e-01,5.82642e-01,9.99999e-01,9.99889e-01,5.82706e-01,9.99999e-01
7.688012511e-01,5.88910e-01,9.99999e-01,9.99922e-01,5.88955e-01,9.99999e-01
7.726452574e-01,5.95109e-01,9.99999e-01,9.99936e-01,5.95146e-01,9.99999e-01
7.765084837e-01,6.01224e-01,9.99999e-01,9.99909e-01,6.01278e-01,9.99999e-01
7.803910261e-01,5.92072e-01,9.75216e-01,9.99608e-01,6.07350e-01,9.99999e-01
7.842929812e-01,5.50889e-01,8.99331e-01,9.98634e-01,6.13362e-01,9.99999e-01
7.882144461e-01,5.50939e-01,8.92023e-01,9.97200e-01,6.19313e-01,9.99999e-01
7.921555184e-01,5.84361e-01,9.36085e-01,9.98467e-01,6.25202e-01,9.99999e-01
7.961162960e-01,6.02257e-01,9.56991e-01,9.97278e-01,6.31029e-01,9.99999e-01
8.000968774e-01,6.19845e-01,9.76436e-01,9.96865e-01,6.36794e-01,9.99999e-01
8.040973618e-01,6.32641e-01,9.87755e-01,9.96862e-01,6.42496e-01,9.99999e-01
8.081178486e-01,6.39910e-01,9.94350e-01,9.92912e-01,6.48135e-01,9.99999e-01
8.121584379e-01,6.33492e-01,9.98260e-01,9.70747e-01,6.53711e-01,9.99999e-01
8.162192301e-01,6.36242e-01,9.99615e-01,9.65505e-01,6.59223e-01,9.99999e-01
8.203003262e-01,6.53008e-01,9.99994e-01,9.82458e-01,6.64671e-01,9.99998e-01
8.244018279e-01,6.53850e-01,9.99999e-01,9.75815e-01,6.70055e-01,9.99998e-01
8.285238370e-01,6.61355e-01,9.99999e-01,9.79239e-01,6.75376e-01,9.99999e-01
8.326664562e-01,6.66371e-01,9.99999e-01,9.79048e-01,6.80632e-01,9.99999e-01
8.368297885e-01,6.75553e-01,9.99999e-01,9.85023e-01,6.85824e-01,9.99999e-01
8.410139374e-01,6.84791e-01,9.99999e-01,9.91082e-01,6.90952e-01,9.99999e-01
8.452190071e-01,6.92969e-01,9.99999e-01,9.95622e-01,6.96016e-01,9.99999e-01
8.494451021e-01,6.99232e-01,9.99999e-01,9.97454e-01,7.01016e-01,9.99999e-01
8.536923276e-01,7.04891e-01,9.99999e-01,9.98496e-01,7.05952e-01,9.99999e-01
8.579607893e-01,7.10165e-01,9.99999e-01,9.99072e-01,7.10824e-01,9.99999e-01
8.622505932e-01,7.15212e-01,9.99999e-01,9.99411e-01,7.15633e-01,9.99999e-01
8.665618462e-01,6.76700e-01,9.39699e-01,9.99635e-01,7.20378e-01,9.99999e-01
8.708946554e-01,5.51886e-01,7.61468e-01,9.99581e-01,7.25060e-01,9.99999e-01
8.752491287e-01,5.86702e-01,8.04493e-01,9.99441e-01,7.29679e-01,9.99999e-01
8.796253743e-01,6.51555e-01,8.88066e-01,9.99224e-01,7.34235e-01,9.99999e-01
8.840235012e-01,6.94145e-01,9.40470e-01,9.99114e-01,7.38729e-01,9.99999e-01
8.884436187e-01,7.23110e-01,9.76175e-01,9.96743e-01,7.43161e-01,9.99999e-01
8.928858368e-01,7.15364e-01,9.90278e-01,9.66305e-01,7.47532e-01,9.99999e-01
8.973502660e-01,7.06098e-01,9.97638e-01,9.41350e-01,7.51840e-01,9.99998e-01
9.018370173e-01,7.33009e-01,9.99739e-01,9.69722e-01,7.56088e-01,9.99998e-01
9.063462024e-01,7.34930e-01,9.93204e-01,9.73133e-01,7.60275e-01,9.99998e-01
9.108779334e-01,7.21554e-01,9.84680e-01,9.58503e-01,7.64403e-01,9.99998e-01
9.154323231e-01,7.29809e-01,9.96403e-01,9.53067e-01,7.68470e-01,9.99998e-01
9.200094847e-01,7.05683e-01,9.47213e-01,9.63075e-01,7.72478e-01,9.99997e-01
9.246095321e-01,6.78697e-01,9.27109e-01,9.41910e-01,7.76427e-01,9.99996e-01
9.292325798e-01,4.95123e-01,9.41947e-01,6.70403e-01,7.80317e-01,9.99993e-01
9.338787427e-01,4.44650e-01,9.44217e-01,5.97791e-01,7.84150e-01,9.99992e-01
9.385481364e-01,6.15282e-01,9.58742e-01,8.13050e-01,7.87925e-01,9.99992e-01
9.432408771e-01,5.77250e-01,9.74595e-01,7.47404e-01,7.91644e-01,9.99991e-01
9.479570815e-01,5.24503e-01,9.86874e-01,6.67906e-01,7.95305e-01,9.99992e-01
9.526968669e-01,5.88714e-01,9.93656e-01,7.41288e-01,7.98911e-01,9.99994e-01
9.574603512e-01,6.09059e-01,9.97284e-01,7.60958e-01,8.02462e-01,9.99995e-01
9.622476530e-01,6.45313e-01,9.99152e-01,8.01330e-01,8.05958e-01,9.99996e-01
9.670588912e-01,7.12266e-01,9.99746e-01,8.80209e-01,8.09399e-01,9.99997e-01
9.718941857e-01,7.50602e-01,9.99981e-01,9.23506e-01,8.12787e-01,9.99998e-01
9.767536566e-01,7.63960e-01,9.99999e-01,9.36085e-01,8.16122e-01,9.99998e-01
9.816374249e-01,7.80339e-01,9.99999e-01,9.52324e-01,8.19404e-01,9.99999e-01
9.865456120e-01,7.97925e-01,9.99999e-01,9.69962e-01,8.22634e-01,9.99999e-01
9.914783401e-01,8.10395e-01,9.99999e-01,9.81330e-01,8.25813e-01,9.99999e-01
9.964357318e-01,8.20480e-01,9.99999e-01,9.89792e-01,8.28941e-01,9.99999e-01
1.001417910e+00,8.26920e-01,9.99999e-01,9.93872e-01,8.32018e-01,9.99999e-01
1.006425000e+00,8.32124e-01,9.99999e-01,9.96500e-01,8.35046e-01,9.99999e-01
1.011457125e+00,8.36206e-01,9.99999e-01,9.97829e-01,8.38025e-01,9.99999e-01
1.016514411e+00,8.39715e-01,9.99999e-01,9.98524e-01,8.40955e-01,9.99999e-01
1.021596983e+00,8.42813e-01,9.99961e-01,9.98824e-01,8.43837e-01,9.99999e-01
1.026704968e+00,8.43652e-01,9.97346e-01,9.99082e-01,8.46672e-01,9.99999e-01
1.031838492e+00,8.18338e-01,9.63986e-01,9.99333e-01,8.49460e-01,9.99999e-01
1.036997685e+00,1.79105e-01,2.10235e-01,9.99603e-01,8.52202e-01,9.99999e-01
1.042182673e+00,1.87546e-01,2.19473e-01,9.99526e-01,8.54898e-01,9.99999e-01
1.047393587e+00,1.90606e-01,2.22393e-01,9.99373e-01,8.57550e-01,9.99999e-01
1.052630555e+00,1.38706e-02,1.61362e-02,9.99139e-01,8.60157e-01,9.99999e-01
1.057893707e+00,3.02525e-02,3.51032e-02,9.98562e-01,8.62720e-01,9.99999e-01
1.063183176e+00,7.45840e-02,8.63564e-02,9.97636e-01,8.65240e-01,9.99999e-01
1.068499092e+00,1.62958e-01,1.88455e-01,9.96046e-01,8.67717e-01,9.99999e-01
1.073841587e+00,3.02859e-01,3.49485e-01,9.95368e-01,8.70153e-01,9.99999e-01
1.079210795e+00,4.46360e-01,5.14411e-01,9.94078e-01,8.72546e-01,9.99999e-01
1.084606849e+00,6.02806e-01,6.95024e-01,9.91038e-01,8.74899e-01,9.99999e-01
1.090029883e+00,7.17200e-01,8.28061e-01,9.87108e-01,8.77212e-01,9.99999e-01
1.095480033e+00,7.73894e-01,9.11344e-01,9.65283e-01,8.79485e-01,9.99998e-01
1.100957433e+00,7.70923e-01,9.56288e-01,9.14009e-01,8.81719e-01,9.99997e-01
1.106462220e+00,6.90078e-01,9.81706e-01,7.94877e-01,8.83914e-01,9.99996e-01
1.111994531e+00,5.43409e-01,9.93181e-01,6.17272e-01,8.86071e-01,9.99992e-01
1.117554504e+00,4.05893e-01,9.98335e-01,4.57648e-01,8.88190e-01,9.99990e-01
1.123142276e+00,4.99825e-01,9.99890e-01,5.61470e-01,8.90273e-01,9.99988e-01
1.128757988e+00,6.17178e-01,9.99999e-01,6.91664e-01,8.92319e-01,9.99987e-01
1.134401778e+00,3.90262e-01,9.99999e-01,4.36379e-01,8.94329e-01,9.99985e-01
1.140073787e+00,7.19982e-01,9.99999e-01,8.03286e-01,8.96304e-01,9.99988e-01
1.145774156e+00,5.68250e-01,9.99999e-01,6.32628e-01,8.98245e-01,9.99990e-01
1.151503026e+00,5.39689e-01,9.99999e-01,5.99558e-01,9.00151e-01,9.99991e-01
1.157260541e+00,5.90403e-01,9.99999e-01,6.54535e-01,9.02023e-01,9.99993e-01
1.163046844e+00,6.61221e-01,9.99999e-01,7.31553e-01,9.03862e-01,9.99995e-01
1.168862078e+00,7.29303e-01,9.99999e-01,8.05265e-01,9.05668e-01,9.99997e-01
1.174706389e+00,7.93917e-01,9.99999e-01,8.74895e-01,9.07443e-01,9.99998e-01
1.180579921e+00,8.38174e-01,9.99999e-01,9.21895e-01,9.09185e-01,9.99998e-01
1.186482820e+00,8.70000e-01,9.99994e-01,9.55107e-01,9.10897e-01,9.99998e-01
1.192415234e+00,8.80061e-01,9.90490e-01,9.73554e-01,9.12577e-01,9.99999e-01
1.198377311e+00,5.12210e-01,5.70968e-01,9.77645e-01,9.14228e-01,9.99999e-01
1.204369197e+00,1.60786e-08,1.77740e-08,9.78835e-01,9.15849e-01,9.99999e-01
1.210391043e+00,3.58713e-29,3.95454e-29,9.79758e-01,9.17440e-01,9.99999e-01
1.216442998e+00,1.77018e-25,1.94701e-25,9.82773e-01,9.19003e-01,9.99999e-01
1.222525213e+00,4.06612e-25,4.44805e-25,9.86561e-01,9.20538e-01,9.99999e-01
1.228637839e+00,2.03934e-19,2.22640e-19,9.90648e-01,9.22044e-01,9.99999e-01
1.234781029e+00,5.85694e-13,6.36114e-13,9.93052e-01,9.23524e-01,9.99999e-01
1.240954934e+00,8.87300e-09,9.62058e-09,9.95600e-01,9.24976e-01,9.99999e-01
1.247159708e+00,3.59021e-05,3.88404e-05,9.96574e-01,9.26402e-01,9.99999e-01
1.253395507e+00,2.82835e-03,3.05570e-03,9.96956e-01,9.27802e-01,9.99999e-01
1.259662485e+00,3.39577e-02,3.66350e-02,9.97105e-01,9.29176e-01,9.99999e-01
1.265960797e+00,1.36410e-01,1.47172e-01,9.95381e-01,9.30525e-01,9.99999e-01
1.272290601e+00,4.17231e-01,4.50812e-01,9.92741e-01,9.31850e-01,9.99999e-01
1.278652054e+00,3.58294e-01,3.88624e-01,9.85612e-01,9.33150e-01,9.99999e-01
1.285045314e+00,1.24941e-02,1.35323e-02,9.74021e-01,9.34426e-01,9.99999e-01
1.291470541e+00,3.88897e-04,4.29020e-04,9.55155e-01,9.35679e-01,9.99998e-01
1.297927893e+00,2.56830e-02,2.84904e-02,9.36760e-01,9.36908e-01,9.99997e-01
1.304417533e+00,2.05518e-01,2.35226e-01,9.25902e-01,9.38115e-01,9.99996e-01
1.310939621e+00,5.33307e-02,5.99298e-02,9.15369e-01,9.39299e-01,9.99994e-01
1.317494319e+00,1.59429e-10,1.79675e-10,9.08892e-01,9.40462e-01,9.99991e-01
1.324081790e+00,1.60010e-07,1.82538e-07,8.66362e-01,9.41603e-01,9.99985e-01
1.330702199e+00,1.43556e-04,2.10028e-04,5.51784e-01,9.42723e-01,9.99976e-01
1.337355710e+00,6.85881e-05,1.89250e-04,2.26300e-01,9.43822e-01,9.99956e-01
1.344042489e+00,1.09821e-05,5.54941e-05,2.20296e-02,9.44900e-01,9.99906e-01
1.350762701e+00,1.91903e-07,1.45997e-04,4.78151e-04,9.45959e-01,9.99851e-01
1.357516515e+00,2.55643e-07,3.20265e-03,2.94119e-05,9.46997e-01,9.99815e-01
1.364304097e+00,4.19840e-05,2.59578e-02,1.03781e-03,9.48016e-01,9.99802e-01
1.371125618e+00,1.90743e-03,1.47143e-01,9.75860e-03,9.49017e-01,9.99800e-01
1.377981246e+00,4.57160e-03,2.11971e-01,1.93735e-02,9.49998e-01,9.99786e-01
1.384871152e+00,4.47131e-04,4.05549e-01,9.94069e-04,9.50961e-01,9.99792e-01
1.391795508e+00,6.77710e-04,4.34533e-01,1.42229e-03,9.51906e-01,9.99823e-01
1.398754485e+00,2.33056e-03,5.98520e-01,3.90835e-03,9.52833e-01,9.99848e-01
1.405748258e+00,2.44142e-03,6.85062e-01,3.50882e-03,9.53743e-01,9.99864e-01
1.412776999e+00,3.02215e-03,7.87736e-01,3.85550e-03,9.54636e-01,9.99890e-01
1.419840884e+00,4.47907e-03,7.15525e-01,5.57293e-03,9.55511e-01,9.99918e-01
1.426940089e+00,4.79805e-03,8.13360e-02,1.71409e-02,9.56371e-01,9.99949e-01
1.434074789e+00,0.00000e+00,0.00000e+00,4.47565e-02,9.57214e-01,9.99968e-01
1.441245163e+00,0.00000e+00,0.00000e+00,9.45941e-02,9.58041e-01,9.99975e-01
1.448451389e+00,0.00000e+00,0.00000e+00,1.85859e-01,9.58852e-01,9.99979e-01
1.455693646e+00,1.16637e-229,2.13736e-229,3.32756e-01,9.59648e-01,9.99982e-01
1.462972114e+00,9.40099e-112,1.72132e-111,3.88431e-01,9.60429e-01,9.99985e-01
1.470286975e+00,1.79927e-47,3.44265e-47,3.31381e-01,9.61196e-01,9.99986e-01
