#,Wave/freq,Total,CO2,H2O,Rayleigh,CIA
4.000000000e-01,4.19620e-05,9.99999e-01,9.99979e-01,4.19628e-05,9.99999e-01
4.020000000e-01,5.12161e-05,9.99999e-01,9.99987e-01,5.12167e-05,9.99999e-01
4.040100000e-01,6.22529e-05,9.99999e-01,9.99994e-01,6.22532e-05,9.99999e-01
4.060300500e-01,7.53766e-05,9.99999e-01,9.99998e-01,7.53767e-05,9.99999e-01
4.080602003e-01,9.09226e-05,9.99999e-01,9.99999e-01,9.09227e-05,9.99999e-01
4.101005013e-01,1.09269e-04,9.99999e-01,9.99999e-01,1.09269e-04,9.99999e-01
4.121510038e-01,1.30842e-04,9.99999e-01,9.99998e-01,1.30842e-04,9.99999e-01
4.142117588e-01,1.56117e-04,9.99999e-01,9.99994e-01,1.56118e-04,9.99999e-01
4.162828176e-01,1.85622e-04,9.99999e-01,9.99975e-01,1.85627e-04,9.99999e-01
4.183642317e-01,2.19957e-04,9.99999e-01,9.99985e-01,2.19960e-04,9.99999e-01
4.204560528e-01,2.59769e-04,9.99999e-01,9.99990e-01,2.59772e-04,9.99999e-01
4.225583331e-01,3.05781e-04,9.99999e-01,9.99996e-01,3.05782e-04,9.99999e-01
4.246711247e-01,3.58784e-04,9.99999e-01,9.99996e-01,3.58785e-04,9.99999e-01
4.267944804e-01,4.19646e-04,9.99999e-01,9.99995e-01,4.19648e-04,9.99999e-01
4.289284528e-01,4.89317e-04,9.99999e-01,9.99996e-01,4.89318e-04,9.99999e-01
4.310730950e-01,5.68826e-04,9.99999e-01,9.99998e-01,5.68827e-04,9.99999e-01
4.332284605e-01,6.59291e-04,9.99999e-01,9.99999e-01,6.59291e-04,9.99999e-01
4.353946028e-01,7.61918e-04,9.99999e-01,9.99999e-01,7.61918e-04,9.99999e-01
4.375715758e-01,8.78005e-04,9.99999e-01,9.99997e-01,8.78008e-04,9.99999e-01
4.397594337e-01,1.00893e-03,9.99999e-01,9.99977e-01,1.00895e-03,9.99999e-01
4.419582309e-01,1.15613e-03,9.99999e-01,9.99889e-01,1.15625e-03,9.99999e-01
4.441680220e-01,1.32138e-03,9.99999e-01,9.99914e-01,1.32149e-03,9.99999e-01
4.463888621e-01,1.50623e-03,9.99999e-01,9.99911e-01,1.50637e-03,9.99999e-01
4.486208064e-01,1.71258e-03,9.99999e-01,9.99944e-01,1.71267e-03,9.99999e-01
4.508639105e-01,1.94225e-03,9.99999e-01,9.99973e-01,1.94230e-03,9.99999e-01
4.531182300e-01,2.19722e-03,9.99999e-01,9.99989e-01,2.19724e-03,9.99999e-01
4.553838212e-01,2.47959e-03,9.99999e-01,9.99992e-01,2.47960e-03,9.99999e-01
4.576607403e-01,2.79157e-03,9.99999e-01,9.99996e-01,2.79158e-03,9.99999e-01
4.599490440e-01,3.13545e-03,9.99999e-01,9.99997e-01,3.13546e-03,9.99999e-01
4.622487892e-01,3.51362e-03,9.99999e-01,9.99999e-01,3.51362e-03,9.99999e-01
4.645600332e-01,3.92854e-03,9.99999e-01,9.99997e-01,3.92855e-03,9.99999e-01
4.668828333e-01,4.38269e-03,9.99999e-01,9.99973e-01,4.38280e-03,9.99999e-01
4.692172475e-01,4.87876e-03,9.99999e-01,9.99944e-01,4.87903e-03,9.99999e-01
4.715633337e-01,5.41974e-03,9.99999e-01,9.99963e-01,5.41994e-03,9.99999e-01
4.739211504e-01,6.00812e-03,9.99999e-01,9.99964e-01,6.00833e-03,9.99999e-01
4.762907561e-01,6.64693e-03,9.99999e-01,9.99981e-01,6.64705e-03,9.99999e-01
4.786722099e-01,7.33895e-03,9.99999e-01,9.99992e-01,7.33901e-03,9.99999e-01
4.810655710e-01,8.08715e-03,9.99999e-01,9.99997e-01,8.08716e-03,9.99999e-01
4.834708988e-01,8.89433e-03,9.99999e-01,9.99977e-01,8.89452e-03,9.99999e-01
4.858882533e-01,9.76372e-03,9.99999e-01,9.99960e-01,9.76410e-03,9.99999e-01
4.883176946e-01,1.06986e-02,9.99999e-01,9.99966e-01,1.06990e-02,9.99999e-01
4.907592831e-01,1.17019e-02,9.99999e-01,9.99969e-01,1.17022e-02,9.99999e-01
4.932130795e-01,1.27766e-02,9.99999e-01,9.99978e-01,1.27769e-02,9.99999e-01
4.956791449e-01,1.39259e-02,9.99999e-01,9.99988e-01,1.39260e-02,9.99999e-01
4.981575406e-01,1.51519e-02,9.99999e-01,9.99943e-01,1.51527e-02,9.99999e-01
5.006483283e-01,1.64576e-02,9.99999e-01,9.99853e-01,1.64600e-02,9.99999e-01
5.031515699e-01,1.78378e-02,9.99999e-01,9.99264e-01,1.78509e-02,9.99999e-01
5.056673278e-01,1.93209e-02,9.99999e-01,9.99612e-01,1.93283e-02,9.99999e-01
5.081956644e-01,2.08850e-02,9.99999e-01,9.99511e-01,2.08952e-02,9.99999e-01
5.107366428e-01,2.25469e-02,9.99999e-01,9.99670e-01,2.25543e-02,9.99999e-01
5.132903260e-01,2.43039e-02,9.99999e-01,9.99811e-01,2.43085e-02,9.99999e-01
5.158567776e-01,2.61582e-02,9.99999e-01,9.99920e-01,2.61603e-02,9.99999e-01
5.184360615e-01,2.81115e-02,9.99999e-01,9.99967e-01,2.81124e-02,9.99999e-01
5.210282418e-01,3.01669e-02,9.99999e-01,9.99987e-01,3.01673e-02,9.99999e-01
5.236333830e-01,3.23257e-02,9.99999e-01,9.99951e-01,3.23273e-02,9.99999e-01
5.262515499e-01,3.45936e-02,9.99999e-01,9.99969e-01,3.45946e-02,9.99999e-01
5.288828077e-01,3.69705e-02,9.99999e-01,9.99972e-01,3.69715e-02,9.99999e-01
5.315272217e-01,3.94589e-02,9.99999e-01,9.99975e-01,3.94598e-02,9.99999e-01
5.341848578e-01,4.20608e-02,9.99999e-01,9.99983e-01,4.20615e-02,9.99999e-01
5.368557821e-01,4.47757e-02,9.99999e-01,9.99943e-01,4.47782e-02,9.99999e-01
5.395400610e-01,4.76018e-02,9.99999e-01,9.99797e-01,4.76114e-02,9.99999e-01
5.422377613e-01,5.05495e-02,9.99999e-01,9.99740e-01,5.05626e-02,9.99999e-01
5.449489501e-01,5.36200e-02,9.99999e-01,9.99757e-01,5.36330e-02,9.99999e-01
5.476736949e-01,5.68115e-02,9.99999e-01,9.99786e-01,5.68236e-02,9.99999e-01
5.504120634e-01,6.01261e-02,9.99999e-01,9.99844e-01,6.01354e-02,9.99999e-01
5.531641237e-01,6.35640e-02,9.99999e-01,9.99921e-01,6.35690e-02,9.99999e-01
5.559299443e-01,6.71225e-02,9.99999e-01,9.99961e-01,6.71250e-02,9.99999e-01
5.587095940e-01,7.08021e-02,9.99999e-01,9.99975e-01,7.08037e-02,9.99999e-01
5.615031420e-01,7.46035e-02,9.99999e-01,9.99973e-01,7.46054e-02,9.99999e-01
5.643106577e-01,7.85277e-02,9.99999e-01,9.99969e-01,7.85301e-02,9.99999e-01
5.671322110e-01,8.25472e-02,9.99999e-01,9.99632e-01,8.25775e-02,9.99999e-01
5.699678720e-01,8.67141e-02,9.99999e-01,9.99615e-01,8.67474e-02,9.99999e-01
5.728177114e-01,9.10026e-02,9.99999e-01,9.99597e-01,9.10392e-02,9.99999e-01
5.756818000e-01,9.54171e-02,9.99999e-01,9.99630e-01,9.54523e-02,9.99999e-01
5.785602090e-01,9.99536e-02,9.99999e-01,9.99678e-01,9.99857e-02,9.99999e-01
5.814530100e-01,1.04605e-01,9.99999e-01,9.99676e-01,1.04639e-01,9.99999e-01
5.843602750e-01,1.09367e-01,9.99999e-01,9.99612e-01,1.09410e-01,9.99999e-01
5.872820764e-01,1.13917e-01,9.99999e-01,9.96669e-01,1.14297e-01,9.99999e-01
5.902184868e-01,1.18822e-01,9.99999e-01,9.95989e-01,1.19301e-01,9.99999e-01
5.931695792e-01,1.24064e-01,9.99999e-01,9.97159e-01,1.24417e-01,9.99999e-01
5.961354271e-01,1.29243e-01,9.99999e-01,9.96891e-01,1.29646e-01,9.99999e-01
5.991161043e-01,1.34679e-01,9.99999e-01,9.97733e-01,1.34985e-01,9.99999e-01
6.021116848e-01,1.40251e-01,9.99999e-01,9.98714e-01,1.40431e-01,9.99999e-01
6.051222432e-01,1.45888e-01,9.99999e-01,9.99349e-01,1.45983e-01,9.99999e-01
6.081478544e-01,1.51596e-01,9.99999e-01,9.99718e-01,1.51639e-01,9.99999e-01
6.111885937e-01,1.57376e-01,9.99999e-01,9.99881e-01,1.57395e-01,9.99999e-01
6.142445367e-01,1.63241e-01,9.99999e-01,9.99946e-01,1.63250e-01,9.99999e-01
6.173157594e-01,1.69195e-01,9.99999e-01,9.99970e-01,1.69200e-01,9.99999e-01
6.204023382e-01,1.75239e-01,9.99999e-01,9.99974e-01,1.75243e-01,9.99999e-01
6.235043498e-01,1.81357e-01,9.99999e-01,9.99889e-01,1.81377e-01,9.99999e-01
6.266218716e-01,1.87489e-01,9.99999e-01,9.99421e-01,1.87597e-01,9.99999e-01
6.297549810e-01,1.93861e-01,9.99999e-01,9.99787e-01,1.93902e-01,9.99999e-01
6.329037559e-01,2.00204e-01,9.99999e-01,9.99581e-01,2.00288e-01,9.99999e-01
6.360682746e-01,2.06677e-01,9.99999e-01,9.99642e-01,2.06751e-01,9.99999e-01
6.392486160e-01,2.13191e-01,9.99999e-01,9.99537e-01,2.13290e-01,9.99999e-01
6.424448591e-01,2.19763e-01,9.99999e-01,9.99377e-01,2.19900e-01,9.99999e-01
6.456570834e-01,2.25924e-01,9.99999e-01,9.97113e-01,2.26578e-01,9.99999e-01
6.488853688e-01,2.32831e-01,9.99999e-01,9.97900e-01,2.33321e-01,9.99999e-01
6.521297956e-01,2.39611e-01,9.99999e-01,9.97859e-01,2.40125e-01,9.99999e-01
6.553904446e-01,2.46460e-01,9.99999e-01,9.97863e-01,2.46988e-01,9.99999e-01
6.586673968e-01,2.53442e-01,9.99999e-01,9.98174e-01,2.53905e-01,9.99999e-01
6.619607338e-01,2.60609e-01,9.99999e-01,9.98982e-01,2.60874e-01,9.99999e-01
6.652705375e-01,2.67727e-01,9.99999e-01,9.99389e-01,2.67891e-01,9.99999e-01
6.685968902e-01,2.74881e-01,9.99999e-01,9.99740e-01,2.74952e-01,9.99999e-01
6.719398746e-01,2.82017e-01,9.99999e-01,9.99868e-01,2.82054e-01,9.99999e-01
6.752995740e-01,2.89174e-01,9.99999e-01,9.99928e-01,2.89195e-01,9.99999e-01
6.786760719e-01,2.96339e-01,9.99999e-01,9.99896e-01,2.96369e-01,9.99999e-01
6.820694522e-01,3.03521e-01,9.99999e-01,9.99823e-01,3.03575e-01,9.99999e-01
6.854797995e-01,3.10737e-01,9.99999e-01,9.99771e-01,3.10808e-01,9.99999e-01
6.889071985e-01,3.17889e-01,9.99999e-01,9.99443e-01,3.18066e-01,9.99999e-01
6.923517345e-01,3.22414e-01,9.99999e-01,9.90993e-01,3.25344e-01,9.99999e-01
6.958134932e-01,3.31100e-01,9.99999e-01,9.95367e-01,3.32641e-01,9.99999e-01
6.992925606e-01,3.38437e-01,9.99999e-01,9.95543e-01,3.39952e-01,9.99999e-01
7.027890234e-01,3.45374e-01,9.99999e-01,9.94526e-01,3.47275e-01,9.99999e-01
7.063029686e-01,3.52973e-01,9.99999e-01,9.95395e-01,3.54606e-01,9.99999e-01
7.098344834e-01,3.60344e-01,9.99999e-01,9.95581e-01,3.61943e-01,9.99999e-01
7.133836558e-01,3.67091e-01,9.99999e-01,9.94068e-01,3.69282e-01,9.99999e-01
7.169505741e-01,3.59044e-01,9.99999e-01,9.53331e-01,3.76620e-01,9.99998e-01
7.205353270e-01,3.75185e-01,9.99999e-01,9.77158e-01,3.83955e-01,9.99998e-01
7.241380036e-01,3.79859e-01,9.99999e-01,9.70802e-01,3.91284e-01,9.99998e-01
7.277586936e-01,3.88092e-01,9.99999e-01,9.73629e-01,3.98604e-01,9.99998e-01
7.313974871e-01,3.94587e-01,9.99999e-01,9.72100e-01,4.05912e-01,9.99999e-01
7.350544745e-01,4.06865e-01,9.99999e-01,9.84655e-01,4.13205e-01,9.99999e-01
7.387297469e-01,4.15729e-01,9.99999e-01,9.88695e-01,4.20482e-01,9.99999e-01
7.424233956e-01,4.25372e-01,9.99999e-01,9.94462e-01,4.27740e-01,9.99999e-01
7.461355126e-01,4.33514e-01,9.99999e-01,9.96638e-01,4.34975e-01,9.99999e-01
7.498661902e-01,4.41496e-01,9.99999e-01,9.98436e-01,4.42187e-01,9.99999e-01
7.536155211e-01,4.49027e-01,9.99999e-01,9.99231e-01,4.49372e-01,9.99999e-01
7.573835987e-01,4.56348e-01,9.99999e-01,9.99604e-01,4.56529e-01,9.99999e-01
7.611705167e-01,4.63540e-01,9.99999e-01,9.99753e-01,4.63654e-01,9.99999e-01
7.649763693e-01,4.70675e-01,9.99999e-01,9.99845e-01,4.70747e-01,9.99999e-01
7.688012511e-01,4.77754e-01,9.99999e-01,9.99892e-01,4.77805e-01,9.99999e-01
7.726452574e-01,4.84784e-01,9.99999e-01,9.99911e-01,4.84827e-01,9.99999e-01
7.765084837e-01,4.91748e-01,9.99999e-01,9.99873e-01,4.91810e-01,9.99999e-01
7.803910261e-01,4.81682e-01,9.66285e-01,9.99453e-01,4.98752e-01,9.99999e-01
7.842929812e-01,4.35895e-01,8.63612e-01,9.98094e-01,5.05653e-01,9.99999e-01
7.882144461e-01,4.36078e-01,8.54073e-01,9.96096e-01,5.12510e-01,9.99999e-01
7.921555184e-01,4.72716e-01,9.12160e-01,9.97865e-01,5.19321e-01,9.99999e-01
7.961162960e-01,4.92976e-01,9.40603e-01,9.96202e-01,5.26086e-01,9.99999e-01
8.000968774e-01,5.13143e-01,9.67315e-01,9.95630e-01,5.32803e-01,9.99999e-01
8.040973618e-01,5.27974e-01,9.82981e-01,9.95625e-01,5.39470e-01,9.99999e-01
8.081178486e-01,5.36445e-01,9.92131e-01,9.90119e-01,5.46087e-01,9.99999e-01
8.121584379e-01,5.28968e-01,9.97578e-01,9.59445e-01,5.52652e-01,9.99999e-01
8.162192301e-01,5.32214e-01,9.99464e-01,9.52303e-01,5.59164e-01,9.99998e-01
8.203003262e-01,5.51854e-01,9.99992e-01,9.75666e-01,5.65621e-01,9.99998e-01
8.244018279e-01,5.52938e-01,9.99999e-01,9.66635e-01,5.72023e-01,9.99998e-01
8.285238370e-01,5.61697e-01,9.99999e-01,9.71173e-01,5.78370e-01,9.99998e-01
8.326664562e-01,5.67663e-01,9.99999e-01,9.70930e-01,5.84659e-01,9.99999e-01
8.368297885e-01,5.78593e-01,9.99999e-01,9.79187e-01,5.90890e-01,9.99999e-01
8.410139374e-01,5.89654e-01,9.99999e-01,9.87591e-01,5.97063e-01,9.99999e-01
8.452190071e-01,5.99499e-01,9.99999e-01,9.93903e-01,6.03176e-01,9.99999e-01
8.494451021e-01,6.07068e-01,9.99999e-01,9.96452e-01,6.09230e-01,9.99999e-01
8.536923276e-01,6.13934e-01,9.99999e-01,9.97904e-01,6.15222e-01,9.99999e-01
8.579607893e-01,6.20351e-01,9.99999e-01,9.98707e-01,6.21154e-01,9.99999e-01
8.622505932e-01,6.26510e-01,9.99999e-01,9.99179e-01,6.27024e-01,9.99999e-01
8.665618462e-01,5.85141e-01,9.25091e-01,9.99491e-01,6.32832e-01,9.99999e-01
8.708946554e-01,4.39048e-01,6.87928e-01,9.99416e-01,6.38577e-01,9.99999e-01
8.752491287e-01,4.76730e-01,7.40525e-01,9.99220e-01,6.44259e-01,9.99999e-01
8.796253743e-01,5.50566e-01,8.48073e-01,9.98918e-01,6.49879e-01,9.99999e-01
8.840235012e-01,6.01034e-01,9.18117e-01,9.98765e-01,6.55434e-01,9.99999e-01
8.884436187e-01,6.36221e-01,9.66977e-01,9.95450e-01,6.60927e-01,9.99999e-01
8.928858368e-01,6.26750e-01,9.86480e-01,9.53344e-01,6.66355e-01,9.99998e-01
8.973502660e-01,6.15552e-01,9.96712e-01,9.19346e-01,6.71719e-01,9.99998e-01
9.018370173e-01,6.48469e-01,9.99637e-01,9.58165e-01,6.77020e-01,9.99998e-01
9.063462024e-01,6.50818e-01,9.90534e-01,9.62761e-01,6.82256e-01,9.99998e-01
9.108779334e-01,6.34406e-01,9.78717e-01,9.42696e-01,6.87428e-01,9.99997e-01
9.154323231e-01,6.44521e-01,9.94997e-01,9.35250e-01,6.92536e-01,9.99997e-01
9.200094847e-01,6.16203e-01,9.28344e-01,9.48990e-01,6.97580e-01,9.99997e-01
9.246095321e-01,5.82986e-01,8.99976e-01,9.20303e-01,7.02560e-01,9.99995e-01
9.292325798e-01,3.78736e-01,9.20200e-01,5.76730e-01,7.07476e-01,9.99991e-01
9.338787427e-01,3.27406e-01,9.23247e-01,4.93753e-01,7.12329e-01,9.99989e-01
9.385481364e-01,5.10496e-01,9.42995e-01,7.52423e-01,7.17118e-01,9.99989e-01
9.432408771e-01,4.68828e-01,9.64771e-01,6.71903e-01,7.21843e-01,9.99987e-01
9.479570815e-01,4.12940e-01,9.81746e-01,5.78388e-01,7.26506e-01,9.99989e-01
9.526968669e-01,4.81596e-01,9.91170e-01,6.64088e-01,7.31105e-01,9.99991e-01
9.574603512e-01,5.02532e-01,9.96217e-01,6.85549e-01,7.35642e-01,9.99993e-01
9.622476530e-01,5.43949e-01,9.98819e-01,7.35770e-01,7.40117e-01,9.99995e-01
9.670588912e-01,6.23508e-01,9.99646e-01,8.37736e-01,7.44529e-01,9.99997e-01
9.718941857e-01,6.70316e-01,9.99974e-01,8.95112e-01,7.48880e-01,9.99998e-01
9.767536566e-01,6.86974e-01,9.99999e-01,9.12110e-01,7.53170e-01,9.99998e-01
9.816374249e-01,7.07566e-01,9.99999e-01,9.34204e-01,7.57399e-01,9.99998e-01
9.865456120e-01,7.29875e-01,9.99999e-01,9.58384e-01,7.61567e-01,9.99999e-01
9.914783401e-01,7.45818e-01,9.99999e-01,9.74065e-01,7.65676e-01,9.99999e-01
9.964357318e-01,7.58793e-01,9.99999e-01,9.85797e-01,7.69725e-01,9.99999e-01
1.001417910e+00,7.67112e-01,9.99999e-01,9.91466e-01,7.73714e-01,9.99999e-01
1.006425000e+00,7.73852e-01,9.99999e-01,9.95121e-01,7.77645e-01,9.99999e-01
1.011457125e+00,7.79153e-01,9.99999e-01,9.96974e-01,7.81517e-01,9.99999e-01
1.016514411e+00,7.83717e-01,9.99999e-01,9.97943e-01,7.85332e-01,9.99999e-01
1.021596983e+00,7.87753e-01,9.99945e-01,9.98360e-01,7.89090e-01,9.99999e-01
1.026704968e+00,7.88842e-01,9.96292e-01,9.98720e-01,7.92790e-01,9.99999e-01
1.031838492e+00,7.59495e-01,9.54476e-01,9.99071e-01,7.96435e-01,9.99999e-01
1.036997685e+00,1.24212e-01,1.55328e-01,9.99447e-01,8.00023e-01,9.99999e-01
1.042182673e+00,1.01912e-01,1.26901e-01,9.99339e-01,8.03557e-01,9.99999e-01
1.047393587e+00,1.18012e-01,1.46342e-01,9.99125e-01,8.07036e-01,9.99999e-01
1.052630555e+00,3.58712e-03,4.42994e-03,9.98799e-01,8.10461e-01,9.99999e-01
1.057893707e+00,9.12703e-03,1.12302e-02,9.97994e-01,8.13832e-01,9.99999e-01
1.063183176e+00,2.97504e-02,3.64940e-02,9.96703e-01,8.17150e-01,9.99999e-01
1.068499092e+00,8.17170e-02,1.00069e-01,9.94488e-01,8.20416e-01,9.99999e-01
1.073841587e+00,1.91716e-01,2.34063e-01,9.93544e-01,8.23630e-01,9.99999e-01
1.079210795e+00,3.27144e-01,3.98684e-01,9.91750e-01,8.26793e-01,9.99999e-01
1.084606849e+00,4.94609e-01,6.03175e-01,9.87522e-01,8.29905e-01,9.99999e-01
1.090029883e+00,6.29394e-01,7.69041e-01,9.82054e-01,8.32967e-01,9.99998e-01
1.095480033e+00,6.99637e-01,8.78742e-01,9.51902e-01,8.35979e-01,9.99998e-01
1.100957433e+00,6.95907e-01,9.39613e-01,8.82259e-01,8.38942e-01,9.99997e-01
1.106462220e+00,5.97319e-01,9.74598e-01,7.27359e-01,8.41858e-01,9.99994e-01
1.111994531e+00,4.30293e-01,9.90509e-01,5.13929e-01,8.44725e-01,9.99990e-01
1.117554504e+00,2.89134e-01,9.97682e-01,3.41795e-01,8.47545e-01,9.99986e-01
1.123142276e+00,3.88949e-01,9.99848e-01,4.57456e-01,8.50319e-01,9.99983e-01
1.128757988e+00,5.14567e-01,9.99999e-01,6.03220e-01,8.53047e-01,9.99982e-01
1.134401778e+00,2.95318e-01,9.99999e-01,3.45114e-01,8.55729e-01,9.99980e-01
1.140073787e+00,6.33953e-01,9.99999e-01,7.38569e-01,8.58366e-01,9.99984e-01
1.145774156e+00,4.59548e-01,9.99999e-01,5.33769e-01,8.60960e-01,9.99986e-01
1.151503026e+00,4.29365e-01,9.99999e-01,4.97238e-01,8.63509e-01,9.99988e-01
1.157260541e+00,4.81917e-01,9.99999e-01,5.56480e-01,8.66016e-01,9.99991e-01
1.163046844e+00,5.63236e-01,9.99999e-01,6.48533e-01,8.68480e-01,9.99994e-01
1.168862078e+00,6.44336e-01,9.99999e-01,7.39849e-01,8.70903e-01,9.99996e-01
1.174706389e+00,7.25069e-01,9.99999e-01,8.30280e-01,8.73284e-01,9.99998e-01
1.180579921e+00,7.81871e-01,9.99999e-01,8.92930e-01,8.75624e-01,9.99998e-01
1.186482820e+00,8.23472e-01,9.99991e-01,9.37983e-01,8.77924e-01,9.99998e-01
1.192415234e+00,8.36810e-01,9.86784e-01,9.63313e-01,8.80185e-01,9.99998e-01
1.198377311e+00,4.82625e-01,5.61543e-01,9.68957e-01,8.82406e-01,9.99998e-01
1.204369197e+00,5.35308e-11,6.15657e-11,9.70617e-01,8.84590e-01,9.99999e-01
1.210391043e+00,8.28082e-40,9.48753e-40,9.71888e-01,8.86735e-01,9.99999e-01
1.216442998e+00,1.17502e-34,1.34195e-34,9.76066e-01,8.88843e-01,9.99999e-01
1.222525213e+00,3.71450e-34,4.21003e-34,9.81310e-01,8.90914e-01,9.99999e-01
1.228637839e+00,1.86503e-26,2.10767e-26,9.86981e-01,8.92949e-01,9.99999e-01
1.234781029e+00,3.41320e-17,3.82991e-17,9.90324e-01,8.94948e-01,9.99999e-01
1.240954934e+00,1.31578e-11,1.47287e-11,9.93869e-01,8.96913e-01,9.99999e-01
1.247159708e+00,1.67844e-06,1.87275e-06,9.95225e-01,8.98842e-01,9.99999e-01
1.253395507e+00,3.47223e-04,3.86722e-04,9.95756e-01,9.00738e-01,9.99999e-01
1.259662485e+00,9.93838e-03,1.10468e-02,9.95963e-01,9.02599e-01,9.99999e-01
1.265960797e+00,6.66454e-02,7.40703e-02,9.93564e-01,9.04428e-01,9.99999e-01
1.272290601e+00,2.98432e-01,3.32394e-01,9.89886e-01,9.06225e-01,9.99999e-01
1.278652054e+00,2.51716e-01,2.81720e-01,9.79989e-01,9.07989e-01,9.99999e-01
1.285045314e+00,5.23184e-03,5.84309e-03,9.63961e-01,9.09722e-01,9.99998e-01
1.291470541e+00,2.25461e-05,2.57881e-05,9.38036e-01,9.11423e-01,9.99998e-01
1.297927893e+00,9.13001e-03,1.04882e-02,9.12994e-01,9.13095e-01,9.99997e-01
1.304417533e+00,1.11675e-01,1.34426e-01,8.98378e-01,9.14736e-01,9.99995e-01
1.310939621e+00,1.88496e-02,2.21119e-02,8.73293e-01,9.16347e-01,9.99992e-01
1.317494319e+00,2.92370e-14,3.44633e-14,8.75541e-01,9.17930e-01,9.99987e-01
1.324081790e+00,7.28034e-10,8.71127e-10,8.19362e-01,9.19484e-01,9.99980e-01
1.330702199e+00,5.52517e-06,8.93358e-06,4.56207e-01,9.21010e-01,9.99967e-01
1.337355710e+00,2.85234e-06,1.13876e-05,1.34386e-01,9.22508e-01,9.99938e-01
1.344042489e+00,4.46577e-07,3.36441e-06,8.26751e-03,9.23979e-01,9.99869e-01
1.350762701e+00,8.83952e-10,5.65190e-06,4.31674e-05,9.25423e-01,9.99792e-01
1.357516515e+00,1.30818e-09,4.35903e-04,7.40403e-07,9.26841e-01,9.99743e-01
1.364304097e+00,1.39938e-06,6.47083e-03,1.14602e-04,9.28233e-01,9.99724e-01
1.371125618e+00,2.43582e-04,7.23653e-02,2.24249e-03,9.29599e-01,9.99722e-01
1.377981246e+00,7.45192e-04,1.15728e-01,5.36904e-03,9.30941e-01,9.99701e-01
1.384871152e+00,5.16836e-05,2.85262e-01,1.55096e-04,9.32257e-01,9.99710e-01
1.391795508e+00,5.61011e-05,3.13916e-01,1.53093e-04,9.33550e-01,9.99754e-01
1.398754485e+00,3.37758e-04,4.88975e-01,6.90420e-04,9.34819e-01,9.99788e-01
1.405748258e+00,3.68380e-04,5.90814e-01,6.07623e-04,9.36064e-01,9.99810e-01
1.412776999e+00,4.56021e-04,7.17231e-01,6.32699e-04,9.37287e-01,9.99847e-01
1.419840884e+00,7.86527e-04,6.42273e-01,1.06213e-03,9.38486e-01,9.99886e-01
1.426940089e+00,1.40164e-03,5.97793e-02,4.67593e-03,9.39664e-01,9.99929e-01
1.434074789e+00,0.00000e+00,0.00000e+00,1.66302e-02,9.40820e-01,9.99955e-01
1.441245163e+00,0.00000e+00,0.00000e+00,4.13182e-02,9.41954e-01,9.99965e-01
1.448451389e+00,0.00000e+00,0.00000e+00,1.04921e-01,9.43067e-01,9.99971e-01
1.455693646e+00,1.66233e-319,3.86977e-319,2.23244e-01,9.44160e-01,9.99976e-01
1.462972114e+00,5.12973e-155,1.19280e-154,2.73007e-01,9.45232e-01,9.99979e-01
1.470286975e+00,2.44587e-65,6.04684e-65,2.20457e-01,9.46284e-01,9.99981e-01
