#,Wave/freq,Total,CO2,H2O,Rayleigh,CIA
4.000000000e-01,4.11468e-21,9.99999e-01,9.99907e-01,4.11505e-21,9.99999e-01
4.020000000e-01,1.04094e-20,9.99999e-01,9.99942e-01,1.04100e-20,9.99999e-01
4.040100000e-01,2.58313e-20,9.99999e-01,9.99975e-01,2.58319e-20,9.99999e-01
4.060300500e-01,6.29596e-20,9.99999e-01,9.99994e-01,6.29600e-20,9.99999e-01
4.080602003e-01,1.50775e-19,9.99999e-01,9.99997e-01,1.50775e-19,9.99999e-01
4.101005013e-01,3.54899e-19,9.99999e-01,9.99999e-01,3.54899e-19,9.99999e-01
4.121510038e-01,8.21363e-19,9.99999e-01,9.99996e-01,8.21365e-19,9.99999e-01
4.142117588e-01,1.86964e-18,9.99999e-01,9.99974e-01,1.86969e-18,9.99999e-01
4.162828176e-01,4.18694e-18,9.99999e-01,9.99885e-01,4.18741e-18,9.99999e-01
4.183642317e-01,9.22945e-18,9.99999e-01,9.99931e-01,9.23007e-18,9.99999e-01
4.204560528e-01,2.00293e-17,9.99999e-01,9.99958e-01,2.00302e-17,9.99999e-01
4.225583331e-01,4.28066e-17,9.99999e-01,9.99984e-01,4.28073e-17,9.99999e-01
4.246711247e-01,9.01219e-17,9.99999e-01,9.99987e-01,9.01230e-17,9.99999e-01
4.267944804e-01,1.86965e-16,9.99999e-01,9.99981e-01,1.86968e-16,9.99999e-01
4.289284528e-01,3.82325e-16,9.99999e-01,9.99985e-01,3.82331e-16,9.99999e-01
4.310730950e-01,7.70853e-16,9.99999e-01,9.99993e-01,7.70858e-16,9.99999e-01
4.332284605e-01,1.53283e-15,9.99999e-01,9.99997e-01,1.53283e-15,9.99999e-01
4.353946028e-01,3.00688e-15,9.99999e-01,9.99998e-01,3.00689e-15,9.99999e-01
4.375715758e-01,5.82043e-15,9.99999e-01,9.99988e-01,5.82050e-15,9.99999e-01
4.397594337e-01,1.11197e-14,9.99999e-01,9.99899e-01,1.11208e-14,9.99999e-01
4.419582309e-01,2.09671e-14,9.99999e-01,9.99487e-01,2.09778e-14,9.99999e-01
4.441680220e-01,3.90633e-14,9.99999e-01,9.99605e-01,3.90787e-14,9.99999e-01
4.463888621e-01,7.18792e-14,9.99999e-01,9.99587e-01,7.19089e-14,9.99999e-01
4.486208064e-01,1.30702e-13,9.99999e-01,9.99744e-01,1.30735e-13,9.99999e-01
4.508639105e-01,2.34868e-13,9.99999e-01,9.99880e-01,2.34897e-13,9.99999e-01
4.531182300e-01,4.17170e-13,9.99999e-01,9.99952e-01,4.17189e-13,9.99999e-01
4.553838212e-01,7.32569e-13,9.99999e-01,9.99967e-01,7.32592e-13,9.99999e-01
4.576607403e-01,1.27220e-12,9.99999e-01,9.99984e-01,1.27222e-12,9.99999e-01
4.599490440e-01,2.18535e-12,9.99999e-01,9.99989e-01,2.18537e-12,9.99999e-01
4.622487892e-01,3.71405e-12,9.99999e-01,9.99997e-01,3.71406e-12,9.99999e-01
4.645600332e-01,6.24625e-12,9.99999e-01,9.99992e-01,6.24630e-12,9.99999e-01
4.668828333e-01,1.03964e-11,9.99999e-01,9.99878e-01,1.03977e-11,9.99999e-01
4.692172475e-01,1.71304e-11,9.99999e-01,9.99741e-01,1.71348e-11,9.99999e-01
4.715633337e-01,2.79553e-11,9.99999e-01,9.99830e-01,2.79600e-11,9.99999e-01
4.739211504e-01,4.51777e-11,9.99999e-01,9.99838e-01,4.51850e-11,9.99999e-01
4.762907561e-01,7.23265e-11,9.99999e-01,9.99915e-01,7.23325e-11,9.99999e-01
4.786722099e-01,1.14716e-10,9.99999e-01,9.99965e-01,1.14719e-10,9.99999e-01
4.810655710e-01,1.80293e-10,9.99999e-01,9.99989e-01,1.80295e-10,9.99999e-01
4.834708988e-01,2.80808e-10,9.99999e-01,9.99899e-01,2.80836e-10,9.99999e-01
4.858882533e-01,4.33550e-10,9.99999e-01,9.99816e-01,4.33630e-10,9.99999e-01
4.883176946e-01,6.63732e-10,9.99999e-01,9.99846e-01,6.63833e-10,9.99999e-01
4.907592831e-01,1.00760e-09,9.99999e-01,9.99861e-01,1.00773e-09,9.99999e-01
4.932130795e-01,1.51708e-09,9.99999e-01,9.99901e-01,1.51723e-09,9.99999e-01
4.956791449e-01,2.26582e-09,9.99999e-01,9.99947e-01,2.26594e-09,9.99999e-01
4.981575406e-01,3.35653e-09,9.99999e-01,9.99739e-01,3.35740e-09,9.99999e-01
5.006483283e-01,4.93278e-09,9.99999e-01,9.99322e-01,4.93612e-09,9.99999e-01
5.031515699e-01,7.17757e-09,9.99999e-01,9.96585e-01,7.20215e-09,9.99999e-01
5.056673278e-01,1.04115e-08,9.99999e-01,9.98199e-01,1.04303e-08,9.99999e-01
5.081956644e-01,1.49613e-08,9.99999e-01,9.97730e-01,1.49953e-08,9.99999e-01
5.107366428e-01,2.13715e-08,9.99999e-01,9.98467e-01,2.14043e-08,9.99999e-01
5.132903260e-01,3.03118e-08,9.99999e-01,9.99124e-01,3.03383e-08,9.99999e-01
5.158567776e-01,4.26905e-08,9.99999e-01,9.99630e-01,4.27062e-08,9.99999e-01
5.184360615e-01,5.97026e-08,9.99999e-01,9.99851e-01,5.97114e-08,9.99999e-01
5.210282418e-01,8.29323e-08,9.99999e-01,9.99944e-01,8.29369e-08,9.99999e-01
5.236333830e-01,1.14426e-07,9.99999e-01,9.99777e-01,1.14451e-07,9.99999e-01
5.262515499e-01,1.56917e-07,9.99999e-01,9.99860e-01,1.56939e-07,9.99999e-01
5.288828077e-01,2.13833e-07,9.99999e-01,9.99871e-01,2.13861e-07,9.99999e-01
5.315272217e-01,2.89620e-07,9.99999e-01,9.99887e-01,2.89653e-07,9.99999e-01
5.341848578e-01,3.89933e-07,9.99999e-01,9.99925e-01,3.89961e-07,9.99999e-01
5.368557821e-01,5.21797e-07,9.99999e-01,9.99739e-01,5.21933e-07,9.99999e-01
5.395400610e-01,6.93902e-07,9.99999e-01,9.99058e-01,6.94556e-07,9.99999e-01
5.422377613e-01,9.17962e-07,9.99999e-01,9.98793e-01,9.19070e-07,9.99999e-01
5.449489501e-01,1.20809e-06,9.99999e-01,9.98872e-01,1.20945e-06,9.99999e-01
5.476736949e-01,1.58139e-06,9.99999e-01,9.99006e-01,1.58296e-06,9.99999e-01
5.504120634e-01,2.05936e-06,9.99999e-01,9.99278e-01,2.06085e-06,9.99999e-01
5.531641237e-01,2.66809e-06,9.99999e-01,9.99636e-01,2.66906e-06,9.99999e-01
5.559299443e-01,3.43855e-06,9.99999e-01,9.99824e-01,3.43915e-06,9.99999e-01
5.587095940e-01,4.40881e-06,9.99999e-01,9.99889e-01,4.40930e-06,9.99999e-01
5.615031420e-01,5.62475e-06,9.99999e-01,9.99877e-01,5.62544e-06,9.99999e-01
5.643106577e-01,7.14156e-06,9.99999e-01,9.99859e-01,7.14256e-06,9.99999e-01
5.671322110e-01,9.01077e-06,9.99999e-01,9.98294e-01,9.02616e-06,9.99999e-01
5.699678720e-01,1.13336e-05,9.99999e-01,9.98213e-01,1.13539e-05,9.99999e-01
5.728177114e-01,1.41907e-05,9.99999e-01,9.98128e-01,1.42173e-05,9.99999e-01
5.756818000e-01,1.76936e-05,9.99999e-01,9.98284e-01,1.77240e-05,9.99999e-01
5.785602090e-01,2.19667e-05,9.99999e-01,9.98505e-01,2.19996e-05,9.99999e-01
5.814530100e-01,2.71494e-05,9.99999e-01,9.98497e-01,2.71902e-05,9.99999e-01
5.843602750e-01,3.34051e-05,9.99999e-01,9.98202e-01,3.34653e-05,9.99999e-01
5.872820764e-01,4.03898e-05,9.99999e-01,9.84637e-01,4.10199e-05,9.99999e-01
5.902184868e-01,4.91503e-05,9.99999e-01,9.81470e-01,5.00782e-05,9.99999e-01
5.931695792e-01,6.00970e-05,9.99999e-01,9.86871e-01,6.08964e-05,9.99999e-01
5.961354271e-01,7.27054e-05,9.99999e-01,9.85621e-01,7.37660e-05,9.99999e-01
5.991161043e-01,8.80827e-05,9.99999e-01,9.89495e-01,8.90177e-05,9.99999e-01
6.021116848e-01,1.06386e-04,9.99999e-01,9.94030e-01,1.07025e-04,9.99999e-01
6.051222432e-01,1.27819e-04,9.99999e-01,9.96976e-01,1.28207e-04,9.99999e-01
6.081478544e-01,1.52835e-04,9.99999e-01,9.98693e-01,1.53035e-04,9.99999e-01
6.111885937e-01,1.81933e-04,9.99999e-01,9.99447e-01,1.82033e-04,9.99999e-01
6.142445367e-01,2.15732e-04,9.99999e-01,9.99752e-01,2.15785e-04,9.99999e-01
6.173157594e-01,2.54903e-04,9.99999e-01,9.99863e-01,2.54937e-04,9.99999e-01
6.204023382e-01,3.00169e-04,9.99999e-01,9.99884e-01,3.00203e-04,9.99999e-01
6.235043498e-01,3.52186e-04,9.99999e-01,9.99486e-01,3.52367e-04,9.99999e-01
6.266218716e-01,4.11179e-04,9.99999e-01,9.97310e-01,4.12288e-04,9.99999e-01
6.297549810e-01,4.80430e-04,9.99999e-01,9.99012e-01,4.80904e-04,9.99999e-01
6.329037559e-01,5.58149e-04,9.99999e-01,9.98052e-01,5.59237e-04,9.99999e-01
6.360682746e-01,6.47317e-04,9.99999e-01,9.98337e-01,6.48394e-04,9.99999e-01
6.392486160e-01,7.47960e-04,9.99999e-01,9.97848e-01,7.49572e-04,9.99999e-01
6.424448591e-01,8.61561e-04,9.99999e-01,9.97108e-01,8.64059e-04,9.99999e-01
6.456570834e-01,9.79983e-04,9.99999e-01,9.86652e-01,9.93240e-04,9.99999e-01
6.488853688e-01,1.12752e-03,9.99999e-01,9.90273e-01,1.13860e-03,9.99999e-01
6.521297956e-01,1.28881e-03,9.99999e-01,9.90092e-01,1.30171e-03,9.99999e-01
6.553904446e-01,1.46956e-03,9.99999e-01,9.90097e-01,1.48426e-03,9.99999e-01
6.586673968e-01,1.67374e-03,9.99999e-01,9.91537e-01,1.68803e-03,9.99999e-01
6.619607338e-01,1.90585e-03,9.99999e-01,9.95274e-01,1.91490e-03,9.99999e-01
6.652705375e-01,2.16070e-03,9.99999e-01,9.97161e-01,2.16685e-03,9.99999e-01
6.685968902e-01,2.44303e-03,9.99999e-01,9.98792e-01,2.44598e-03,9.99999e-01
6.719398746e-01,2.75279e-03,9.99999e-01,9.99388e-01,2.75447e-03,9.99999e-01
6.752995740e-01,3.09357e-03,9.99999e-01,9.99668e-01,3.09459e-03,9.99999e-01
6.786760719e-01,3.46706e-03,9.99999e-01,9.99518e-01,3.46873e-03,9.99999e-01
6.820694522e-01,3.87616e-03,9.99999e-01,9.99178e-01,3.87934e-03,9.99999e-01
6.854797995e-01,4.32440e-03,9.99999e-01,9.98940e-01,4.32899e-03,9.99999e-01
6.889071985e-01,4.80784e-03,9.99999e-01,9.97416e-01,4.82029e-03,9.99999e-01
6.923517345e-01,5.13596e-03,9.99999e-01,9.58921e-01,5.35597e-03,9.99999e-01
6.958134932e-01,5.81226e-03,9.99999e-01,9.78690e-01,5.93881e-03,9.99998e-01
6.992925606e-01,6.43673e-03,9.99999e-01,9.79469e-01,6.57165e-03,9.99998e-01
7.027890234e-01,7.07461e-03,9.99999e-01,9.74814e-01,7.25740e-03,9.99999e-01
7.063029686e-01,7.82906e-03,9.99999e-01,9.78755e-01,7.99900e-03,9.99999e-01
7.098344834e-01,8.61996e-03,9.99999e-01,9.79601e-01,8.79946e-03,9.99998e-01
7.133836558e-01,9.39899e-03,9.99999e-01,9.72800e-01,9.66180e-03,9.99998e-01
7.169505741e-01,8.52187e-03,9.99999e-01,8.04780e-01,1.05891e-02,9.99996e-01
7.205353270e-01,1.04201e-02,9.99999e-01,8.99501e-01,1.15844e-02,9.99996e-01
7.241380036e-01,1.10417e-02,9.99999e-01,8.72816e-01,1.26507e-02,9.99996e-01
7.277586936e-01,1.21997e-02,9.99999e-01,8.84597e-01,1.37912e-02,9.99997e-01
7.313974871e-01,1.31715e-02,9.99999e-01,8.77578e-01,1.50090e-02,9.99997e-01
7.350544745e-01,1.51802e-02,9.99999e-01,9.30902e-01,1.63069e-02,9.99998e-01
7.387297469e-01,1.67785e-02,9.99999e-01,9.48573e-01,1.76881e-02,9.99999e-01
7.424233956e-01,1.86671e-02,9.99999e-01,9.74501e-01,1.91556e-02,9.99999e-01
7.461355126e-01,2.03901e-02,9.99999e-01,9.84452e-01,2.07121e-02,9.99999e-01
7.498661902e-01,2.21983e-02,9.99999e-01,9.92742e-01,2.23606e-02,9.99999e-01
7.536155211e-01,2.40176e-02,9.99999e-01,9.96427e-01,2.41037e-02,9.99999e-01
7.573835987e-01,2.58966e-02,9.99999e-01,9.98160e-01,2.59443e-02,9.99999e-01
7.611705167e-01,2.78530e-02,9.99999e-01,9.98856e-01,2.78849e-02,9.99999e-01
7.649763693e-01,2.99065e-02,9.99999e-01,9.99282e-01,2.99279e-02,9.99999e-01
7.688012511e-01,3.20598e-02,9.99999e-01,9.99499e-01,3.20758e-02,9.99999e-01
7.726452574e-01,3.43167e-02,9.99999e-01,9.99588e-01,3.43309e-02,9.99999e-01
7.765084837e-01,3.66736e-02,9.99999e-01,9.99412e-01,3.66951e-02,9.99999e-01
7.803910261e-01,3.45684e-02,8.84519e-01,9.97462e-01,3.91707e-02,9.99999e-01
7.842929812e-01,2.21517e-02,5.34449e-01,9.91170e-01,4.17593e-02,9.99999e-01
7.882144461e-01,2.26630e-02,5.17835e-01,9.81970e-01,4.44628e-02,9.99999e-01
7.921555184e-01,3.09120e-02,6.59714e-01,9.90106e-01,4.72827e-02,9.99999e-01
7.961162960e-01,3.72196e-02,7.53845e-01,9.82475e-01,5.02204e-02,9.99999e-01
8.000968774e-01,4.47766e-02,8.57538e-01,9.79821e-01,5.32772e-02,9.99999e-01
8.040973618e-01,5.10869e-02,9.23415e-01,9.79808e-01,5.64540e-02,9.99998e-01
8.081178486e-01,5.50239e-02,9.63941e-01,9.55048e-01,5.97520e-02,9.99998e-01
8.121584379e-01,5.16916e-02,9.88783e-01,8.27159e-01,6.31717e-02,9.99997e-01
8.162192301e-01,5.32395e-02,9.97511e-01,7.99865e-01,6.67137e-02,9.99996e-01
8.203003262e-01,6.30783e-02,9.99964e-01,8.96295e-01,7.03784e-02,9.99996e-01
8.244018279e-01,6.38866e-02,9.99999e-01,8.61401e-01,7.41661e-02,9.99996e-01
8.285238370e-01,6.82385e-02,9.99999e-01,8.73994e-01,7.80767e-02,9.99997e-01
8.326664562e-01,7.17034e-02,9.99999e-01,8.73259e-01,8.21102e-02,9.99997e-01
8.368297885e-01,7.82591e-02,9.99999e-01,9.07182e-01,8.62662e-02,9.99998e-01
8.410139374e-01,8.54448e-02,9.99999e-01,9.43681e-01,9.05441e-02,9.99999e-01
8.452190071e-01,9.22810e-02,9.99999e-01,9.71957e-01,9.49434e-02,9.99999e-01
8.494451021e-01,9.78314e-02,9.99999e-01,9.83593e-01,9.94632e-02,9.99999e-01
8.536923276e-01,1.03091e-01,9.99999e-01,9.90284e-01,1.04102e-01,9.99999e-01
8.579607893e-01,1.08207e-01,9.99999e-01,9.93996e-01,1.08860e-01,9.99999e-01
8.622505932e-01,1.13301e-01,9.99999e-01,9.96187e-01,1.13735e-01,9.99999e-01
8.665618462e-01,1.00099e-01,8.44964e-01,9.97635e-01,1.18725e-01,9.99999e-01
8.708946554e-01,2.69908e-02,2.18495e-01,9.97289e-01,1.23829e-01,9.99999e-01
8.752491287e-01,3.53571e-02,2.74899e-01,9.96377e-01,1.29045e-01,9.99999e-01
8.796253743e-01,6.43851e-02,4.81319e-01,9.94978e-01,1.34371e-01,9.99999e-01
8.840235012e-01,9.41354e-02,6.76968e-01,9.94268e-01,1.39805e-01,9.99999e-01
8.884436187e-01,1.21966e-01,8.56237e-01,9.79174e-01,1.45346e-01,9.99998e-01
8.928858368e-01,1.14354e-01,9.38746e-01,8.04825e-01,1.50989e-01,9.99996e-01
8.973502660e-01,1.05736e-01,9.84803e-01,6.84146e-01,1.56734e-01,9.99994e-01
9.018370173e-01,1.33855e-01,9.98315e-01,8.24549e-01,1.62578e-01,9.99994e-01
9.063462024e-01,1.36683e-01,9.58137e-01,8.41815e-01,1.68518e-01,9.99993e-01
9.108779334e-01,1.21525e-01,9.05253e-01,7.65346e-01,1.74550e-01,9.99992e-01
9.154323231e-01,1.30371e-01,9.77007e-01,7.37076e-01,1.80674e-01,9.99991e-01
9.200094847e-01,1.16168e-01,7.57958e-01,7.88623e-01,1.86884e-01,9.99989e-01
9.246095321e-01,8.55143e-02,6.17065e-01,6.99254e-01,1.93180e-01,9.99982e-01
9.292325798e-01,1.76586e-02,6.90831e-01,1.16626e-01,1.99556e-01,9.99963e-01
9.338787427e-01,9.39990e-03,6.95978e-01,6.02148e-02,2.06011e-01,9.99952e-01
9.385481364e-01,5.38785e-02,7.63577e-01,3.17498e-01,2.12541e-01,9.99951e-01
9.432408771e-01,4.13612e-02,8.46716e-01,2.17136e-01,2.19143e-01,9.99945e-01
9.479570815e-01,2.47244e-02,9.17941e-01,1.17696e-01,2.25813e-01,9.99952e-01
9.526968669e-01,4.25834e-02,9.59662e-01,1.89065e-01,2.32549e-01,9.99964e-01
9.574603512e-01,4.79104e-02,9.82527e-01,2.02944e-01,2.39347e-01,9.99973e-01
9.622476530e-01,6.50927e-02,9.94518e-01,2.65535e-01,2.46203e-01,9.99981e-01
9.670588912e-01,1.16338e-01,9.98356e-01,4.60241e-01,2.53114e-01,9.99988e-01
9.718941857e-01,1.56972e-01,9.99885e-01,6.03612e-01,2.60078e-01,9.99992e-01
9.767536566e-01,1.75467e-01,9.99999e-01,6.56963e-01,2.67089e-01,9.99994e-01
9.816374249e-01,2.00399e-01,9.99999e-01,7.30997e-01,2.74145e-01,9.99996e-01
9.865456120e-01,2.31031e-01,9.99999e-01,8.21462e-01,2.81243e-01,9.99998e-01
9.914783401e-01,2.55252e-01,9.99999e-01,8.85125e-01,2.88379e-01,9.99998e-01
9.964357318e-01,2.76544e-01,9.99999e-01,9.35692e-01,2.95550e-01,9.99999e-01
1.001417910e+00,2.90921e-01,9.99999e-01,9.60919e-01,3.02752e-01,9.99999e-01
1.006425000e+00,3.03007e-01,9.99999e-01,9.77497e-01,3.09983e-01,9.99999e-01
1.011457125e+00,3.12795e-01,9.99999e-01,9.85995e-01,3.17238e-01,9.99999e-01
1.016514411e+00,3.21419e-01,9.99999e-01,9.90463e-01,3.24514e-01,9.99999e-01
1.021596983e+00,3.29202e-01,9.99748e-01,9.92391e-01,3.31809e-01,9.99999e-01
1.026704968e+00,3.31407e-01,9.83066e-01,9.94059e-01,3.39119e-01,9.99999e-01
1.031838492e+00,3.02762e-01,8.77456e-01,9.95684e-01,3.46440e-01,9.99999e-01
1.036997685e+00,1.13247e-02,3.20732e-02,9.97431e-01,3.53771e-01,9.99999e-01
1.042182673e+00,2.16847e-04,6.01844e-04,9.96932e-01,3.61107e-01,9.99999e-01
1.047393587e+00,6.33008e-04,1.72372e-03,9.95937e-01,3.68446e-01,9.99999e-01
1.052630555e+00,3.18232e-09,8.49762e-09,9.94425e-01,3.75784e-01,9.99999e-01
1.057893707e+00,1.20000e-08,3.14619e-08,9.90703e-01,3.83120e-01,9.99999e-01
1.063183176e+00,1.37062e-06,3.53939e-06,9.84760e-01,3.90449e-01,9.99999e-01
1.068499092e+00,2.44551e-05,6.23939e-05,9.74640e-01,3.97770e-01,9.99999e-01
1.073841587e+00,7.10214e-04,1.78849e-03,9.70401e-01,4.05080e-01,9.99998e-01
1.079210795e+00,7.80299e-03,1.94649e-02,9.62256e-01,4.12375e-01,9.99998e-01
1.084606849e+00,4.12969e-02,1.03341e-01,9.43445e-01,4.19654e-01,9.99997e-01
1.090029883e+00,1.19977e-01,3.02764e-01,9.19762e-01,4.26914e-01,9.99996e-01
1.095480033e+00,1.93265e-01,5.53043e-01,7.96673e-01,4.34152e-01,9.99994e-01
1.100957433e+00,1.89888e-01,7.49825e-01,5.66504e-01,4.41367e-01,9.99989e-01
1.106462220e+00,1.02722e-01,8.87529e-01,2.54184e-01,4.48555e-01,9.99978e-01
1.111994531e+00,2.71828e-02,9.56646e-01,6.17366e-02,4.55715e-01,9.99956e-01
1.117554504e+00,6.24698e-03,9.89268e-01,1.35719e-02,4.62844e-01,9.99938e-01
1.123142276e+00,2.59297e-02,9.99294e-01,5.51835e-02,4.69941e-01,9.99927e-01
1.128757988e+00,5.99238e-02,9.99999e-01,1.25635e-01,4.77003e-01,9.99920e-01
1.134401778e+00,2.77933e-02,9.99999e-01,5.74259e-02,4.84029e-01,9.99911e-01
1.140073787e+00,1.32397e-01,9.99999e-01,2.69657e-01,4.91016e-01,9.99928e-01
1.145774156e+00,4.13059e-02,9.99999e-01,8.29546e-02,4.97963e-01,9.99939e-01
1.151503026e+00,3.17805e-02,9.99999e-01,6.29512e-02,5.04869e-01,9.99947e-01
1.157260541e+00,4.10982e-02,9.99999e-01,8.03152e-02,5.11731e-01,9.99960e-01
1.163046844e+00,7.89307e-02,9.99999e-01,1.52219e-01,5.18548e-01,9.99974e-01
1.168862078e+00,1.34982e-01,9.99999e-01,2.56957e-01,5.25318e-01,9.99986e-01
1.174706389e+00,2.28884e-01,9.99999e-01,4.30202e-01,5.32040e-01,9.99993e-01
1.180579921e+00,3.20932e-01,9.99999e-01,5.95740e-01,5.38713e-01,9.99995e-01
1.186482820e+00,4.05598e-01,9.99963e-01,7.43779e-01,5.45336e-01,9.99996e-01
1.192415234e+00,4.39120e-01,9.43824e-01,8.40662e-01,5.51907e-01,9.99996e-01
1.198377311e+00,2.42476e-01,4.90247e-01,8.63892e-01,5.58424e-01,9.99996e-01
1.204369197e+00,5.60068e-43,1.07422e-42,8.71318e-01,5.64888e-01,9.99997e-01
1.210391043e+00,3.98389e-177,7.50673e-177,8.76262e-01,5.71297e-01,9.99997e-01
1.216442998e+00,3.90150e-153,7.24262e-153,8.93831e-01,5.77650e-01,9.99998e-01
1.222525213e+00,8.22532e-151,1.47377e-150,9.16086e-01,5.83945e-01,9.99998e-01
1.228637839e+00,4.02424e-116,7.10375e-116,9.40899e-01,5.90183e-01,9.99999e-01
1.234781029e+00,7.91618e-72,1.35363e-71,9.55807e-01,5.96363e-01,9.99999e-01
1.240954934e+00,2.27810e-47,3.84707e-47,9.71805e-01,6.02483e-01,9.99999e-01
1.247159708e+00,3.04081e-22,5.06299e-22,9.77978e-01,6.08543e-01,9.99999e-01
1.253395507e+00,3.68083e-15,6.07141e-15,9.80409e-01,6.14543e-01,9.99999e-01
1.259662485e+00,8.34370e-09,1.36238e-08,9.81359e-01,6.20481e-01,9.99999e-01
1.265960797e+00,3.68543e-05,5.99118e-05,9.70426e-01,6.26358e-01,9.99998e-01
1.272290601e+00,5.23159e-03,8.57321e-03,9.53887e-01,6.32173e-01,9.99998e-01
1.278652054e+00,5.20776e-03,8.63689e-03,9.10708e-01,6.37926e-01,9.99997e-01
1.285045314e+00,8.61564e-07,1.43257e-06,8.44531e-01,6.43615e-01,9.99996e-01
1.291470541e+00,2.54216e-20,4.58930e-20,7.45390e-01,6.49242e-01,9.99993e-01
1.297927893e+00,9.43561e-07,1.71216e-06,6.60046e-01,6.54805e-01,9.99989e-01
1.304417533e+00,6.96126e-05,1.49807e-04,6.15470e-01,6.60304e-01,9.99980e-01
1.310939621e+00,1.57567e-05,3.23624e-05,5.42025e-01,6.65740e-01,9.99967e-01
1.317494319e+00,1.02560e-60,2.12981e-60,5.49137e-01,6.71112e-01,9.99945e-01
1.324081790e+00,6.80721e-39,1.51772e-38,4.15234e-01,6.76419e-01,9.99911e-01
1.330702199e+00,1.78722e-23,7.22711e-23,8.94846e-02,6.81663e-01,9.99852e-01
1.337355710e+00,2.79851e-23,1.19781e-20,5.20235e-04,6.86842e-01,9.99717e-01
1.344042489e+00,9.47929e-25,7.47516e-21,5.50255e-06,6.91958e-01,9.99396e-01
1.350762701e+00,6.49296e-39,3.24546e-23,1.97869e-17,6.97009e-01,9.99035e-01
1.357516515e+00,1.51309e-37,1.12701e-13,6.63184e-26,7.01996e-01,9.98805e-01
1.364304097e+00,1.92897e-24,3.90140e-10,6.24743e-16,7.06919e-01,9.98720e-01
1.371125618e+00,3.54253e-14,1.67926e-05,7.25187e-10,7.11779e-01,9.98709e-01
1.377981246e+00,5.10145e-13,6.80517e-05,2.24266e-09,7.16575e-01,9.98614e-01
1.384871152e+00,1.51007e-15,3.56161e-03,2.40742e-13,7.21308e-01,9.98652e-01
1.391795508e+00,6.04728e-18,5.81660e-03,3.91917e-16,7.25978e-01,9.98857e-01
1.398754485e+00,6.68917e-14,3.66074e-02,1.55959e-12,7.30584e-01,9.99018e-01
1.405748258e+00,1.74088e-13,9.17496e-02,1.69647e-12,7.35128e-01,9.99119e-01
1.412776999e+00,7.64838e-13,2.16963e-01,2.97773e-12,7.39610e-01,9.99292e-01
1.419840884e+00,1.25694e-12,2.15719e-01,4.88066e-12,7.44030e-01,9.99471e-01
1.426940089e+00,3.44891e-09,5.99933e-03,2.48839e-08,7.48388e-01,9.99672e-01
1.434074789e+00,0.00000e+00,0.00000e+00,3.09313e-07,7.52685e-01,9.99795e-01
1.441245163e+00,0.00000e+00,0.00000e+00,4.61597e-06,7.56920e-01,9.99841e-01
1.448451389e+00,0.00000e+00,0.00000e+00,2.50189e-04,7.61096e-01,9.99868e-01
1.455693646e+00,0.00000e+00,0.00000e+00,3.53870e-03,7.65211e-01,9.99890e-01
1.462972114e+00,0.00000e+00,0.00000e+00,5.18468e-03,7.69266e-01,9.99906e-01
1.470286975e+00,5.91108e-296,3.99787e-294,2.41688e-03,7.73263e-01,9.99916e-01
