#,Wave/freq,Total,CO2,H2O,Rayleigh,CIA
4.000000000e-01,2.51479e-22,9.99999e-01,9.99902e-01,2.51503e-22,9.99999e-01
4.020000000e-01,6.72346e-22,9.99999e-01,9.99939e-01,6.72386e-22,9.99999e-01
4.040100000e-01,1.76122e-21,9.99999e-01,9.99974e-01,1.76127e-21,9.99999e-01
4.060300500e-01,4.52658e-21,9.99999e-01,9.99993e-01,4.52660e-21,9.99999e-01
4.080602003e-01,1.14188e-20,9.99999e-01,9.99997e-01,1.14188e-20,9.99999e-01
4.101005013e-01,2.82835e-20,9.99999e-01,9.99999e-01,2.82835e-20,9.99999e-01
4.121510038e-01,6.88116e-20,9.99999e-01,9.99995e-01,6.88119e-20,9.99999e-01
4.142117588e-01,1.64496e-19,9.99999e-01,9.99972e-01,1.64500e-19,9.99999e-01
4.162828176e-01,3.86493e-19,9.99999e-01,9.99879e-01,3.86540e-19,9.99999e-01
4.183642317e-01,8.93021e-19,9.99999e-01,9.99927e-01,8.93085e-19,9.99999e-01
4.204560528e-01,2.02950e-18,9.99999e-01,9.99955e-01,2.02959e-18,9.99999e-01
4.225583331e-01,4.53809e-18,9.99999e-01,9.99983e-01,4.53816e-18,9.99999e-01
4.246711247e-01,9.98720e-18,9.99999e-01,9.99986e-01,9.98733e-18,9.99999e-01
4.267944804e-01,2.16393e-17,9.99999e-01,9.99980e-01,2.16398e-17,9.99999e-01
4.289284528e-01,4.61760e-17,9.99999e-01,9.99984e-01,4.61767e-17,9.99999e-01
4.310730950e-01,9.70706e-17,9.99999e-01,9.99993e-01,9.70712e-17,9.99999e-01
4.332284605e-01,2.01087e-16,9.99999e-01,9.99997e-01,2.01088e-16,9.99999e-01
4.353946028e-01,4.10612e-16,9.99999e-01,9.99998e-01,4.10613e-16,9.99999e-01
4.375715758e-01,8.26704e-16,9.99999e-01,9.99987e-01,8.26714e-16,9.99999e-01
4.397594337e-01,1.64145e-15,9.99999e-01,9.99892e-01,1.64163e-15,9.99999e-01
4.419582309e-01,3.21421e-15,9.99999e-01,9.99456e-01,3.21595e-15,9.99999e-01
4.441680220e-01,6.21434e-15,9.99999e-01,9.99582e-01,6.21693e-15,9.99999e-01
4.463888621e-01,1.18577e-14,9.99999e-01,9.99562e-01,1.18628e-14,9.99999e-01
4.486208064e-01,2.23429e-14,9.99999e-01,9.99729e-01,2.23490e-14,9.99999e-01
4.508639105e-01,4.15756e-14,9.99999e-01,9.99872e-01,4.15809e-14,9.99999e-01
4.531182300e-01,7.64156e-14,9.99999e-01,9.99949e-01,7.64194e-14,9.99999e-01
4.553838212e-01,1.38764e-13,9.99999e-01,9.99965e-01,1.38769e-13,9.99999e-01
4.576607403e-01,2.49033e-13,9.99999e-01,9.99983e-01,2.49037e-13,9.99999e-01
4.599490440e-01,4.41789e-13,9.99999e-01,9.99988e-01,4.41794e-13,9.99999e-01
4.622487892e-01,7.74919e-13,9.99999e-01,9.99997e-01,7.74920e-13,9.99999e-01
4.645600332e-01,1.34422e-12,9.99999e-01,9.99991e-01,1.34423e-12,9.99999e-01
4.668828333e-01,2.30627e-12,9.99999e-01,9.99870e-01,2.30657e-12,9.99999e-01
4.692172475e-01,3.91478e-12,9.99999e-01,9.99725e-01,3.91585e-12,9.99999e-01
4.715633337e-01,6.57762e-12,9.99999e-01,9.99820e-01,6.57879e-12,9.99999e-01
4.739211504e-01,1.09381e-11,9.99999e-01,9.99828e-01,1.09400e-11,9.99999e-01
4.762907561e-01,1.80088e-11,9.99999e-01,9.99911e-01,1.80104e-11,9.99999e-01
4.786722099e-01,2.93587e-11,9.99999e-01,9.99963e-01,2.93597e-11,9.99999e-01
4.810655710e-01,4.74008e-11,9.99999e-01,9.99988e-01,4.74013e-11,9.99999e-01
4.834708988e-01,7.58006e-11,9.99999e-01,9.99893e-01,7.58087e-11,9.99999e-01
4.858882533e-01,1.20098e-10,9.99999e-01,9.99806e-01,1.20121e-10,9.99999e-01
4.883176946e-01,1.88582e-10,9.99999e-01,9.99837e-01,1.88613e-10,9.99999e-01
4.907592831e-01,2.93488e-10,9.99999e-01,9.99853e-01,2.93531e-10,9.99999e-01
4.932130795e-01,4.52789e-10,9.99999e-01,9.99895e-01,4.52836e-10,9.99999e-01
4.956791449e-01,6.92604e-10,9.99999e-01,9.99944e-01,6.92642e-10,9.99999e-01
4.981575406e-01,1.05030e-09,9.99999e-01,9.99723e-01,1.05059e-09,9.99999e-01
5.006483283e-01,1.57931e-09,9.99999e-01,9.99280e-01,1.58045e-09,9.99999e-01
5.031515699e-01,2.34992e-09,9.99999e-01,9.96381e-01,2.35845e-09,9.99999e-01
5.056673278e-01,3.48506e-09,9.99999e-01,9.98093e-01,3.49171e-09,9.99999e-01
5.081956644e-01,5.11728e-09,9.99999e-01,9.97595e-01,5.12961e-09,9.99999e-01
5.107366428e-01,7.46665e-09,9.99999e-01,9.98376e-01,7.47878e-09,9.99999e-01
5.132903260e-01,1.08129e-08,9.99999e-01,9.99073e-01,1.08229e-08,9.99999e-01
5.158567776e-01,1.55423e-08,9.99999e-01,9.99608e-01,1.55483e-08,9.99999e-01
5.184360615e-01,2.21743e-08,9.99999e-01,9.99842e-01,2.21778e-08,9.99999e-01
5.210282418e-01,3.14108e-08,9.99999e-01,9.99940e-01,3.14127e-08,9.99999e-01
5.236333830e-01,4.41777e-08,9.99999e-01,9.99763e-01,4.41881e-08,9.99999e-01
5.262515499e-01,6.17327e-08,9.99999e-01,9.99852e-01,6.17418e-08,9.99999e-01
5.288828077e-01,8.56888e-08,9.99999e-01,9.99863e-01,8.57004e-08,9.99999e-01
5.315272217e-01,1.18174e-07,9.99999e-01,9.99881e-01,1.18188e-07,9.99999e-01
5.341848578e-01,1.61947e-07,9.99999e-01,9.99921e-01,1.61960e-07,9.99999e-01
5.368557821e-01,2.20505e-07,9.99999e-01,9.99723e-01,2.20566e-07,9.99999e-01
5.395400610e-01,2.98254e-07,9.99999e-01,9.99000e-01,2.98552e-07,9.99999e-01
5.422377613e-01,4.01190e-07,9.99999e-01,9.98721e-01,4.01703e-07,9.99999e-01
5.449489501e-01,5.36692e-07,9.99999e-01,9.98805e-01,5.37333e-07,9.99999e-01
5.476736949e-01,7.13888e-07,9.99999e-01,9.98947e-01,7.14639e-07,9.99999e-01
5.504120634e-01,9.44392e-07,9.99999e-01,9.99236e-01,9.45114e-07,9.99999e-01
5.531641237e-01,1.24256e-06,9.99999e-01,9.99615e-01,1.24303e-06,9.99999e-01
5.559299443e-01,1.62574e-06,9.99999e-01,9.99814e-01,1.62604e-06,9.99999e-01
5.587095940e-01,2.11556e-06,9.99999e-01,9.99883e-01,2.11581e-06,9.99999e-01
5.615031420e-01,2.73846e-06,9.99999e-01,9.99869e-01,2.73881e-06,9.99999e-01
5.643106577e-01,3.52671e-06,9.99999e-01,9.99851e-01,3.52723e-06,9.99999e-01
5.671322110e-01,4.51179e-06,9.99999e-01,9.98189e-01,4.51997e-06,9.99999e-01
5.699678720e-01,5.75292e-06,9.99999e-01,9.98109e-01,5.76381e-06,9.99999e-01
5.728177114e-01,7.30023e-06,9.99999e-01,9.98016e-01,7.31474e-06,9.99999e-01
5.756818000e-01,9.22261e-06,9.99999e-01,9.98182e-01,9.23940e-06,9.99999e-01
5.785602090e-01,1.15984e-05,9.99999e-01,9.98417e-01,1.16168e-05,9.99999e-01
5.814530100e-01,1.45168e-05,9.99999e-01,9.98407e-01,1.45399e-05,9.99999e-01
5.843602750e-01,1.80836e-05,9.99999e-01,9.98093e-01,1.81181e-05,9.99999e-01
5.872820764e-01,2.21130e-05,9.99999e-01,9.83719e-01,2.24790e-05,9.99999e-01
5.902184868e-01,2.72262e-05,9.99999e-01,9.80384e-01,2.77710e-05,9.99999e-01
5.931695792e-01,3.36907e-05,9.99999e-01,9.86095e-01,3.41658e-05,9.99999e-01
5.961354271e-01,4.12241e-05,9.99999e-01,9.84775e-01,4.18614e-05,9.99999e-01
5.991161043e-01,5.05169e-05,9.99999e-01,9.88877e-01,5.10851e-05,9.99999e-01
6.021116848e-01,6.17038e-05,9.99999e-01,9.93679e-01,6.20963e-05,9.99999e-01
6.051222432e-01,7.49498e-05,9.99999e-01,9.96798e-01,7.51905e-05,9.99999e-01
6.081478544e-01,9.05770e-05,9.99999e-01,9.98616e-01,9.07025e-05,9.99999e-01
6.111885937e-01,1.08946e-04,9.99999e-01,9.99415e-01,1.09010e-04,9.99999e-01
6.142445367e-01,1.30504e-04,9.99999e-01,9.99738e-01,1.30538e-04,9.99999e-01
6.173157594e-01,1.55739e-04,9.99999e-01,9.99855e-01,1.55761e-04,9.99999e-01
6.204023382e-01,1.85189e-04,9.99999e-01,9.99877e-01,1.85212e-04,9.99999e-01
6.235043498e-01,2.19358e-04,9.99999e-01,9.99455e-01,2.19478e-04,9.99999e-01
6.266218716e-01,2.58475e-04,9.99999e-01,9.97150e-01,2.59213e-04,9.99999e-01
6.297549810e-01,3.04819e-04,9.99999e-01,9.98953e-01,3.05138e-04,9.99999e-01
6.329037559e-01,3.57306e-04,9.99999e-01,9.97937e-01,3.58044e-04,9.99999e-01
6.360682746e-01,4.18061e-04,9.99999e-01,9.98238e-01,4.18798e-04,9.99999e-01
6.392486160e-01,4.87234e-04,9.99999e-01,9.97720e-01,4.88347e-04,9.99999e-01
6.424448591e-01,5.65979e-04,9.99999e-01,9.96933e-01,5.67720e-04,9.99999e-01
6.456570834e-01,6.48723e-04,9.99999e-01,9.85849e-01,6.58034e-04,9.99999e-01
6.488853688e-01,7.52663e-04,9.99999e-01,9.89702e-01,7.60494e-04,9.99999e-01
6.521297956e-01,8.67207e-04,9.99999e-01,9.89511e-01,8.76399e-04,9.99999e-01
6.553904446e-01,9.96577e-04,9.99999e-01,9.89508e-01,1.00714e-03,9.99999e-01
6.586673968e-01,1.14388e-03,9.99999e-01,9.91039e-01,1.15422e-03,9.99999e-01
6.619607338e-01,1.31261e-03,9.99999e-01,9.94996e-01,1.31921e-03,9.99999e-01
6.652705375e-01,1.49930e-03,9.99999e-01,9.96993e-01,1.50382e-03,9.99999e-01
6.685968902e-01,1.70765e-03,9.99999e-01,9.98721e-01,1.70983e-03,9.99999e-01
6.719398746e-01,1.93788e-03,9.99999e-01,9.99352e-01,1.93914e-03,9.99999e-01
6.752995740e-01,2.19299e-03,9.99999e-01,9.99658e-01,2.19374e-03,9.99999e-01
6.786760719e-01,2.47447e-03,9.99999e-01,9.99488e-01,2.47573e-03,9.99999e-01
6.820694522e-01,2.78488e-03,9.99999e-01,9.99129e-01,2.78730e-03,9.99999e-01
6.854797995e-01,3.12723e-03,9.99999e-01,9.98876e-01,3.13075e-03,9.99999e-01
6.889071985e-01,3.49883e-03,9.99999e-01,9.97257e-01,3.50845e-03,9.99999e-01
6.923517345e-01,3.75226e-03,9.99999e-01,9.56504e-01,3.92288e-03,9.99999e-01
6.958134932e-01,4.27807e-03,9.99999e-01,9.77484e-01,4.37661e-03,9.99998e-01
6.992925606e-01,4.76628e-03,9.99999e-01,9.78246e-01,4.87227e-03,9.99998e-01
7.027890234e-01,5.26830e-03,9.99999e-01,9.73344e-01,5.41258e-03,9.99998e-01
7.063029686e-01,5.86537e-03,9.99999e-01,9.77508e-01,6.00033e-03,9.99999e-01
7.098344834e-01,6.49500e-03,9.99999e-01,9.78403e-01,6.63837e-03,9.99998e-01
7.133836558e-01,7.11831e-03,9.99999e-01,9.71172e-01,7.32961e-03,9.99998e-01
7.169505741e-01,6.41834e-03,9.99999e-01,7.94643e-01,8.07702e-03,9.99996e-01
7.205353270e-01,7.94306e-03,9.99999e-01,8.94130e-01,8.88358e-03,9.99996e-01
7.241380036e-01,8.44411e-03,9.99999e-01,8.65858e-01,9.75233e-03,9.99996e-01
7.277586936e-01,9.38534e-03,9.99999e-01,8.78258e-01,1.06863e-02,9.99996e-01
7.313974871e-01,1.01801e-02,9.99999e-01,8.70936e-01,1.16886e-02,9.99997e-01
7.350544745e-01,1.18307e-02,9.99999e-01,9.26998e-01,1.27623e-02,9.99998e-01
7.387297469e-01,1.31542e-02,9.99999e-01,9.45632e-01,1.39105e-02,9.99998e-01
7.424233956e-01,1.47279e-02,9.99999e-01,9.73026e-01,1.51362e-02,9.99999e-01
7.461355126e-01,1.61719e-02,9.99999e-01,9.83544e-01,1.64424e-02,9.99999e-01
7.498661902e-01,1.76953e-02,9.99999e-01,9.92319e-01,1.78322e-02,9.99999e-01
7.536155211e-01,1.92355e-02,9.99999e-01,9.96217e-01,1.93085e-02,9.99999e-01
7.573835987e-01,2.08335e-02,9.99999e-01,9.98051e-01,2.08741e-02,9.99999e-01
7.611705167e-01,2.25048e-02,9.99999e-01,9.98788e-01,2.25320e-02,9.99999e-01
7.649763693e-01,2.42665e-02,9.99999e-01,9.99240e-01,2.42849e-02,9.99999e-01
7.688012511e-01,2.61216e-02,9.99999e-01,9.99470e-01,2.61355e-02,9.99999e-01
7.726452574e-01,2.80740e-02,9.99999e-01,9.99563e-01,2.80863e-02,9.99999e-01
7.765084837e-01,3.01210e-02,9.99999e-01,9.99377e-01,3.01398e-02,9.99999e-01
7.803910261e-01,2.83328e-02,8.79331e-01,9.97309e-01,3.22984e-02,9.99999e-01
7.842929812e-01,1.77234e-02,5.16825e-01,9.90638e-01,3.45643e-02,9.99999e-01
7.882144461e-01,1.81706e-02,5.00165e-01,9.80908e-01,3.69397e-02,9.99999e-01
7.921555184e-01,2.51532e-02,6.44089e-01,9.89527e-01,3.94266e-02,9.99999e-01
7.961162960e-01,3.06092e-02,7.41561e-01,9.81428e-01,4.20268e-02,9.99999e-01
8.000968774e-01,3.72227e-02,8.49868e-01,9.78632e-01,4.47419e-02,9.99999e-01
8.040973618e-01,4.28003e-02,9.19143e-01,9.78615e-01,4.75737e-02,9.99998e-01
8.081178486e-01,4.62983e-02,9.61859e-01,9.52406e-01,5.05233e-02,9.99998e-01
8.121584379e-01,4.33377e-02,9.88142e-01,8.17925e-01,5.35921e-02,9.99997e-01
8.162192301e-01,4.47296e-02,9.97368e-01,7.89661e-01,5.67812e-02,9.99996e-01
8.203003262e-01,5.35179e-02,9.99962e-01,8.90630e-01,6.00914e-02,9.99995e-01
8.244018279e-01,5.42818e-02,9.99999e-01,8.54519e-01,6.35234e-02,9.99995e-01
8.285238370e-01,5.81613e-02,9.99999e-01,8.67075e-01,6.70778e-02,9.99996e-01
8.326664562e-01,6.13014e-02,9.99999e-01,8.66392e-01,7.07549e-02,9.99997e-01
8.368297885e-01,6.72498e-02,9.99999e-01,9.02017e-01,7.45550e-02,9.99998e-01
8.410139374e-01,7.38065e-02,9.99999e-01,9.40473e-01,7.84780e-02,9.99999e-01
8.452190071e-01,8.00759e-02,9.99999e-01,9.70336e-01,8.25238e-02,9.99999e-01
8.494451021e-01,8.51862e-02,9.99999e-01,9.82629e-01,8.66921e-02,9.99999e-01
8.536923276e-01,9.00467e-02,9.99999e-01,9.89715e-01,9.09824e-02,9.99999e-01
8.579607893e-01,9.47874e-02,9.99999e-01,9.93642e-01,9.53939e-02,9.99999e-01
8.622505932e-01,9.95224e-02,9.99999e-01,9.95962e-01,9.99257e-02,9.99999e-01
8.665618462e-01,8.77296e-02,8.40845e-01,9.97495e-01,1.04577e-01,9.99999e-01
8.708946554e-01,2.20464e-02,2.02133e-01,9.97127e-01,1.09346e-01,9.99999e-01
8.752491287e-01,2.91502e-02,2.56075e-01,9.96161e-01,1.14233e-01,9.99999e-01
8.796253743e-01,5.48483e-02,4.62191e-01,9.94677e-01,1.19234e-01,9.99999e-01
8.840235012e-01,8.18552e-02,6.62020e-01,9.93926e-01,1.24350e-01,9.99999e-01
8.884436187e-01,1.07651e-01,8.48717e-01,9.77902e-01,1.29577e-01,9.99998e-01
8.928858368e-01,1.00544e-01,9.35295e-01,7.94626e-01,1.34914e-01,9.99996e-01
8.973502660e-01,9.25965e-02,9.83934e-01,6.69514e-01,1.40359e-01,9.99994e-01
9.018370173e-01,1.18833e-01,9.98219e-01,8.15686e-01,1.45910e-01,9.99993e-01
9.063462024e-01,1.21470e-01,9.55706e-01,8.33370e-01,1.51564e-01,9.99992e-01
9.108779334e-01,1.07284e-01,9.00006e-01,7.53619e-01,1.57319e-01,9.99991e-01
9.154323231e-01,1.15554e-01,9.75711e-01,7.24172e-01,1.63173e-01,9.99991e-01
9.200094847e-01,1.02778e-01,7.48440e-01,7.77984e-01,1.69122e-01,9.99988e-01
9.246095321e-01,7.40670e-02,6.00064e-01,6.85191e-01,1.75164e-01,9.99981e-01
9.292325798e-01,1.43310e-02,6.76370e-01,1.05596e-01,1.81296e-01,9.99960e-01
9.338787427e-01,7.34057e-03,6.81656e-01,5.23998e-02,1.87515e-01,9.99949e-01
9.385481364e-01,4.58661e-02,7.51693e-01,2.99893e-01,1.93819e-01,9.99948e-01
9.432408771e-01,3.47944e-02,8.38513e-01,2.01388e-01,2.00204e-01,9.99942e-01
9.479570815e-01,2.01709e-02,9.13322e-01,1.05303e-01,2.06666e-01,9.99949e-01
9.526968669e-01,3.57056e-02,9.57352e-01,1.73192e-01,2.13204e-01,9.99961e-01
9.574603512e-01,4.04076e-02,9.81513e-01,1.86494e-01,2.19813e-01,9.99971e-01
9.622476530e-01,5.57617e-02,9.94198e-01,2.47319e-01,2.26490e-01,9.99980e-01
9.670588912e-01,1.02736e-01,9.98260e-01,4.41105e-01,2.33232e-01,9.99987e-01
9.718941857e-01,1.40710e-01,9.99878e-01,5.86259e-01,2.40036e-01,9.99992e-01
9.767536566e-01,1.58300e-01,9.99999e-01,6.41158e-01,2.46898e-01,9.99994e-01
9.816374249e-01,1.82182e-01,9.99999e-01,7.17776e-01,2.53814e-01,9.99996e-01
9.865456120e-01,2.11769e-01,9.99999e-01,8.12052e-01,2.60783e-01,9.99997e-01
9.914783401e-01,2.35337e-01,9.99999e-01,8.78783e-01,2.67799e-01,9.99998e-01
9.964357318e-01,2.56178e-01,9.99999e-01,9.32033e-01,2.74860e-01,9.99999e-01
1.001417910e+00,2.70306e-01,9.99999e-01,9.58662e-01,2.81961e-01,9.99999e-01
1.006425000e+00,2.82214e-01,9.99999e-01,9.76178e-01,2.89101e-01,9.99999e-01
1.011457125e+00,2.91883e-01,9.99999e-01,9.85175e-01,2.96275e-01,9.99999e-01
1.016514411e+00,3.00416e-01,9.99999e-01,9.89901e-01,3.03480e-01,9.99999e-01
1.021596983e+00,3.08127e-01,9.99729e-01,9.91941e-01,3.10713e-01,9.99999e-01
1.026704968e+00,3.10304e-01,9.82030e-01,9.93708e-01,3.17971e-01,9.99999e-01
1.031838492e+00,2.82568e-01,8.72487e-01,9.95429e-01,3.25249e-01,9.99999e-01
1.036997685e+00,9.80667e-03,2.95499e-02,9.97279e-01,3.32546e-01,9.99999e-01
1.042182673e+00,1.51052e-04,4.45501e-04,9.96748e-01,3.39857e-01,9.99999e-01
1.047393587e+00,4.38642e-04,1.26784e-03,9.95695e-01,3.47179e-01,9.99999e-01
1.052630555e+00,1.20516e-09,3.41187e-09,9.94093e-01,3.54510e-01,9.99999e-01
1.057893707e+00,4.54585e-09,1.26218e-08,9.90148e-01,3.61847e-01,9.99999e-01
1.063183176e+00,7.02781e-07,1.92012e-06,9.83856e-01,3.69186e-01,9.99999e-01
1.068499092e+00,1.39070e-05,3.75010e-05,9.73150e-01,3.76524e-01,9.99999e-01
1.073841587e+00,4.73341e-04,1.25899e-03,9.68663e-01,3.83859e-01,9.99998e-01
1.079210795e+00,5.97226e-03,1.57264e-02,9.60063e-01,3.91188e-01,9.99998e-01
1.084606849e+00,3.44071e-02,9.08945e-02,9.40188e-01,3.98508e-01,9.99997e-01
1.090029883e+00,1.06068e-01,2.82703e-01,9.15163e-01,4.05816e-01,9.99996e-01
1.095480033e+00,1.75538e-01,5.34451e-01,7.85967e-01,4.13110e-01,9.99993e-01
1.100957433e+00,1.72320e-01,7.37324e-01,5.48080e-01,4.20387e-01,9.99988e-01
1.106462220e+00,9.03696e-02,8.81363e-01,2.35828e-01,4.27645e-01,9.99976e-01
1.111994531e+00,2.23352e-02,9.54164e-01,5.32440e-02,4.34881e-01,9.99953e-01
1.117554504e+00,4.80603e-03,9.88650e-01,1.09331e-02,4.42093e-01,9.99934e-01
1.123142276e+00,2.16307e-02,9.99254e-01,4.81516e-02,4.49278e-01,9.99922e-01
1.128757988e+00,5.13645e-02,9.99999e-01,1.12543e-01,4.56435e-01,9.99915e-01
1.134401778e+00,2.41400e-02,9.99999e-01,5.20798e-02,4.63561e-01,9.99905e-01
1.140073787e+00,1.17990e-01,9.99999e-01,2.50711e-01,4.70655e-01,9.99924e-01
1.145774156e+00,3.50305e-02,9.99999e-01,7.33341e-02,4.77713e-01,9.99935e-01
1.151503026e+00,2.64884e-02,9.99999e-01,5.46480e-02,4.84735e-01,9.99944e-01
1.157260541e+00,3.43765e-02,9.99999e-01,6.99138e-02,4.91719e-01,9.99957e-01
1.163046844e+00,6.84611e-02,9.99999e-01,1.37293e-01,4.98662e-01,9.99973e-01
1.168862078e+00,1.20304e-01,9.99999e-01,2.37962e-01,5.05563e-01,9.99986e-01
1.174706389e+00,2.10060e-01,9.99999e-01,4.09940e-01,5.12420e-01,9.99992e-01
1.180579921e+00,3.00215e-01,9.99999e-01,5.78192e-01,5.19233e-01,9.99995e-01
1.186482820e+00,3.84476e-01,9.99960e-01,7.30967e-01,5.25998e-01,9.99995e-01
1.192415234e+00,4.18251e-01,9.40665e-01,8.32073e-01,5.32716e-01,9.99996e-01
1.198377311e+00,2.30139e-01,4.85171e-01,8.56423e-01,5.39384e-01,9.99996e-01
1.204369197e+00,2.11023e-45,4.20749e-45,8.64278e-01,5.46001e-01,9.99997e-01
1.210391043e+00,1.54801e-187,3.02900e-187,8.69450e-01,5.52567e-01,9.99997e-01
1.216442998e+00,4.06781e-162,7.83468e-162,8.87952e-01,5.59079e-01,9.99998e-01
1.222525213e+00,1.17853e-159,2.18623e-159,9.11352e-01,5.65537e-01,9.99998e-01
1.228637839e+00,6.68167e-123,1.22006e-122,9.37507e-01,5.71940e-01,9.99999e-01
1.234781029e+00,5.71169e-76,1.00837e-75,9.53257e-01,5.78287e-01,9.99999e-01
1.240954934e+00,4.63770e-50,8.07976e-50,9.70160e-01,5.84577e-01,9.99999e-01
1.247159708e+00,1.96353e-23,3.37006e-23,9.76690e-01,5.90809e-01,9.99999e-01
1.253395507e+00,5.70621e-16,9.69659e-16,9.79258e-01,5.96983e-01,9.99999e-01
1.259662485e+00,3.13495e-09,5.27023e-09,9.80257e-01,6.03097e-01,9.99999e-01
1.265960797e+00,2.23180e-05,3.73416e-05,9.68699e-01,6.09151e-01,9.99998e-01
1.272290601e+00,3.91083e-03,6.59749e-03,9.51201e-01,6.15144e-01,9.99998e-01
1.278652054e+00,3.96583e-03,6.77381e-03,9.05667e-01,6.21077e-01,9.99997e-01
1.285045314e+00,4.61423e-07,7.90797e-07,8.36143e-01,6.26948e-01,9.99996e-01
1.291470541e+00,2.01973e-21,3.77453e-21,7.32603e-01,6.32756e-01,9.99993e-01
1.297927893e+00,5.06977e-07,9.53107e-07,6.44270e-01,6.38502e-01,9.99988e-01
1.304417533e+00,4.08337e-05,9.16256e-05,5.98536e-01,6.44186e-01,9.99979e-01
1.310939621e+00,9.40920e-06,2.01614e-05,5.23309e-01,6.49806e-01,9.99965e-01
1.317494319e+00,3.32151e-64,7.20276e-64,5.30678e-01,6.55362e-01,9.99942e-01
1.324081790e+00,4.47429e-41,1.04628e-40,3.95303e-01,6.60855e-01,9.99906e-01
1.330702199e+00,8.86506e-25,3.81606e-24,8.13826e-02,6.66285e-01,9.99843e-01
1.337355710e+00,1.50947e-24,9.16190e-22,3.55119e-04,6.71650e-01,9.99701e-01
1.344042489e+00,4.33856e-26,5.83623e-22,3.29705e-06,6.76951e-01,9.99360e-01
1.350762701e+00,4.21159e-41,1.68403e-24,2.40839e-18,6.82188e-01,9.98978e-01
1.357516515e+00,1.19795e-39,2.29772e-14,2.57205e-27,6.87361e-01,9.98734e-01
1.364304097e+00,9.06265e-26,1.17563e-10,9.28116e-17,6.92470e-01,9.98644e-01
1.371125618e+00,6.84687e-15,9.15355e-06,2.52709e-10,6.97515e-01,9.98632e-01
1.377981246e+00,1.09311e-13,3.98882e-05,7.74210e-10,7.02496e-01,9.98531e-01
1.384871152e+00,2.43974e-16,2.58092e-03,5.26010e-14,7.07413e-01,9.98572e-01
1.391795508e+00,6.73051e-19,4.38097e-03,5.53032e-17,7.12266e-01,9.98790e-01
1.398754485e+00,1.32907e-14,3.01386e-02,3.72423e-13,7.17055e-01,9.98960e-01
1.405748258e+00,3.59738e-14,8.00172e-02,4.01005e-13,7.21782e-01,9.99067e-01
1.412776999e+00,1.78370e-13,1.98579e-01,7.52657e-13,7.26445e-01,9.99250e-01
1.419840884e+00,2.86675e-13,1.99585e-01,1.20560e-12,7.31045e-01,9.99440e-01
1.426940089e+00,1.33242e-09,5.35458e-03,1.07832e-08,7.35583e-01,9.99653e-01
1.434074789e+00,0.00000e+00,0.00000e+00,1.42158e-07,7.40059e-01,9.99783e-01
1.441245163e+00,0.00000e+00,0.00000e+00,2.45189e-06,7.44472e-01,9.99831e-01
1.448451389e+00,0.00000e+00,0.00000e+00,1.67588e-04,7.48824e-01,9.99860e-01
1.455693646e+00,0.00000e+00,0.00000e+00,2.70492e-03,7.53115e-01,9.99884e-01
1.462972114e+00,0.00000e+00,0.00000e+00,3.93737e-03,7.57344e-01,9.99901e-01
1.470286975e+00,1.96289e-313,1.70605e-311,1.78016e-03,7.61513e-01,9.99911e-01
