#,Wave/freq,Total,CO2,H2O,Rayleigh,CIA
4.000000000e-01,3.88953e-19,9.99999e-01,9.99916e-01,3.88986e-19,9.99999e-01
4.020000000e-01,8.99338e-19,9.99999e-01,9.99948e-01,8.99384e-19,9.99999e-01
4.040100000e-01,2.04357e-18,9.99999e-01,9.99977e-01,2.04362e-18,9.99999e-01
4.060300500e-01,4.56889e-18,9.99999e-01,9.99994e-01,4.56891e-18,9.99999e-01
4.080602003e-01,1.00537e-17,9.99999e-01,9.99997e-01,1.00537e-17,9.99999e-01
4.101005013e-01,2.17807e-17,9.99999e-01,9.99999e-01,2.17807e-17,9.99999e-01
4.121510038e-01,4.64712e-17,9.99999e-01,9.99996e-01,4.64713e-17,9.99999e-01
4.142117588e-01,9.76762e-17,9.99999e-01,9.99976e-01,9.76785e-17,9.99999e-01
4.162828176e-01,2.02300e-16,9.99999e-01,9.99896e-01,2.02321e-16,9.99999e-01
4.183642317e-01,4.13055e-16,9.99999e-01,9.99938e-01,4.13080e-16,9.99999e-01
4.204560528e-01,8.31553e-16,9.99999e-01,9.99962e-01,8.31584e-16,9.99999e-01
4.225583331e-01,1.65108e-15,9.99999e-01,9.99985e-01,1.65111e-15,9.99999e-01
4.246711247e-01,3.23412e-15,9.99999e-01,9.99988e-01,3.23415e-15,9.99999e-01
4.267944804e-01,6.25132e-15,9.99999e-01,9.99983e-01,6.25142e-15,9.99999e-01
4.289284528e-01,1.19272e-14,9.99999e-01,9.99986e-01,1.19273e-14,9.99999e-01
4.310730950e-01,2.24680e-14,9.99999e-01,9.99994e-01,2.24681e-14,9.99999e-01
4.332284605e-01,4.17981e-14,9.99999e-01,9.99998e-01,4.17981e-14,9.99999e-01
4.353946028e-01,7.68107e-14,9.99999e-01,9.99998e-01,7.68107e-14,9.99999e-01
4.375715758e-01,1.39464e-13,9.99999e-01,9.99989e-01,1.39466e-13,9.99999e-01
4.397594337e-01,2.50240e-13,9.99999e-01,9.99908e-01,2.50263e-13,9.99999e-01
4.419582309e-01,4.43718e-13,9.99999e-01,9.99535e-01,4.43924e-13,9.99999e-01
4.441680220e-01,7.78307e-13,9.99999e-01,9.99643e-01,7.78583e-13,9.99999e-01
4.463888621e-01,1.34996e-12,9.99999e-01,9.99627e-01,1.35046e-12,9.99999e-01
4.486208064e-01,2.31651e-12,9.99999e-01,9.99769e-01,2.31704e-12,9.99999e-01
4.508639105e-01,3.93286e-12,9.99999e-01,9.99891e-01,3.93329e-12,9.99999e-01
4.531182300e-01,6.60722e-12,9.99999e-01,9.99957e-01,6.60750e-12,9.99999e-01
4.553838212e-01,1.09864e-11,9.99999e-01,9.99970e-01,1.09868e-11,9.99999e-01
4.576607403e-01,1.80856e-11,9.99999e-01,9.99986e-01,1.80859e-11,9.99999e-01
4.599490440e-01,2.94801e-11,9.99999e-01,9.99990e-01,2.94804e-11,9.99999e-01
4.622487892e-01,4.75922e-11,9.99999e-01,9.99997e-01,4.75923e-11,9.99999e-01
4.645600332e-01,7.61076e-11,9.99999e-01,9.99992e-01,7.61081e-11,9.99999e-01
4.668828333e-01,1.20573e-10,9.99999e-01,9.99889e-01,1.20586e-10,9.99999e-01
4.692172475e-01,1.89285e-10,9.99999e-01,9.99766e-01,1.89329e-10,9.99999e-01
4.715633337e-01,2.94577e-10,9.99999e-01,9.99846e-01,2.94622e-10,9.99999e-01
4.739211504e-01,4.54420e-10,9.99999e-01,9.99853e-01,4.54487e-10,9.99999e-01
4.762907561e-01,6.95065e-10,9.99999e-01,9.99924e-01,6.95117e-10,9.99999e-01
4.786722099e-01,1.05423e-09,9.99999e-01,9.99968e-01,1.05427e-09,9.99999e-01
4.810655710e-01,1.58586e-09,9.99999e-01,9.99990e-01,1.58588e-09,9.99999e-01
4.834708988e-01,2.36617e-09,9.99999e-01,9.99908e-01,2.36639e-09,9.99999e-01
4.858882533e-01,3.50265e-09,9.99999e-01,9.99834e-01,3.50323e-09,9.99999e-01
4.883176946e-01,5.14549e-09,9.99999e-01,9.99860e-01,5.14620e-09,9.99999e-01
4.907592831e-01,7.50155e-09,9.99999e-01,9.99874e-01,7.50249e-09,9.99999e-01
4.932130795e-01,1.08555e-08,9.99999e-01,9.99910e-01,1.08565e-08,9.99999e-01
4.956791449e-01,1.55950e-08,9.99999e-01,9.99952e-01,1.55957e-08,9.99999e-01
4.981575406e-01,2.22387e-08,9.99999e-01,9.99764e-01,2.22440e-08,9.99999e-01
5.006483283e-01,3.14853e-08,9.99999e-01,9.99386e-01,3.15046e-08,9.99999e-01
5.031515699e-01,4.41781e-08,9.99999e-01,9.96913e-01,4.43149e-08,9.99999e-01
5.056673278e-01,6.18148e-08,9.99999e-01,9.98374e-01,6.19154e-08,9.99999e-01
5.081956644e-01,8.57606e-08,9.99999e-01,9.97950e-01,8.59366e-08,9.99999e-01
5.107366428e-01,1.18344e-07,9.99999e-01,9.98616e-01,1.18507e-07,9.99999e-01
5.132903260e-01,1.62261e-07,9.99999e-01,9.99210e-01,1.62389e-07,9.99999e-01
5.158567776e-01,2.21065e-07,9.99999e-01,9.99666e-01,2.21139e-07,9.99999e-01
5.184360615e-01,2.99272e-07,9.99999e-01,9.99866e-01,2.99312e-07,9.99999e-01
5.210282418e-01,4.02685e-07,9.99999e-01,9.99949e-01,4.02705e-07,9.99999e-01
5.236333830e-01,5.38539e-07,9.99999e-01,9.99798e-01,5.38647e-07,9.99999e-01
5.262515499e-01,7.16262e-07,9.99999e-01,9.99873e-01,7.16352e-07,9.99999e-01
5.288828077e-01,9.47224e-07,9.99999e-01,9.99883e-01,9.47334e-07,9.99999e-01
5.315272217e-01,1.24577e-06,9.99999e-01,9.99898e-01,1.24590e-06,9.99999e-01
5.341848578e-01,1.62960e-06,9.99999e-01,9.99932e-01,1.62971e-06,9.99999e-01
5.368557821e-01,2.11999e-06,9.99999e-01,9.99764e-01,2.12049e-06,9.99999e-01
5.395400610e-01,2.74241e-06,9.99999e-01,9.99146e-01,2.74475e-06,9.99999e-01
5.422377613e-01,3.53088e-06,9.99999e-01,9.98910e-01,3.53473e-06,9.99999e-01
5.449489501e-01,4.52478e-06,9.99999e-01,9.98980e-01,4.52939e-06,9.99999e-01
5.476736949e-01,5.77041e-06,9.99999e-01,9.99103e-01,5.77559e-06,9.99999e-01
5.504120634e-01,7.32462e-06,9.99999e-01,9.99348e-01,7.32939e-06,9.99999e-01
5.531641237e-01,9.25450e-06,9.99999e-01,9.99672e-01,9.25753e-06,9.99999e-01
5.559299443e-01,1.16373e-05,9.99999e-01,9.99841e-01,1.16391e-05,9.99999e-01
5.587095940e-01,1.45659e-05,9.99999e-01,9.99900e-01,1.45673e-05,9.99999e-01
5.615031420e-01,1.81496e-05,9.99999e-01,9.99888e-01,1.81516e-05,9.99999e-01
5.643106577e-01,2.25169e-05,9.99999e-01,9.99872e-01,2.25197e-05,9.99999e-01
5.671322110e-01,2.77772e-05,9.99999e-01,9.98452e-01,2.78203e-05,9.99999e-01
5.699678720e-01,3.41702e-05,9.99999e-01,9.98390e-01,3.42253e-05,9.99999e-01
5.728177114e-01,4.18619e-05,9.99999e-01,9.98308e-01,4.19328e-05,9.99999e-01
5.756818000e-01,5.10912e-05,9.99999e-01,9.98450e-01,5.11705e-05,9.99999e-01
5.785602090e-01,6.21143e-05,9.99999e-01,9.98651e-01,6.21981e-05,9.99999e-01
5.814530100e-01,7.52092e-05,9.99999e-01,9.98642e-01,7.53114e-05,9.99999e-01
5.843602750e-01,9.06976e-05,9.99999e-01,9.98372e-01,9.08454e-05,9.99999e-01
5.872820764e-01,1.07659e-04,9.99999e-01,9.86085e-01,1.09178e-04,9.99999e-01
5.902184868e-01,1.28547e-04,9.99999e-01,9.83257e-01,1.30735e-04,9.99999e-01
5.931695792e-01,1.54141e-04,9.99999e-01,9.88129e-01,1.55993e-04,9.99999e-01
5.961354271e-01,1.83071e-04,9.99999e-01,9.87007e-01,1.85481e-04,9.99999e-01
5.991161043e-01,2.17706e-04,9.99999e-01,9.90514e-01,2.19791e-04,9.99999e-01
6.021116848e-01,2.58177e-04,9.99999e-01,9.94612e-01,2.59576e-04,9.99999e-01
6.051222432e-01,3.04723e-04,9.99999e-01,9.97271e-01,3.05556e-04,9.99999e-01
6.081478544e-01,3.58103e-04,9.99999e-01,9.98821e-01,3.58525e-04,9.99999e-01
6.111885937e-01,4.19141e-04,9.99999e-01,9.99502e-01,4.19350e-04,9.99999e-01
6.142445367e-01,4.88868e-04,9.99999e-01,9.99777e-01,4.88977e-04,9.99999e-01
6.173157594e-01,5.68369e-04,9.99999e-01,9.99876e-01,5.68438e-04,9.99999e-01
6.204023382e-01,6.58781e-04,9.99999e-01,9.99895e-01,6.58850e-04,9.99999e-01
6.235043498e-01,7.61064e-04,9.99999e-01,9.99534e-01,7.61418e-04,9.99999e-01
6.266218716e-01,8.75311e-04,9.99999e-01,9.97570e-01,8.77443e-04,9.99999e-01
6.297549810e-01,1.00742e-03,9.99999e-01,9.99108e-01,1.00832e-03,9.99999e-01
6.329037559e-01,1.15351e-03,9.99999e-01,9.98242e-01,1.15554e-03,9.99999e-01
6.360682746e-01,1.31871e-03,9.99999e-01,9.98497e-01,1.32069e-03,9.99999e-01
6.392486160e-01,1.50255e-03,9.99999e-01,9.98056e-01,1.50547e-03,9.99999e-01
6.424448591e-01,1.70719e-03,9.99999e-01,9.97382e-01,1.71167e-03,9.99999e-01
6.456570834e-01,1.91772e-03,9.99999e-01,9.87910e-01,1.94119e-03,9.99999e-01
6.488853688e-01,2.17673e-03,9.99999e-01,9.91216e-01,2.19601e-03,9.99999e-01
6.521297956e-01,2.45607e-03,9.99999e-01,9.91052e-01,2.47825e-03,9.99999e-01
6.553904446e-01,2.76510e-03,9.99999e-01,9.91047e-01,2.79008e-03,9.99999e-01
6.586673968e-01,3.10986e-03,9.99999e-01,9.92358e-01,3.13380e-03,9.99999e-01
6.619607338e-01,3.49683e-03,9.99999e-01,9.95734e-01,3.51181e-03,9.99999e-01
6.652705375e-01,3.91650e-03,9.99999e-01,9.97437e-01,3.92656e-03,9.99999e-01
6.685968902e-01,4.37586e-03,9.99999e-01,9.98911e-01,4.38063e-03,9.99999e-01
6.719398746e-01,4.87397e-03,9.99999e-01,9.99448e-01,4.87666e-03,9.99999e-01
6.752995740e-01,5.41578e-03,9.99999e-01,9.99708e-01,5.41736e-03,9.99999e-01
6.786760719e-01,6.00290e-03,9.99999e-01,9.99563e-01,6.00552e-03,9.99999e-01
6.820694522e-01,6.63907e-03,9.99999e-01,9.99257e-01,6.64400e-03,9.99999e-01
6.854797995e-01,7.32869e-03,9.99999e-01,9.99042e-01,7.33571e-03,9.99999e-01
6.889071985e-01,8.06466e-03,9.99999e-01,9.97656e-01,8.08360e-03,9.99999e-01
6.923517345e-01,8.55945e-03,9.99999e-01,9.62743e-01,8.89068e-03,9.99999e-01
6.958134932e-01,9.57251e-03,9.99999e-01,9.80792e-01,9.75997e-03,9.99999e-01
6.992925606e-01,1.04957e-02,9.99999e-01,9.81404e-01,1.06945e-02,9.99998e-01
7.027890234e-01,1.14311e-02,9.99999e-01,9.77230e-01,1.16974e-02,9.99999e-01
7.063029686e-01,1.25265e-02,9.99999e-01,9.80795e-01,1.27718e-02,9.99999e-01
7.098344834e-01,1.36639e-02,9.99999e-01,9.81561e-01,1.39206e-02,9.99998e-01
7.133836558e-01,1.47731e-02,9.99999e-01,9.75321e-01,1.51469e-02,9.99998e-01
7.169505741e-01,1.35116e-02,9.99999e-01,8.21181e-01,1.64539e-02,9.99997e-01
7.205353270e-01,1.62185e-02,9.99999e-01,9.08887e-01,1.78443e-02,9.99996e-01
7.241380036e-01,1.70824e-02,9.99999e-01,8.84123e-01,1.93214e-02,9.99996e-01
7.277586936e-01,1.86934e-02,9.99999e-01,8.94942e-01,2.08878e-02,9.99997e-01
7.313974871e-01,2.00384e-02,9.99999e-01,8.88758e-01,2.25465e-02,9.99997e-01
7.350544745e-01,2.27786e-02,9.99999e-01,9.37383e-01,2.43002e-02,9.99998e-01
7.387297469e-01,2.49346e-02,9.99999e-01,9.53463e-01,2.61516e-02,9.99999e-01
7.424233956e-01,2.74561e-02,9.99999e-01,9.76973e-01,2.81032e-02,9.99999e-01
7.461355126e-01,2.97343e-02,9.99999e-01,9.85962e-01,3.01576e-02,9.99999e-01
7.498661902e-01,3.21057e-02,9.99999e-01,9.93455e-01,3.23171e-02,9.99999e-01
7.536155211e-01,3.44726e-02,9.99999e-01,9.96776e-01,3.45840e-02,9.99999e-01
7.573835987e-01,3.68990e-02,9.99999e-01,9.98340e-01,3.69604e-02,9.99999e-01
7.611705167e-01,3.94075e-02,9.99999e-01,9.98968e-01,3.94482e-02,9.99999e-01
7.649763693e-01,4.20221e-02,9.99999e-01,9.99352e-01,4.20493e-02,9.99999e-01
7.688012511e-01,4.47453e-02,9.99999e-01,9.99548e-01,4.47655e-02,9.99999e-01
7.726452574e-01,4.75805e-02,9.99999e-01,9.99628e-01,4.75982e-02,9.99999e-01
7.765084837e-01,5.05220e-02,9.99999e-01,9.99468e-01,5.05488e-02,9.99999e-01
7.803910261e-01,4.76989e-02,8.91442e-01,9.97703e-01,5.36187e-02,9.99999e-01
7.842929812e-01,3.19054e-02,5.65494e-01,9.92004e-01,5.68087e-02,9.99999e-01
7.882144461e-01,3.24816e-02,5.48133e-01,9.83701e-01,6.01199e-02,9.99999e-01
7.921555184e-01,4.32336e-02,6.85897e-01,9.91070e-01,6.35530e-02,9.99999e-01
7.961162960e-01,5.11995e-02,7.74822e-01,9.84130e-01,6.71084e-02,9.99999e-01
8.000968774e-01,6.05026e-02,8.70423e-01,9.81756e-01,7.07866e-02,9.99999e-01
8.040973618e-01,6.81588e-02,9.30673e-01,9.81736e-01,7.45877e-02,9.99999e-01
8.081178486e-01,7.28715e-02,9.67403e-01,9.59210e-01,7.85118e-02,9.99998e-01
8.121584379e-01,6.88394e-02,9.89899e-01,8.42003e-01,8.25587e-02,9.99997e-01
8.162192301e-01,7.07216e-02,9.97759e-01,8.17142e-01,8.67280e-02,9.99996e-01
8.203003262e-01,8.23805e-02,9.99968e-01,9.05108e-01,9.10193e-02,9.99996e-01
8.244018279e-01,8.33596e-02,9.99999e-01,8.73502e-01,9.54318e-02,9.99996e-01
8.285238370e-01,8.84943e-02,9.99999e-01,8.85257e-01,9.99647e-02,9.99997e-01
8.326664562e-01,9.25513e-02,9.99999e-01,8.84669e-01,1.04617e-01,9.99997e-01
8.368297885e-01,1.00177e-01,9.99999e-01,9.15802e-01,1.09387e-01,9.99998e-01
8.410139374e-01,1.08450e-01,9.99999e-01,9.49027e-01,1.14275e-01,9.99999e-01
8.452190071e-01,1.16256e-01,9.99999e-01,9.74670e-01,1.19277e-01,9.99999e-01
8.494451021e-01,1.22550e-01,9.99999e-01,9.85176e-01,1.24394e-01,9.99999e-01
8.536923276e-01,1.28485e-01,9.99999e-01,9.91231e-01,1.29622e-01,9.99999e-01
8.579607893e-01,1.34228e-01,9.99999e-01,9.94579e-01,1.34960e-01,9.99999e-01
8.622505932e-01,1.39923e-01,9.99999e-01,9.96559e-01,1.40406e-01,9.99999e-01
8.665618462e-01,1.23774e-01,8.49696e-01,9.97864e-01,1.45958e-01,9.99999e-01
8.708946554e-01,3.75857e-02,2.48452e-01,9.97550e-01,1.51613e-01,9.99999e-01
8.752491287e-01,4.85293e-02,3.09309e-01,9.96727e-01,1.57369e-01,9.99999e-01
8.796253743e-01,8.37597e-02,5.15271e-01,9.95458e-01,1.63223e-01,9.99999e-01
8.840235012e-01,1.18314e-01,7.02803e-01,9.94818e-01,1.69173e-01,9.99999e-01
8.884436187e-01,1.49567e-01,8.69464e-01,9.81055e-01,1.75216e-01,9.99998e-01
8.928858368e-01,1.40940e-01,9.44598e-01,8.21123e-01,1.81348e-01,9.99996e-01
8.973502660e-01,1.31294e-01,9.86308e-01,7.08942e-01,1.87569e-01,9.99995e-01
9.018370173e-01,1.62628e-01,9.98485e-01,8.39966e-01,1.93873e-01,9.99994e-01
9.063462024e-01,1.65504e-01,9.61779e-01,8.55322e-01,2.00258e-01,9.99993e-01
9.108779334e-01,1.48876e-01,9.14057e-01,7.84720e-01,2.06721e-01,9.99993e-01
9.154323231e-01,1.58700e-01,9.79281e-01,7.58647e-01,2.13260e-01,9.99992e-01
9.200094847e-01,1.41719e-01,7.72904e-01,8.06540e-01,2.19869e-01,9.99990e-01
9.246095321e-01,1.07948e-01,6.46309e-01,7.21229e-01,2.26547e-01,9.99984e-01
9.292325798e-01,2.48345e-02,7.14499e-01,1.37233e-01,2.33290e-01,9.99965e-01
9.338787427e-01,1.42030e-02,7.20324e-01,7.62542e-02,2.40094e-01,9.99956e-01
9.385481364e-01,7.03381e-02,7.83623e-01,3.49858e-01,2.46956e-01,9.99955e-01
9.432408771e-01,5.47743e-02,8.60587e-01,2.45161e-01,2.53873e-01,9.99950e-01
9.479570815e-01,3.44466e-02,9.25632e-01,1.41061e-01,2.60842e-01,9.99957e-01
9.526968669e-01,5.68388e-02,9.63534e-01,2.18497e-01,2.67858e-01,9.99967e-01
9.574603512e-01,6.33778e-02,9.84229e-01,2.33463e-01,2.74920e-01,9.99975e-01
9.622476530e-01,8.40577e-02,9.95057e-01,2.99245e-01,2.82022e-01,9.99983e-01
9.670588912e-01,1.42649e-01,9.98519e-01,4.93924e-01,2.89162e-01,9.99989e-01
9.718941857e-01,1.87616e-01,9.99896e-01,6.33171e-01,2.96336e-01,9.99993e-01
9.767536566e-01,2.07522e-01,9.99999e-01,6.83670e-01,3.03542e-01,9.99995e-01
9.816374249e-01,2.34135e-01,9.99999e-01,7.53392e-01,3.10775e-01,9.99996e-01
9.865456120e-01,2.66279e-01,9.99999e-01,8.37271e-01,3.18032e-01,9.99998e-01
9.914783401e-01,2.91377e-01,9.99999e-01,8.95688e-01,3.25311e-01,9.99999e-01
9.964357318e-01,3.13239e-01,9.99999e-01,9.41766e-01,3.32607e-01,9.99999e-01
1.001417910e+00,3.27908e-01,9.99999e-01,9.64665e-01,3.39919e-01,9.99999e-01
1.006425000e+00,3.40179e-01,9.99999e-01,9.79661e-01,3.47241e-01,9.99999e-01
1.011457125e+00,3.50089e-01,9.99999e-01,9.87354e-01,3.54573e-01,9.99999e-01
1.016514411e+00,3.58793e-01,9.99999e-01,9.91388e-01,3.61909e-01,9.99999e-01
1.021596983e+00,3.66626e-01,9.99765e-01,9.93128e-01,3.69248e-01,9.99999e-01
1.026704968e+00,3.68802e-01,9.84582e-01,9.94635e-01,3.76587e-01,9.99999e-01
1.031838492e+00,3.38060e-01,8.83764e-01,9.96104e-01,3.83922e-01,9.99999e-01
1.036997685e+00,1.42445e-02,3.64711e-02,9.97680e-01,3.91250e-01,9.99999e-01
1.042182673e+00,4.00653e-04,1.00728e-03,9.97227e-01,3.98570e-01,9.99999e-01
1.047393587e+00,1.14877e-03,2.83883e-03,9.96329e-01,4.05878e-01,9.99999e-01
1.052630555e+00,1.55438e-08,3.77381e-08,9.94961e-01,4.13172e-01,9.99999e-01
1.057893707e+00,5.91854e-08,1.41349e-07,9.91592e-01,4.20449e-01,9.99999e-01
1.063183176e+00,4.15432e-06,9.78694e-06,9.86216e-01,4.27707e-01,9.99999e-01
1.068499092e+00,6.22017e-05,1.45019e-04,9.77057e-01,4.34942e-01,9.99999e-01
1.073841587e+00,1.38666e-03,3.19452e-03,9.73198e-01,4.42154e-01,9.99999e-01
1.079210795e+00,1.21327e-02,2.77138e-02,9.65842e-01,4.49339e-01,9.99998e-01
1.084606849e+00,5.58434e-02,1.27944e-01,9.48736e-01,4.56496e-01,9.99997e-01
1.090029883e+00,1.46897e-01,3.39188e-01,9.27048e-01,4.63622e-01,9.99996e-01
1.095480033e+00,2.26230e-01,5.85456e-01,8.13980e-01,4.70715e-01,9.99994e-01
1.100957433e+00,2.22322e-01,7.71064e-01,5.97191e-01,4.77773e-01,9.99990e-01
1.106462220e+00,1.26345e-01,8.97937e-01,2.86607e-01,4.84795e-01,9.99980e-01
1.111994531e+00,3.74770e-02,9.60808e-01,7.86521e-02,4.91778e-01,9.99960e-01
1.117554504e+00,9.62384e-03,9.90327e-01,1.93984e-02,4.98720e-01,9.99944e-01
1.123142276e+00,3.51555e-02,9.99365e-01,6.95378e-02,5.05621e-01,9.99934e-01
1.128757988e+00,7.71235e-02,9.99999e-01,1.50502e-01,5.12478e-01,9.99928e-01
1.134401778e+00,3.55784e-02,9.99999e-01,6.85190e-02,5.19290e-01,9.99919e-01
1.140073787e+00,1.59678e-01,9.99999e-01,3.03557e-01,5.26055e-01,9.99935e-01
1.145774156e+00,5.42764e-02,9.99999e-01,1.01881e-01,5.32772e-01,9.99944e-01
1.151503026e+00,4.28485e-02,9.99999e-01,7.94352e-02,5.39440e-01,9.99952e-01
1.157260541e+00,5.50599e-02,9.99999e-01,1.00835e-01,5.46057e-01,9.99964e-01
1.163046844e+00,9.98318e-02,9.99999e-01,1.80655e-01,5.52622e-01,9.99976e-01
1.168862078e+00,1.63233e-01,9.99999e-01,2.91942e-01,5.59134e-01,9.99988e-01
1.174706389e+00,2.63531e-01,9.99999e-01,4.65942e-01,5.65592e-01,9.99993e-01
1.180579921e+00,3.58058e-01,9.99999e-01,6.25984e-01,5.71994e-01,9.99995e-01
1.186482820e+00,4.42620e-01,9.99965e-01,7.65348e-01,5.78341e-01,9.99996e-01
1.192415234e+00,4.75099e-01,9.48372e-01,8.54910e-01,5.84630e-01,9.99996e-01
1.198377311e+00,2.63348e-01,4.97390e-01,8.76154e-01,5.90862e-01,9.99997e-01
1.204369197e+00,4.95219e-39,8.91742e-39,8.82918e-01,5.97035e-01,9.99997e-01
1.210391043e+00,3.49763e-160,6.19803e-160,8.87490e-01,6.03148e-01,9.99998e-01
1.216442998e+00,1.62382e-138,2.83900e-138,9.03604e-01,6.09202e-01,9.99998e-01
1.222525213e+00,2.03766e-136,3.45035e-136,9.23907e-01,6.15195e-01,9.99998e-01
1.228637839e+00,4.36240e-105,7.28813e-105,9.46471e-01,6.21127e-01,9.99999e-01
1.234781029e+00,4.36549e-65,7.08663e-65,9.60016e-01,6.26997e-01,9.99999e-01
1.240954934e+00,5.54054e-43,8.89367e-43,9.74506e-01,6.32805e-01,9.99999e-01
1.247159708e+00,2.63251e-20,4.17186e-20,9.80099e-01,6.38551e-01,9.99999e-01
1.253395507e+00,7.82209e-14,1.22922e-13,9.82292e-01,6.44233e-01,9.99999e-01
1.259662485e+00,4.20275e-08,6.54446e-08,9.83141e-01,6.49853e-01,9.99999e-01
1.265960797e+00,8.59344e-05,1.33304e-04,9.73253e-01,6.55409e-01,9.99998e-01
1.272290601e+00,8.47268e-03,1.32444e-02,9.58220e-01,6.60902e-01,9.99998e-01
1.278652054e+00,8.09954e-03,1.28033e-02,9.18896e-01,6.66330e-01,9.99997e-01
1.285045314e+00,2.38276e-06,3.77162e-06,8.58185e-01,6.71695e-01,9.99996e-01
1.291470541e+00,1.58576e-18,2.70619e-18,7.66421e-01,6.76996e-01,9.99994e-01
1.297927893e+00,2.60521e-06,4.46289e-06,6.86365e-01,6.82232e-01,9.99990e-01
1.304417533e+00,1.67281e-04,3.36269e-04,6.44150e-01,6.87405e-01,9.99982e-01
1.310939621e+00,3.61652e-05,6.93167e-05,5.73964e-01,6.92513e-01,9.99970e-01
1.317494319e+00,4.90723e-55,9.49800e-55,5.80787e-01,6.97557e-01,9.99950e-01
1.324081790e+00,2.43067e-35,5.01526e-35,4.49758e-01,7.02538e-01,9.99920e-01
1.330702199e+00,2.38173e-21,8.74585e-21,1.03782e-01,7.07454e-01,9.99866e-01
1.337355710e+00,3.27713e-21,7.95336e-19,9.69213e-04,7.12307e-01,9.99745e-01
1.344042489e+00,1.43487e-22,4.74324e-19,1.26688e-05,7.17096e-01,9.99454e-01
1.350762701e+00,2.37503e-35,4.07352e-21,6.12193e-16,7.21822e-01,9.99128e-01
1.357516515e+00,3.98469e-34,1.52524e-12,1.31870e-23,7.26484e-01,9.98921e-01
1.364304097e+00,2.82475e-22,2.80808e-09,1.41022e-14,7.31084e-01,9.98844e-01
1.371125618e+00,5.17959e-13,4.56663e-05,4.06471e-09,7.35621e-01,9.98834e-01
1.377981246e+00,6.30601e-12,1.64688e-04,1.26941e-08,7.40096e-01,9.98748e-01
1.384871152e+00,2.93383e-14,6.03983e-03,2.86135e-12,7.44509e-01,9.98783e-01
1.391795508e+00,2.18620e-16,9.33776e-03,9.63232e-15,7.48861e-01,9.98968e-01
1.398754485e+00,9.46524e-13,5.03730e-02,1.64099e-11,7.53151e-01,9.99113e-01
1.405748258e+00,2.25882e-12,1.15148e-01,1.76759e-11,7.57380e-01,9.99205e-01
1.412776999e+00,8.21614e-12,2.51388e-01,2.80669e-11,7.61549e-01,9.99361e-01
1.419840884e+00,1.40764e-11,2.43772e-01,4.80051e-11,7.65657e-01,9.99522e-01
1.426940089e+00,1.62286e-08,7.24489e-03,9.75263e-08,7.69706e-01,9.99704e-01
1.434074789e+00,0.00000e+00,0.00000e+00,1.11093e-06,7.73696e-01,9.99815e-01
1.441245163e+00,0.00000e+00,0.00000e+00,1.30759e-05,7.77627e-01,9.99856e-01
1.448451389e+00,0.00000e+00,0.00000e+00,4.89134e-04,7.81500e-01,9.99880e-01
1.455693646e+00,0.00000e+00,0.00000e+00,5.56936e-03,7.85315e-01,9.99901e-01
1.462972114e+00,0.00000e+00,0.00000e+00,8.13912e-03,7.89072e-01,9.99915e-01
1.470286975e+00,1.70408e-267,7.66157e-266,4.02163e-03,7.92773e-01,9.99924e-01
