#,Wave/freq,Total,CO2,H2O,Rayleigh,CIA
4.000000000e-01,9.66211e-04,9.99999e-01,9.99985e-01,9.66224e-04,9.99999e-01
4.020000000e-01,1.10838e-03,9.99999e-01,9.99991e-01,1.10839e-03,9.99999e-01
4.040100000e-01,1.26784e-03,9.99999e-01,9.99995e-01,1.26784e-03,9.99999e-01
4.060300500e-01,1.44640e-03,9.99999e-01,9.99998e-01,1.44640e-03,9.99999e-01
4.080602003e-01,1.64581e-03,9.99999e-01,9.99999e-01,1.64581e-03,9.99999e-01
4.101005013e-01,1.86794e-03,9.99999e-01,9.99999e-01,1.86794e-03,9.99999e-01
4.121510038e-01,2.11475e-03,9.99999e-01,9.99999e-01,2.11475e-03,9.99999e-01
4.142117588e-01,2.38831e-03,9.99999e-01,9.99995e-01,2.38832e-03,9.99999e-01
4.162828176e-01,2.69076e-03,9.99999e-01,9.99982e-01,2.69080e-03,9.99999e-01
4.183642317e-01,3.02443e-03,9.99999e-01,9.99989e-01,3.02446e-03,9.99999e-01
4.204560528e-01,3.39163e-03,9.99999e-01,9.99993e-01,3.39165e-03,9.99999e-01
4.225583331e-01,3.79482e-03,9.99999e-01,9.99997e-01,3.79482e-03,9.99999e-01
4.246711247e-01,4.23651e-03,9.99999e-01,9.99997e-01,4.23651e-03,9.99999e-01
4.267944804e-01,4.71933e-03,9.99999e-01,9.99996e-01,4.71934e-03,9.99999e-01
4.289284528e-01,5.24598e-03,9.99999e-01,9.99997e-01,5.24599e-03,9.99999e-01
4.310730950e-01,5.81924e-03,9.99999e-01,9.99998e-01,5.81925e-03,9.99999e-01
4.332284605e-01,6.44193e-03,9.99999e-01,9.99999e-01,6.44193e-03,9.99999e-01
4.353946028e-01,7.11694e-03,9.99999e-01,9.99999e-01,7.11694e-03,9.99999e-01
4.375715758e-01,7.84721e-03,9.99999e-01,9.99997e-01,7.84722e-03,9.99999e-01
4.397594337e-01,8.63563e-03,9.99999e-01,9.99984e-01,8.63576e-03,9.99999e-01
4.419582309e-01,9.48487e-03,9.99999e-01,9.99924e-01,9.48558e-03,9.99999e-01
4.441680220e-01,1.03991e-02,9.99999e-01,9.99940e-01,1.03997e-02,9.99999e-01
4.463888621e-01,1.13806e-02,9.99999e-01,9.99938e-01,1.13813e-02,9.99999e-01
4.486208064e-01,1.24328e-02,9.99999e-01,9.99961e-01,1.24333e-02,9.99999e-01
4.508639105e-01,1.35586e-02,9.99999e-01,9.99981e-01,1.35588e-02,9.99999e-01
4.531182300e-01,1.47609e-02,9.99999e-01,9.99992e-01,1.47610e-02,9.99999e-01
4.553838212e-01,1.60427e-02,9.99999e-01,9.99994e-01,1.60428e-02,9.99999e-01
4.576607403e-01,1.74072e-02,9.99999e-01,9.99997e-01,1.74072e-02,9.99999e-01
4.599490440e-01,1.88573e-02,9.99999e-01,9.99997e-01,1.88573e-02,9.99999e-01
4.622487892e-01,2.03959e-02,9.99999e-01,9.99999e-01,2.03959e-02,9.99999e-01
4.645600332e-01,2.20259e-02,9.99999e-01,9.99998e-01,2.20259e-02,9.99999e-01
4.668828333e-01,2.37497e-02,9.99999e-01,9.99981e-01,2.37501e-02,9.99999e-01
4.692172475e-01,2.55702e-02,9.99999e-01,9.99961e-01,2.55711e-02,9.99999e-01
4.715633337e-01,2.74910e-02,9.99999e-01,9.99974e-01,2.74917e-02,9.99999e-01
4.739211504e-01,2.95135e-02,9.99999e-01,9.99975e-01,2.95142e-02,9.99999e-01
4.762907561e-01,3.16407e-02,9.99999e-01,9.99987e-01,3.16411e-02,9.99999e-01
4.786722099e-01,3.38745e-02,9.99999e-01,9.99994e-01,3.38747e-02,9.99999e-01
4.810655710e-01,3.62170e-02,9.99999e-01,9.99997e-01,3.62171e-02,9.99999e-01
4.834708988e-01,3.86698e-02,9.99999e-01,9.99984e-01,3.86704e-02,9.99999e-01
4.858882533e-01,4.12353e-02,9.99999e-01,9.99972e-01,4.12365e-02,9.99999e-01
4.883176946e-01,4.39160e-02,9.99999e-01,9.99976e-01,4.39170e-02,9.99999e-01
4.907592831e-01,4.67128e-02,9.99999e-01,9.99979e-01,4.67137e-02,9.99999e-01
4.932130795e-01,4.96272e-02,9.99999e-01,9.99984e-01,4.96279e-02,9.99999e-01
4.956791449e-01,5.26606e-02,9.99999e-01,9.99991e-01,5.26610e-02,9.99999e-01
4.981575406e-01,5.58118e-02,9.99999e-01,9.99961e-01,5.58139e-02,9.99999e-01
5.006483283e-01,5.90819e-02,9.99999e-01,9.99899e-01,5.90877e-02,9.99999e-01
5.031515699e-01,6.24516e-02,9.99999e-01,9.99494e-01,6.24832e-02,9.99999e-01
5.056673278e-01,6.59833e-02,9.99999e-01,9.99732e-01,6.60009e-02,9.99999e-01
5.081956644e-01,6.96179e-02,9.99999e-01,9.99663e-01,6.96413e-02,9.99999e-01
5.107366428e-01,7.33879e-02,9.99999e-01,9.99772e-01,7.34046e-02,9.99999e-01
5.132903260e-01,7.72808e-02,9.99999e-01,9.99869e-01,7.72908e-02,9.99999e-01
5.158567776e-01,8.12955e-02,9.99999e-01,9.99944e-01,8.12999e-02,9.99999e-01
5.184360615e-01,8.54297e-02,9.99999e-01,9.99977e-01,8.54316e-02,9.99999e-01
5.210282418e-01,8.96846e-02,9.99999e-01,9.99991e-01,8.96854e-02,9.99999e-01
5.236333830e-01,9.40576e-02,9.99999e-01,9.99966e-01,9.40607e-02,9.99999e-01
5.262515499e-01,9.85546e-02,9.99999e-01,9.99978e-01,9.85566e-02,9.99999e-01
5.288828077e-01,1.03170e-01,9.99999e-01,9.99980e-01,1.03172e-01,9.99999e-01
5.315272217e-01,1.07905e-01,9.99999e-01,9.99982e-01,1.07906e-01,9.99999e-01
5.341848578e-01,1.12757e-01,9.99999e-01,9.99988e-01,1.12758e-01,9.99999e-01
5.368557821e-01,1.17721e-01,9.99999e-01,9.99961e-01,1.17725e-01,9.99999e-01
5.395400610e-01,1.22790e-01,9.99999e-01,9.99861e-01,1.22807e-01,9.99999e-01
5.422377613e-01,1.27978e-01,9.99999e-01,9.99820e-01,1.28001e-01,9.99999e-01
5.449489501e-01,1.33283e-01,9.99999e-01,9.99833e-01,1.33305e-01,9.99999e-01
5.476736949e-01,1.38698e-01,9.99999e-01,9.99852e-01,1.38718e-01,9.99999e-01
5.504120634e-01,1.44222e-01,9.99999e-01,9.99892e-01,1.44238e-01,9.99999e-01
5.531641237e-01,1.49853e-01,9.99999e-01,9.99945e-01,1.49861e-01,9.99999e-01
5.559299443e-01,1.55582e-01,9.99999e-01,9.99973e-01,1.55586e-01,9.99999e-01
5.587095940e-01,1.61408e-01,9.99999e-01,9.99983e-01,1.61410e-01,9.99999e-01
5.615031420e-01,1.67328e-01,9.99999e-01,9.99981e-01,1.67331e-01,9.99999e-01
5.643106577e-01,1.73342e-01,9.99999e-01,9.99978e-01,1.73346e-01,9.99999e-01
5.671322110e-01,1.79406e-01,9.99999e-01,9.99749e-01,1.79451e-01,9.99999e-01
5.699678720e-01,1.85596e-01,9.99999e-01,9.99733e-01,1.85645e-01,9.99999e-01
5.728177114e-01,1.91870e-01,9.99999e-01,9.99722e-01,1.91924e-01,9.99999e-01
5.756818000e-01,1.98234e-01,9.99999e-01,9.99745e-01,1.98284e-01,9.99999e-01
5.785602090e-01,2.04679e-01,9.99999e-01,9.99778e-01,2.04724e-01,9.99999e-01
5.814530100e-01,2.11192e-01,9.99999e-01,9.99777e-01,2.11239e-01,9.99999e-01
5.843602750e-01,2.17769e-01,9.99999e-01,9.99734e-01,2.17827e-01,9.99999e-01
5.872820764e-01,2.23971e-01,9.99999e-01,9.97712e-01,2.24484e-01,9.99999e-01
5.902184868e-01,2.30568e-01,9.99999e-01,9.97232e-01,2.31207e-01,9.99999e-01
5.931695792e-01,2.37527e-01,9.99999e-01,9.98043e-01,2.37993e-01,9.99999e-01
5.961354271e-01,2.44313e-01,9.99999e-01,9.97856e-01,2.44838e-01,9.99999e-01
5.991161043e-01,2.51345e-01,9.99999e-01,9.98436e-01,2.51738e-01,9.99999e-01
6.021116848e-01,2.58462e-01,9.99999e-01,9.99112e-01,2.58692e-01,9.99999e-01
6.051222432e-01,2.65575e-01,9.99999e-01,9.99550e-01,2.65694e-01,9.99999e-01
6.081478544e-01,2.72689e-01,9.99999e-01,9.99805e-01,2.72742e-01,9.99999e-01
6.111885937e-01,2.79809e-01,9.99999e-01,9.99917e-01,2.79831e-01,9.99999e-01
6.142445367e-01,2.86950e-01,9.99999e-01,9.99962e-01,2.86960e-01,9.99999e-01
6.173157594e-01,2.94118e-01,9.99999e-01,9.99979e-01,2.94124e-01,9.99999e-01
6.204023382e-01,3.01315e-01,9.99999e-01,9.99982e-01,3.01321e-01,9.99999e-01
6.235043498e-01,3.08522e-01,9.99999e-01,9.99924e-01,3.08546e-01,9.99999e-01
6.266218716e-01,3.15670e-01,9.99999e-01,9.99601e-01,3.15796e-01,9.99999e-01
6.297549810e-01,3.23021e-01,9.99999e-01,9.99853e-01,3.23068e-01,9.99999e-01
6.329037559e-01,3.30264e-01,9.99999e-01,9.99711e-01,3.30360e-01,9.99999e-01
6.360682746e-01,3.37584e-01,9.99999e-01,9.99753e-01,3.37667e-01,9.99999e-01
6.392486160e-01,3.44876e-01,9.99999e-01,9.99681e-01,3.44986e-01,9.99999e-01
6.424448591e-01,3.52165e-01,9.99999e-01,9.99572e-01,3.52315e-01,9.99999e-01
6.456570834e-01,3.58938e-01,9.99999e-01,9.98018e-01,3.59650e-01,9.99999e-01
6.488853688e-01,3.66457e-01,9.99999e-01,9.98550e-01,3.66989e-01,9.99999e-01
6.521297956e-01,3.73775e-01,9.99999e-01,9.98522e-01,3.74328e-01,9.99999e-01
6.553904446e-01,3.81103e-01,9.99999e-01,9.98529e-01,3.81664e-01,9.99999e-01
6.586673968e-01,3.88506e-01,9.99999e-01,9.98740e-01,3.88995e-01,9.99999e-01
6.619607338e-01,3.96040e-01,9.99999e-01,9.99298e-01,3.96318e-01,9.99999e-01
6.652705375e-01,4.03460e-01,9.99999e-01,9.99578e-01,4.03630e-01,9.99999e-01
6.685968902e-01,4.10848e-01,9.99999e-01,9.99803e-01,4.10929e-01,9.99999e-01
6.719398746e-01,4.18173e-01,9.99999e-01,9.99908e-01,4.18211e-01,9.99999e-01
6.752995740e-01,4.25454e-01,9.99999e-01,9.99950e-01,4.25475e-01,9.99999e-01
6.786760719e-01,4.32687e-01,9.99999e-01,9.99928e-01,4.32718e-01,9.99999e-01
6.820694522e-01,4.39883e-01,9.99999e-01,9.99878e-01,4.39937e-01,9.99999e-01
6.854797995e-01,4.47060e-01,9.99999e-01,9.99842e-01,4.47130e-01,9.99999e-01
6.889071985e-01,4.54124e-01,9.99999e-01,9.99619e-01,4.54296e-01,9.99999e-01
6.923517345e-01,4.58574e-01,9.99999e-01,9.93806e-01,4.61432e-01,9.99999e-01
6.958134932e-01,4.67028e-01,9.99999e-01,9.96782e-01,4.68535e-01,9.99999e-01
6.992925606e-01,4.74148e-01,9.99999e-01,9.96937e-01,4.75604e-01,9.99999e-01
7.027890234e-01,4.80815e-01,9.99999e-01,9.96222e-01,4.82637e-01,9.99999e-01
7.063029686e-01,4.88078e-01,9.99999e-01,9.96824e-01,4.89632e-01,9.99999e-01
7.098344834e-01,4.95075e-01,9.99999e-01,9.96953e-01,4.96588e-01,9.99999e-01
7.133836558e-01,5.01454e-01,9.99999e-01,9.95933e-01,5.03502e-01,9.99999e-01
7.169505741e-01,4.93857e-01,9.99999e-01,9.67641e-01,5.10372e-01,9.99999e-01
7.205353270e-01,5.08966e-01,9.99999e-01,9.84082e-01,5.17198e-01,9.99999e-01
7.241380036e-01,5.13394e-01,9.99999e-01,9.79801e-01,5.23978e-01,9.99999e-01
7.277586936e-01,5.21028e-01,9.99999e-01,9.81755e-01,5.30710e-01,9.99999e-01
7.313974871e-01,5.26988e-01,9.99999e-01,9.80637e-01,5.37393e-01,9.99999e-01
7.350544745e-01,5.38251e-01,9.99999e-01,9.89385e-01,5.44026e-01,9.99999e-01
7.387297469e-01,5.46303e-01,9.99999e-01,9.92183e-01,5.50607e-01,9.99999e-01
7.424233956e-01,5.55002e-01,9.99999e-01,9.96171e-01,5.57135e-01,9.99999e-01
7.461355126e-01,5.62301e-01,9.99999e-01,9.97678e-01,5.63610e-01,9.99999e-01
7.498661902e-01,5.69413e-01,9.99999e-01,9.98918e-01,5.70029e-01,9.99999e-01
7.536155211e-01,5.76088e-01,9.99999e-01,9.99469e-01,5.76393e-01,9.99999e-01
7.573835987e-01,5.82541e-01,9.99999e-01,9.99726e-01,5.82700e-01,9.99999e-01
7.611705167e-01,5.88850e-01,9.99999e-01,9.99829e-01,5.88950e-01,9.99999e-01
7.649763693e-01,5.95078e-01,9.99999e-01,9.99893e-01,5.95141e-01,9.99999e-01
7.688012511e-01,6.01228e-01,9.99999e-01,9.99925e-01,6.01273e-01,9.99999e-01
7.726452574e-01,6.07308e-01,9.99999e-01,9.99938e-01,6.07345e-01,9.99999e-01
7.765084837e-01,6.13304e-01,9.99999e-01,9.99912e-01,6.13357e-01,9.99999e-01
7.803910261e-01,6.04524e-01,9.76486e-01,9.99625e-01,6.19308e-01,9.99999e-01
7.842929812e-01,5.63710e-01,9.02791e-01,9.98692e-01,6.25197e-01,9.99999e-01
7.882144461e-01,5.63895e-01,8.95962e-01,9.97309e-01,6.31024e-01,9.99999e-01
7.921555184e-01,5.96782e-01,9.38535e-01,9.98524e-01,6.36789e-01,9.99999e-01
7.961162960e-01,6.14257e-01,9.58540e-01,9.97390e-01,6.42491e-01,9.99999e-01
8.000968774e-01,6.31523e-01,9.77313e-01,9.96988e-01,6.48130e-01,9.99999e-01
8.040973618e-01,6.44046e-01,9.88195e-01,9.96987e-01,6.53706e-01,9.99999e-01
8.081178486e-01,6.51185e-01,9.94562e-01,9.93208e-01,6.59218e-01,9.99999e-01
8.121584379e-01,6.44935e-01,9.98319e-01,9.71936e-01,6.64666e-01,9.99999e-01
8.162192301e-01,6.47554e-01,9.99628e-01,9.66779e-01,6.70050e-01,9.99999e-01
8.203003262e-01,6.64036e-01,9.99994e-01,9.83221e-01,6.75371e-01,9.99999e-01
8.244018279e-01,6.64724e-01,9.99999e-01,9.76634e-01,6.80627e-01,9.99999e-01
8.285238370e-01,6.72144e-01,9.99999e-01,9.80060e-01,6.85819e-01,9.99999e-01
8.326664562e-01,6.77021e-01,9.99999e-01,9.79844e-01,6.90947e-01,9.99999e-01
8.368297885e-01,6.85979e-01,9.99999e-01,9.85585e-01,6.96011e-01,9.99999e-01
8.410139374e-01,6.94995e-01,9.99999e-01,9.91416e-01,7.01011e-01,9.99999e-01
8.452190071e-01,7.02972e-01,9.99999e-01,9.95785e-01,7.05947e-01,9.99999e-01
8.494451021e-01,7.09081e-01,9.99999e-01,9.97552e-01,7.10820e-01,9.99999e-01
8.536923276e-01,7.14593e-01,9.99999e-01,9.98552e-01,7.15628e-01,9.99999e-01
8.579607893e-01,7.19732e-01,9.99999e-01,9.99108e-01,7.20374e-01,9.99999e-01
8.622505932e-01,7.24645e-01,9.99999e-01,9.99433e-01,7.25056e-01,9.99999e-01
8.665618462e-01,6.87183e-01,9.42085e-01,9.99649e-01,7.29675e-01,9.99999e-01
8.708946554e-01,5.64587e-01,7.69250e-01,9.99598e-01,7.34231e-01,9.99999e-01
8.752491287e-01,5.98727e-01,8.10912e-01,9.99463e-01,7.38725e-01,9.99999e-01
8.796253743e-01,6.62370e-01,8.91941e-01,9.99256e-01,7.43157e-01,9.99999e-01
8.840235012e-01,7.04034e-01,9.42608e-01,9.99150e-01,7.47528e-01,9.99999e-01
8.884436187e-01,7.32292e-01,9.77017e-01,9.96895e-01,7.51837e-01,9.99999e-01
8.928858368e-01,7.24844e-01,9.90630e-01,9.67696e-01,7.56084e-01,9.99999e-01
8.973502660e-01,7.15734e-01,9.97719e-01,9.43540e-01,7.60272e-01,9.99998e-01
9.018370173e-01,7.41887e-01,9.99748e-01,9.70788e-01,7.64399e-01,9.99998e-01
9.063462024e-01,7.43912e-01,9.93513e-01,9.74235e-01,7.68466e-01,9.99998e-01
9.108779334e-01,7.30814e-01,9.85248e-01,9.60116e-01,7.72474e-01,9.99998e-01
9.154323231e-01,7.38830e-01,9.96523e-01,9.54854e-01,7.76423e-01,9.99998e-01
9.200094847e-01,7.15408e-01,9.49365e-01,9.64453e-01,7.80314e-01,9.99998e-01
9.246095321e-01,6.89214e-01,9.29754e-01,9.44468e-01,7.84147e-01,9.99996e-01
9.292325798e-01,5.09058e-01,9.44278e-01,6.81188e-01,7.87922e-01,9.99994e-01
9.338787427e-01,4.58220e-01,9.46259e-01,6.09070e-01,7.91640e-01,9.99992e-01
9.385481364e-01,6.26595e-01,9.60279e-01,8.19107e-01,7.95302e-01,9.99992e-01
9.432408771e-01,5.89672e-01,9.75525e-01,7.55878e-01,7.98908e-01,9.99991e-01
9.479570815e-01,5.37683e-01,9.87368e-01,6.78275e-01,8.02459e-01,9.99992e-01
9.526968669e-01,6.00432e-01,9.93891e-01,7.49279e-01,8.05955e-01,9.99994e-01
9.574603512e-01,6.20761e-01,9.97384e-01,7.68864e-01,8.09396e-01,9.99995e-01
9.622476530e-01,6.56159e-01,9.99183e-01,8.07932e-01,8.12784e-01,9.99996e-01
9.670588912e-01,7.21658e-01,9.99755e-01,8.84465e-01,8.16119e-01,9.99997e-01
9.718941857e-01,7.59041e-01,9.99982e-01,9.26351e-01,8.19401e-01,9.99998e-01
9.767536566e-01,7.72030e-01,9.99999e-01,9.38488e-01,8.22631e-01,9.99998e-01
9.816374249e-01,7.87898e-01,9.99999e-01,9.54091e-01,8.25810e-01,9.99999e-01
9.865456120e-01,8.04968e-01,9.99999e-01,9.71083e-01,8.28938e-01,9.99999e-01
9.914783401e-01,8.17069e-01,9.99999e-01,9.82035e-01,8.32015e-01,9.99999e-01
9.964357318e-01,8.26843e-01,9.99999e-01,9.90179e-01,8.35043e-01,9.99999e-01
1.001417910e+00,8.33082e-01,9.99999e-01,9.94104e-01,8.38022e-01,9.99999e-01
1.006425000e+00,8.38123e-01,9.99999e-01,9.96635e-01,8.40952e-01,9.99999e-01
1.011457125e+00,8.42072e-01,9.99999e-01,9.97911e-01,8.43834e-01,9.99999e-01
1.016514411e+00,8.45468e-01,9.99999e-01,9.98581e-01,8.46669e-01,9.99999e-01
1.021596983e+00,8.48468e-01,9.99964e-01,9.98869e-01,8.49457e-01,9.99999e-01
1.026704968e+00,8.49297e-01,9.97472e-01,9.99118e-01,8.52199e-01,9.99999e-01
1.031838492e+00,8.25322e-01,9.66009e-01,9.99358e-01,8.54896e-01,9.99999e-01
1.036997685e+00,1.87273e-01,2.18450e-01,9.99619e-01,8.57547e-01,9.99999e-01
1.042182673e+00,1.99132e-01,2.31603e-01,9.99545e-01,8.60154e-01,9.99999e-01
1.047393587e+00,2.00964e-01,2.33069e-01,9.99397e-01,8.62718e-01,9.99999e-01
1.052630555e+00,1.59580e-02,1.84551e-02,9.99173e-01,8.65238e-01,9.99999e-01
1.057893707e+00,3.40568e-02,3.92887e-02,9.98620e-01,8.67715e-01,9.99999e-01
1.063183176e+00,8.17172e-02,9.40759e-02,9.97730e-01,8.70150e-01,9.99999e-01
1.068499092e+00,1.74657e-01,2.00842e-01,9.96202e-01,8.72544e-01,9.99999e-01
1.073841587e+00,3.16651e-01,3.63361e-01,9.95554e-01,8.74897e-01,9.99999e-01
1.079210795e+00,4.60147e-01,5.27373e-01,9.94308e-01,8.77210e-01,9.99999e-01
1.084606849e+00,6.14453e-01,7.04524e-01,9.91392e-01,8.79483e-01,9.99999e-01
1.090029883e+00,7.26435e-01,8.34002e-01,9.87643e-01,8.81717e-01,9.99999e-01
1.095480033e+00,7.81612e-01,9.14513e-01,9.66685e-01,8.83912e-01,9.99998e-01
1.100957433e+00,7.78869e-01,9.57898e-01,9.17375e-01,8.86069e-01,9.99998e-01
1.106462220e+00,7.00485e-01,9.82379e-01,8.02462e-01,8.88188e-01,9.99996e-01
1.111994531e+00,5.56445e-01,9.93434e-01,6.28955e-01,8.90271e-01,9.99993e-01
1.117554504e+00,4.20083e-01,9.98394e-01,4.71437e-01,8.92317e-01,9.99990e-01
1.123142276e+00,5.12385e-01,9.99894e-01,5.72969e-01,8.94328e-01,9.99988e-01
1.128757988e+00,6.28691e-01,9.99999e-01,7.01434e-01,8.96303e-01,9.99987e-01
1.134401778e+00,4.01198e-01,9.99999e-01,4.46653e-01,8.98243e-01,9.99986e-01
1.140073787e+00,7.29340e-01,9.99999e-01,8.10251e-01,9.00149e-01,9.99988e-01
1.145774156e+00,5.80441e-01,9.99999e-01,6.43494e-01,9.02021e-01,9.99990e-01
1.151503026e+00,5.52312e-01,9.99999e-01,6.11063e-01,9.03860e-01,9.99991e-01
1.157260541e+00,6.02460e-01,9.99999e-01,6.65215e-01,9.05667e-01,9.99993e-01
1.163046844e+00,6.71684e-01,9.99999e-01,7.40198e-01,9.07441e-01,9.99995e-01
1.168862078e+00,7.38174e-01,9.99999e-01,8.11909e-01,9.09184e-01,9.99997e-01
1.174706389e+00,8.01003e-01,9.99999e-01,8.79359e-01,9.10895e-01,9.99998e-01
1.180579921e+00,8.43902e-01,9.99999e-01,9.24747e-01,9.12576e-01,9.99998e-01
1.186482820e+00,8.74720e-01,9.99994e-01,9.56791e-01,9.14226e-01,9.99998e-01
1.192415234e+00,8.84537e-01,9.90950e-01,9.74565e-01,9.15847e-01,9.99999e-01
1.198377311e+00,5.15930e-01,5.72683e-01,9.78516e-01,9.17439e-01,9.99999e-01
1.204369197e+00,2.83096e-08,3.11721e-08,9.79652e-01,9.19002e-01,9.99999e-01
1.210391043e+00,4.06697e-28,4.46646e-28,9.80539e-01,9.20536e-01,9.99999e-01
1.216442998e+00,1.43889e-24,1.57675e-24,9.83425e-01,9.22043e-01,9.99999e-01
1.222525213e+00,3.20623e-24,3.49513e-24,9.87076e-01,9.23522e-01,9.99999e-01
1.228637839e+00,1.02521e-18,1.11542e-18,9.91009e-01,9.24975e-01,9.99999e-01
1.234781029e+00,1.54170e-12,1.66902e-12,9.93317e-01,9.26401e-01,9.99999e-01
1.240954934e+00,1.66736e-08,1.80214e-08,9.95770e-01,9.27801e-01,9.99999e-01
1.247159708e+00,4.95130e-05,5.34019e-05,9.96705e-01,9.29175e-01,9.99999e-01
1.253395507e+00,3.47688e-03,3.74506e-03,9.97074e-01,9.30524e-01,9.99999e-01
1.259662485e+00,3.83308e-02,4.12308e-02,9.97220e-01,9.31849e-01,9.99999e-01
1.265960797e+00,1.46204e-01,1.57275e-01,9.95561e-01,9.33149e-01,9.99999e-01
1.272290601e+00,4.31013e-01,4.64298e-01,9.93032e-01,9.34425e-01,9.99999e-01
1.278652054e+00,3.72425e-01,4.02694e-01,9.86182e-01,9.35678e-01,9.99999e-01
1.285045314e+00,1.38671e-02,1.49743e-02,9.75052e-01,9.36907e-01,9.99999e-01
1.291470541e+00,5.17200e-04,5.68473e-04,9.56917e-01,9.38114e-01,9.99998e-01
1.297927893e+00,1.71774e-02,1.88790e-02,9.44139e-01,9.39298e-01,9.99998e-01
1.304417533e+00,2.18289e-01,2.48572e-01,9.28696e-01,9.40461e-01,9.99996e-01
1.310939621e+00,5.78216e-02,6.46947e-02,9.18688e-01,9.41602e-01,9.99994e-01
1.317494319e+00,3.70199e-10,4.15397e-10,9.12217e-01,9.42722e-01,9.99991e-01
1.324081790e+00,2.72426e-07,3.09220e-07,8.71248e-01,9.43821e-01,9.99986e-01
1.330702199e+00,1.99193e-04,2.87723e-04,5.64761e-01,9.44899e-01,9.99977e-01
1.337355710e+00,9.38553e-05,2.49368e-04,2.39037e-01,9.45958e-01,9.99957e-01
1.344042489e+00,1.52216e-05,7.47637e-05,2.47935e-02,9.46996e-01,9.99910e-01
1.350762701e+00,3.29939e-07,2.01233e-04,6.14841e-04,9.48016e-01,9.99856e-01
1.357516515e+00,4.34183e-07,3.89342e-03,4.27812e-05,9.49016e-01,9.99822e-01
1.364304097e+00,5.87899e-05,2.97408e-02,1.29028e-03,9.49997e-01,9.99810e-01
1.371125618e+00,2.33881e-03,1.57552e-01,1.12928e-02,9.50960e-01,9.99808e-01
1.377981246e+00,5.51166e-03,2.24941e-01,2.21751e-02,9.51905e-01,9.99794e-01
1.384871152e+00,5.61174e-04,4.19659e-01,1.21115e-03,9.52832e-01,9.99800e-01
1.391795508e+00,8.69438e-04,4.48456e-01,1.77874e-03,9.53742e-01,9.99830e-01
1.398754485e+00,2.81301e-03,6.10397e-01,4.62523e-03,9.54635e-01,9.99854e-01
1.405748258e+00,2.98033e-03,6.94877e-01,4.22586e-03,9.55511e-01,9.99869e-01
1.412776999e+00,3.65425e-03,7.94832e-01,4.62309e-03,9.56370e-01,9.99894e-01
1.419840884e+00,5.34410e-03,7.24970e-01,6.59514e-03,9.57213e-01,9.99921e-01
1.426940089e+00,5.43860e-03,8.44208e-02,1.95022e-02,9.58040e-01,9.99951e-01
1.434074789e+00,0.00000e+00,0.00000e+00,4.93611e-02,9.58852e-01,9.99969e-01
1.441245163e+00,0.00000e+00,0.00000e+00,1.02880e-01,9.59648e-01,9.99976e-01
1.448451389e+00,0.00000e+00,0.00000e+00,1.96925e-01,9.60429e-01,9.99980e-01
1.455693646e+00,9.42861e-221,1.68728e-220,3.45858e-01,9.61195e-01,9.99983e-01
1.462972114e+00,1.83006e-107,3.27239e-107,4.02481e-01,9.61947e-01,9.99985e-01
1.470286975e+00,1.06282e-45,1.98253e-45,3.45190e-01,9.62684e-01,9.99987e-01
