#,Wave/freq,Total,CO2,H2O,Rayleigh,CIA
4.000000000e-01,8.70590e-14,9.99999e-01,9.99940e-01,8.70641e-14,9.99999e-01
4.020000000e-01,1.57784e-13,9.99999e-01,9.99962e-01,1.57790e-13,9.99999e-01
4.040100000e-01,2.82450e-13,9.99999e-01,9.99983e-01,2.82454e-13,9.99999e-01
4.060300500e-01,4.99829e-13,9.99999e-01,9.99995e-01,4.99831e-13,9.99999e-01
4.080602003e-01,8.74584e-13,9.99999e-01,9.99998e-01,8.74585e-13,9.99999e-01
4.101005013e-01,1.51350e-12,9.99999e-01,9.99999e-01,1.51350e-12,9.99999e-01
4.121510038e-01,2.59093e-12,9.99999e-01,9.99997e-01,2.59093e-12,9.99999e-01
4.142117588e-01,4.38846e-12,9.99999e-01,9.99983e-01,4.38853e-12,9.99999e-01
4.162828176e-01,7.35579e-12,9.99999e-01,9.99926e-01,7.35633e-12,9.99999e-01
4.183642317e-01,1.22054e-11,9.99999e-01,9.99956e-01,1.22060e-11,9.99999e-01
4.204560528e-01,2.00506e-11,9.99999e-01,9.99972e-01,2.00512e-11,9.99999e-01
4.225583331e-01,3.26170e-11,9.99999e-01,9.99989e-01,3.26174e-11,9.99999e-01
4.246711247e-01,5.25510e-11,9.99999e-01,9.99991e-01,5.25514e-11,9.99999e-01
4.267944804e-01,8.38732e-11,9.99999e-01,9.99987e-01,8.38741e-11,9.99999e-01
4.289284528e-01,1.32635e-10,9.99999e-01,9.99990e-01,1.32636e-10,9.99999e-01
4.310730950e-01,2.07856e-10,9.99999e-01,9.99995e-01,2.07856e-10,9.99999e-01
4.332284605e-01,3.22858e-10,9.99999e-01,9.99998e-01,3.22858e-10,9.99999e-01
4.353946028e-01,4.97144e-10,9.99999e-01,9.99999e-01,4.97144e-10,9.99999e-01
4.375715758e-01,7.59008e-10,9.99999e-01,9.99992e-01,7.59014e-10,9.99999e-01
4.397594337e-01,1.14910e-09,9.99999e-01,9.99936e-01,1.14918e-09,9.99999e-01
4.419582309e-01,1.72515e-09,9.99999e-01,9.99677e-01,1.72571e-09,9.99999e-01
4.441680220e-01,2.57009e-09,9.99999e-01,9.99744e-01,2.57074e-09,9.99999e-01
4.463888621e-01,3.79854e-09,9.99999e-01,9.99735e-01,3.79954e-09,9.99999e-01
4.486208064e-01,5.57161e-09,9.99999e-01,9.99834e-01,5.57253e-09,9.99999e-01
4.508639105e-01,8.11063e-09,9.99999e-01,9.99922e-01,8.11125e-09,9.99999e-01
4.531182300e-01,1.17190e-08,9.99999e-01,9.99969e-01,1.17194e-08,9.99999e-01
4.553838212e-01,1.68094e-08,9.99999e-01,9.99978e-01,1.68098e-08,9.99999e-01
4.576607403e-01,2.39399e-08,9.99999e-01,9.99990e-01,2.39401e-08,9.99999e-01
4.599490440e-01,3.38575e-08,9.99999e-01,9.99992e-01,3.38577e-08,9.99999e-01
4.622487892e-01,4.75571e-08,9.99999e-01,9.99998e-01,4.75571e-08,9.99999e-01
4.645600332e-01,6.63524e-08,9.99999e-01,9.99994e-01,6.63527e-08,9.99999e-01
4.668828333e-01,9.19626e-08,9.99999e-01,9.99922e-01,9.19697e-08,9.99999e-01
4.692172475e-01,1.26636e-07,9.99999e-01,9.99833e-01,1.26657e-07,9.99999e-01
4.715633337e-01,1.73310e-07,9.99999e-01,9.99891e-01,1.73329e-07,9.99999e-01
4.739211504e-01,2.35708e-07,9.99999e-01,9.99895e-01,2.35733e-07,9.99999e-01
4.762907561e-01,3.18645e-07,9.99999e-01,9.99945e-01,3.18662e-07,9.99999e-01
4.786722099e-01,4.28200e-07,9.99999e-01,9.99977e-01,4.28209e-07,9.99999e-01
4.810655710e-01,5.72063e-07,9.99999e-01,9.99992e-01,5.72066e-07,9.99999e-01
4.834708988e-01,7.59845e-07,9.99999e-01,9.99937e-01,7.59893e-07,9.99999e-01
4.858882533e-01,1.00363e-06,9.99999e-01,9.99882e-01,1.00374e-06,9.99999e-01
4.883176946e-01,1.31845e-06,9.99999e-01,9.99901e-01,1.31858e-06,9.99999e-01
4.907592831e-01,1.72270e-06,9.99999e-01,9.99910e-01,1.72285e-06,9.99999e-01
4.932130795e-01,2.23908e-06,9.99999e-01,9.99936e-01,2.23922e-06,9.99999e-01
4.956791449e-01,2.89522e-06,9.99999e-01,9.99966e-01,2.89532e-06,9.99999e-01
4.981575406e-01,3.72408e-06,9.99999e-01,9.99833e-01,3.72470e-06,9.99999e-01
5.006483283e-01,4.76584e-06,9.99999e-01,9.99570e-01,4.76788e-06,9.99999e-01
5.031515699e-01,6.06028e-06,9.99999e-01,9.97816e-01,6.07354e-06,9.99999e-01
5.056673278e-01,7.69095e-06,9.99999e-01,9.98844e-01,7.69984e-06,9.99999e-01
5.081956644e-01,9.70182e-06,9.99999e-01,9.98542e-01,9.71598e-06,9.99999e-01
5.107366428e-01,1.21918e-05,9.99999e-01,9.99014e-01,1.22038e-05,9.99999e-01
5.132903260e-01,1.52512e-05,9.99999e-01,9.99436e-01,1.52598e-05,9.99999e-01
5.158567776e-01,1.89925e-05,9.99999e-01,9.99761e-01,1.89971e-05,9.99999e-01
5.184360615e-01,2.35452e-05,9.99999e-01,9.99904e-01,2.35475e-05,9.99999e-01
5.210282418e-01,2.90633e-05,9.99999e-01,9.99964e-01,2.90643e-05,9.99999e-01
5.236333830e-01,3.57197e-05,9.99999e-01,9.99857e-01,3.57248e-05,9.99999e-01
5.262515499e-01,4.37291e-05,9.99999e-01,9.99910e-01,4.37330e-05,9.99999e-01
5.288828077e-01,5.33186e-05,9.99999e-01,9.99917e-01,5.33230e-05,9.99999e-01
5.315272217e-01,6.47571e-05,9.99999e-01,9.99927e-01,6.47617e-05,9.99999e-01
5.341848578e-01,7.83493e-05,9.99999e-01,9.99952e-01,7.83529e-05,9.99999e-01
5.368557821e-01,9.44248e-05,9.99999e-01,9.99834e-01,9.44404e-05,9.99999e-01
5.395400610e-01,1.13344e-04,9.99999e-01,9.99404e-01,1.13412e-04,9.99999e-01
5.422377613e-01,1.35598e-04,9.99999e-01,9.99224e-01,1.35703e-04,9.99999e-01
5.449489501e-01,1.61684e-04,9.99999e-01,9.99281e-01,1.61800e-04,9.99999e-01
5.476736949e-01,1.92125e-04,9.99999e-01,9.99360e-01,1.92248e-04,9.99999e-01
5.504120634e-01,2.27543e-04,9.99999e-01,9.99535e-01,2.27648e-04,9.99999e-01
5.531641237e-01,2.68606e-04,9.99999e-01,9.99766e-01,2.68669e-04,9.99999e-01
5.559299443e-01,3.16010e-04,9.99999e-01,9.99886e-01,3.16045e-04,9.99999e-01
5.587095940e-01,3.70559e-04,9.99999e-01,9.99929e-01,3.70585e-04,9.99999e-01
5.615031420e-01,4.33139e-04,9.99999e-01,9.99921e-01,4.33173e-04,9.99999e-01
5.643106577e-01,5.04728e-04,9.99999e-01,9.99911e-01,5.04772e-04,9.99999e-01
5.671322110e-01,5.85805e-04,9.99999e-01,9.98931e-01,5.86432e-04,9.99999e-01
5.699678720e-01,6.78501e-04,9.99999e-01,9.98843e-01,6.79287e-04,9.99999e-01
5.728177114e-01,7.83625e-04,9.99999e-01,9.98803e-01,7.84563e-04,9.99999e-01
5.756818000e-01,9.02587e-04,9.99999e-01,9.98900e-01,9.03580e-04,9.99999e-01
5.785602090e-01,1.03676e-03,9.99999e-01,9.99040e-01,1.03775e-03,9.99999e-01
5.814530100e-01,1.18745e-03,9.99999e-01,9.99037e-01,1.18859e-03,9.99999e-01
5.843602750e-01,1.35617e-03,9.99999e-01,9.98858e-01,1.35772e-03,9.99999e-01
5.872820764e-01,1.53167e-03,9.99999e-01,9.90199e-01,1.54683e-03,9.99999e-01
5.902184868e-01,1.73676e-03,9.99999e-01,9.88057e-01,1.75775e-03,9.99999e-01
5.931695792e-01,1.97561e-03,9.99999e-01,9.91571e-01,1.99240e-03,9.99999e-01
5.961354271e-01,2.23195e-03,9.99999e-01,9.90747e-01,2.25279e-03,9.99999e-01
5.991161043e-01,2.52386e-03,9.99999e-01,9.93237e-01,2.54104e-03,9.99999e-01
6.021116848e-01,2.84837e-03,9.99999e-01,9.96154e-01,2.85936e-03,9.99999e-01
6.051222432e-01,3.20381e-03,9.99999e-01,9.98052e-01,3.21007e-03,9.99999e-01
6.081478544e-01,3.59254e-03,9.99999e-01,9.99159e-01,3.59556e-03,9.99999e-01
6.111885937e-01,4.01690e-03,9.99999e-01,9.99643e-01,4.01833e-03,9.99999e-01
6.142445367e-01,4.48026e-03,9.99999e-01,9.99840e-01,4.48097e-03,9.99999e-01
6.173157594e-01,4.98569e-03,9.99999e-01,9.99912e-01,4.98613e-03,9.99999e-01
6.204023382e-01,5.53613e-03,9.99999e-01,9.99925e-01,5.53654e-03,9.99999e-01
6.235043498e-01,6.13303e-03,9.99999e-01,9.99677e-01,6.13500e-03,9.99999e-01
6.266218716e-01,6.77271e-03,9.99999e-01,9.98277e-01,6.78439e-03,9.99999e-01
6.297549810e-01,7.48289e-03,9.99999e-01,9.99367e-01,7.48762e-03,9.99999e-01
6.329037559e-01,8.23735e-03,9.99999e-01,9.98748e-01,8.24766e-03,9.99999e-01
6.360682746e-01,9.05789e-03,9.99999e-01,9.98937e-01,9.06752e-03,9.99999e-01
6.392486160e-01,9.93652e-03,9.99999e-01,9.98621e-01,9.95023e-03,9.99999e-01
6.424448591e-01,1.08789e-02,9.99999e-01,9.98164e-01,1.08989e-02,9.99999e-01
6.456570834e-01,1.18152e-02,9.99999e-01,9.91502e-01,1.19165e-02,9.99999e-01
6.488853688e-01,1.29246e-02,9.99999e-01,9.93733e-01,1.30061e-02,9.99999e-01
6.521297956e-01,1.40804e-02,9.99999e-01,9.93612e-01,1.41709e-02,9.99999e-01
6.553904446e-01,1.53166e-02,9.99999e-01,9.93683e-01,1.54139e-02,9.99999e-01
6.586673968e-01,1.66469e-02,9.99999e-01,9.94549e-01,1.67381e-02,9.99999e-01
6.619607338e-01,1.80892e-02,9.99999e-01,9.96845e-01,1.81465e-02,9.99999e-01
6.652705375e-01,1.96061e-02,9.99999e-01,9.98169e-01,1.96420e-02,9.99999e-01
6.685968902e-01,2.12095e-02,9.99999e-01,9.99149e-01,2.12275e-02,9.99999e-01
6.719398746e-01,2.28969e-02,9.99999e-01,9.99605e-01,2.29059e-02,9.99999e-01
6.752995740e-01,2.46746e-02,9.99999e-01,9.99786e-01,2.46798e-02,9.99999e-01
6.786760719e-01,2.65439e-02,9.99999e-01,9.99693e-01,2.65520e-02,9.99999e-01
6.820694522e-01,2.85100e-02,9.99999e-01,9.99474e-01,2.85250e-02,9.99999e-01
6.854797995e-01,3.05805e-02,9.99999e-01,9.99322e-01,3.06012e-02,9.99999e-01
6.889071985e-01,3.27298e-02,9.99999e-01,9.98376e-01,3.27830e-02,9.99999e-01
6.923517345e-01,3.41482e-02,9.99999e-01,9.73640e-01,3.50727e-02,9.99999e-01
6.958134932e-01,3.69493e-02,9.99999e-01,9.86046e-01,3.74722e-02,9.99999e-01
6.992925606e-01,3.94591e-02,9.99999e-01,9.86882e-01,3.99836e-02,9.99999e-01
7.027890234e-01,4.19161e-02,9.99999e-01,9.83745e-01,4.26087e-02,9.99999e-01
7.063029686e-01,4.47288e-02,9.99999e-01,9.86319e-01,4.53491e-02,9.99999e-01
7.098344834e-01,4.75734e-02,9.99999e-01,9.86868e-01,4.82064e-02,9.99999e-01
7.133836558e-01,5.02960e-02,9.99999e-01,9.82689e-01,5.11820e-02,9.99998e-01
7.169505741e-01,4.71971e-02,9.99999e-01,8.69562e-01,5.42769e-02,9.99997e-01
7.205353270e-01,5.36402e-02,9.99999e-01,9.32999e-01,5.74923e-02,9.99997e-01
7.241380036e-01,5.57374e-02,9.99999e-01,9.16298e-01,6.08290e-02,9.99997e-01
7.277586936e-01,5.94097e-02,9.99999e-01,9.24124e-01,6.42876e-02,9.99997e-01
7.313974871e-01,6.23719e-02,9.99999e-01,9.19008e-01,6.78687e-02,9.99998e-01
7.350544745e-01,6.83453e-02,9.99999e-01,9.54908e-01,7.15726e-02,9.99998e-01
7.387297469e-01,7.28786e-02,9.99999e-01,9.66564e-01,7.53995e-02,9.99999e-01
7.424233956e-01,7.80377e-02,9.99999e-01,9.83469e-01,7.93494e-02,9.99999e-01
7.461355126e-01,8.25843e-02,9.99999e-01,9.89959e-01,8.34219e-02,9.99999e-01
7.498661902e-01,8.72056e-02,9.99999e-01,9.95305e-01,8.76168e-02,9.99999e-01
7.536155211e-01,9.17220e-02,9.99999e-01,9.97698e-01,9.19335e-02,9.99999e-01
7.573835987e-01,9.62571e-02,9.99999e-01,9.98814e-01,9.63714e-02,9.99999e-01
7.611705167e-01,1.00855e-01,9.99999e-01,9.99263e-01,1.00929e-01,9.99999e-01
7.649763693e-01,1.05558e-01,9.99999e-01,9.99538e-01,1.05606e-01,9.99999e-01
7.688012511e-01,1.10366e-01,9.99999e-01,9.99678e-01,1.10402e-01,9.99999e-01
7.726452574e-01,1.15283e-01,9.99999e-01,9.99735e-01,1.15313e-01,9.99999e-01
7.765084837e-01,1.20295e-01,9.99999e-01,9.99626e-01,1.20340e-01,9.99999e-01
7.803910261e-01,1.15256e-01,9.19898e-01,9.98388e-01,1.25480e-01,9.99999e-01
7.842929812e-01,8.56539e-02,6.58461e-01,9.94387e-01,1.30731e-01,9.99999e-01
7.882144461e-01,8.67196e-02,6.43970e-01,9.88407e-01,1.36092e-01,9.99999e-01
7.921555184e-01,1.07487e-01,7.63888e-01,9.93609e-01,1.41560e-01,9.99999e-01
7.961162960e-01,1.21199e-01,8.32812e-01,9.88807e-01,1.47134e-01,9.99999e-01
8.000968774e-01,1.36594e-01,9.05533e-01,9.87029e-01,1.52810e-01,9.99999e-01
8.040973618e-01,1.48667e-01,9.49690e-01,9.87038e-01,1.58587e-01,9.99999e-01
8.081178486e-01,1.56004e-01,9.76622e-01,9.71169e-01,1.64461e-01,9.99998e-01
8.121584379e-01,1.49849e-01,9.92684e-01,8.85533e-01,1.70431e-01,9.99998e-01
8.162192301e-01,1.52440e-01,9.98379e-01,8.65049e-01,1.76493e-01,9.99997e-01
8.203003262e-01,1.70207e-01,9.99973e-01,9.31920e-01,1.82644e-01,9.99997e-01
8.244018279e-01,1.71021e-01,9.99999e-01,9.05439e-01,1.88882e-01,9.99997e-01
8.285238370e-01,1.79033e-01,9.99999e-01,9.17162e-01,1.95204e-01,9.99997e-01
8.326664562e-01,1.84710e-01,9.99999e-01,9.16192e-01,2.01606e-01,9.99998e-01
8.368297885e-01,1.95416e-01,9.99999e-01,9.39114e-01,2.08085e-01,9.99998e-01
8.410139374e-01,2.06767e-01,9.99999e-01,9.63326e-01,2.14638e-01,9.99999e-01
8.452190071e-01,2.17241e-01,9.99999e-01,9.81824e-01,2.21262e-01,9.99999e-01
8.494451021e-01,2.25546e-01,9.99999e-01,9.89437e-01,2.27954e-01,9.99999e-01
8.536923276e-01,2.33238e-01,9.99999e-01,9.93728e-01,2.34710e-01,9.99999e-01
8.579607893e-01,2.40595e-01,9.99999e-01,9.96141e-01,2.41527e-01,9.99999e-01
8.622505932e-01,2.47791e-01,9.99999e-01,9.97543e-01,2.48401e-01,9.99999e-01
8.665618462e-01,2.23169e-01,8.75290e-01,9.98483e-01,2.55329e-01,9.99999e-01
8.708946554e-01,9.38871e-02,3.58499e-01,9.98265e-01,2.62308e-01,9.99999e-01
8.752491287e-01,1.14310e-01,4.25338e-01,9.97679e-01,2.69334e-01,9.99999e-01
8.796253743e-01,1.70319e-01,6.18029e-01,9.96794e-01,2.76404e-01,9.99999e-01
8.840235012e-01,2.19212e-01,7.75919e-01,9.96336e-01,2.83514e-01,9.99999e-01
8.884436187e-01,2.59421e-01,9.04074e-01,9.86867e-01,2.90662e-01,9.99998e-01
8.928858368e-01,2.48982e-01,9.59942e-01,8.69964e-01,2.97843e-01,9.99997e-01
8.973502660e-01,2.36067e-01,9.90079e-01,7.81170e-01,3.05055e-01,9.99996e-01
9.018370173e-01,2.74884e-01,9.98900e-01,8.81103e-01,3.12293e-01,9.99996e-01
9.063462024e-01,2.79056e-01,9.73146e-01,8.95243e-01,3.19555e-01,9.99995e-01
9.108779334e-01,2.58342e-01,9.37719e-01,8.41132e-01,3.26838e-01,9.99994e-01
9.154323231e-01,2.70406e-01,9.84926e-01,8.20922e-01,3.34138e-01,9.99994e-01
9.200094847e-01,2.46024e-01,8.24923e-01,8.56951e-01,3.41452e-01,9.99993e-01
9.246095321e-01,2.04760e-01,7.31421e-01,7.92784e-01,3.48776e-01,9.99988e-01
9.292325798e-01,6.68737e-02,7.86788e-01,2.27229e-01,3.56109e-01,9.99976e-01
9.338787427e-01,4.39563e-02,7.90138e-01,1.46073e-01,3.63446e-01,9.99969e-01
9.385481364e-01,1.45538e-01,8.39968e-01,4.56889e-01,3.70785e-01,9.99968e-01
9.432408771e-01,1.20884e-01,8.98067e-01,3.51480e-01,3.78123e-01,9.99964e-01
9.479570815e-01,8.65890e-02,9.46374e-01,2.35885e-01,3.85457e-01,9.99969e-01
9.526968669e-01,1.25510e-01,9.73768e-01,3.26596e-01,3.92785e-01,9.99976e-01
9.574603512e-01,1.36644e-01,9.88684e-01,3.44804e-01,4.00102e-01,9.99982e-01
9.622476530e-01,1.68230e-01,9.96454e-01,4.14178e-01,4.07407e-01,9.99988e-01
9.670588912e-01,2.48312e-01,9.98934e-01,5.99334e-01,4.14698e-01,9.99992e-01
9.718941857e-01,3.04299e-01,9.99923e-01,7.21185e-01,4.21971e-01,9.99995e-01
9.767536566e-01,3.27117e-01,9.99999e-01,7.62115e-01,4.29224e-01,9.99996e-01
9.816374249e-01,3.56461e-01,9.99999e-01,8.16720e-01,4.36455e-01,9.99997e-01
9.865456120e-01,3.90808e-01,9.99999e-01,8.80870e-01,4.43661e-01,9.99998e-01
9.914783401e-01,4.16795e-01,9.99999e-01,9.24484e-01,4.50841e-01,9.99999e-01
9.964357318e-01,4.38814e-01,9.99999e-01,9.58127e-01,4.57991e-01,9.99999e-01
1.001417910e+00,4.53333e-01,9.99999e-01,9.74677e-01,4.65110e-01,9.99999e-01
1.006425000e+00,4.65350e-01,9.99999e-01,9.85501e-01,4.72196e-01,9.99999e-01
1.011457125e+00,4.74917e-01,9.99999e-01,9.90963e-01,4.79247e-01,9.99999e-01
1.016514411e+00,4.83276e-01,9.99999e-01,9.93862e-01,4.86261e-01,9.99999e-01
1.021596983e+00,4.90756e-01,9.99861e-01,9.95108e-01,4.93235e-01,9.99999e-01
1.026704968e+00,4.92959e-01,9.89343e-01,9.96184e-01,5.00170e-01,9.99999e-01
1.031838492e+00,4.61515e-01,9.12582e-01,9.97222e-01,5.07061e-01,9.99999e-01
1.036997685e+00,2.88000e-02,5.61110e-02,9.98351e-01,5.13909e-01,9.99999e-01
1.042182673e+00,2.49100e-03,4.79111e-03,9.98038e-01,5.20711e-01,9.99999e-01
1.047393587e+00,6.24211e-03,1.18599e-02,9.97397e-01,5.27466e-01,9.99999e-01
1.052630555e+00,1.25118e-06,2.34761e-06,9.96432e-01,5.34173e-01,9.99999e-01
1.057893707e+00,4.62740e-06,8.58288e-06,9.94056e-01,5.40830e-01,9.99999e-01
1.063183176e+00,9.51337e-05,1.74780e-04,9.90232e-01,5.47437e-01,9.99999e-01
1.068499092e+00,8.54351e-04,1.55947e-03,9.83685e-01,5.53990e-01,9.99999e-01
1.073841587e+00,8.62467e-03,1.56046e-02,9.80970e-01,5.60491e-01,9.99999e-01
1.079210795e+00,4.06586e-02,7.31366e-02,9.75616e-01,5.66937e-01,9.99998e-01
1.084606849e+00,1.25931e-01,2.27022e-01,9.63381e-01,5.73328e-01,9.99998e-01
1.090029883e+00,2.53935e-01,4.60253e-01,9.48062e-01,5.79663e-01,9.99997e-01
1.095480033e+00,3.46583e-01,6.81073e-01,8.64679e-01,5.85940e-01,9.99996e-01
1.100957433e+00,3.42765e-01,8.30316e-01,6.93394e-01,5.92160e-01,9.99993e-01
1.106462220e+00,2.26544e-01,9.25824e-01,4.06169e-01,5.98320e-01,9.99985e-01
1.111994531e+00,9.20951e-02,9.71805e-01,1.56052e-01,6.04421e-01,9.99971e-01
1.117554504e+00,3.27504e-02,9.93024e-01,5.38816e-02,6.10462e-01,9.99960e-01
1.123142276e+00,8.15826e-02,9.99538e-01,1.32360e-01,6.16443e-01,9.99953e-01
1.128757988e+00,1.55314e-01,9.99999e-01,2.49568e-01,6.22362e-01,9.99948e-01
1.134401778e+00,6.91996e-02,9.99999e-01,1.10158e-01,6.28219e-01,9.99942e-01
1.140073787e+00,2.68011e-01,9.99999e-01,4.22739e-01,6.34014e-01,9.99953e-01
1.145774156e+00,1.16830e-01,9.99999e-01,1.82626e-01,6.39746e-01,9.99960e-01
1.151503026e+00,9.89670e-02,9.99999e-01,1.53343e-01,6.45416e-01,9.99966e-01
1.157260541e+00,1.23167e-01,9.99999e-01,1.89195e-01,6.51022e-01,9.99974e-01
1.163046844e+00,1.89336e-01,9.99999e-01,2.88378e-01,6.56565e-01,9.99983e-01
1.168862078e+00,2.72853e-01,9.99999e-01,4.12140e-01,6.62044e-01,9.99991e-01
1.174706389e+00,3.85757e-01,9.99999e-01,5.77950e-01,6.67459e-01,9.99995e-01
1.180579921e+00,4.80971e-01,9.99999e-01,7.14869e-01,6.72811e-01,9.99996e-01
1.186482820e+00,5.60370e-01,9.99983e-01,8.26397e-01,6.78098e-01,9.99997e-01
1.192415234e+00,5.89728e-01,9.63671e-01,8.94516e-01,6.83321e-01,9.99997e-01
1.198377311e+00,3.32782e-01,5.22645e-01,9.10461e-01,6.88480e-01,9.99997e-01
1.204369197e+00,2.41191e-28,3.66076e-28,9.15227e-01,6.93575e-01,9.99998e-01
1.210391043e+00,2.78164e-114,4.17419e-114,9.18642e-01,6.98606e-01,9.99998e-01
1.216442998e+00,6.49102e-99,9.64793e-99,9.30273e-01,7.03573e-01,9.99998e-01
1.222525213e+00,2.00459e-97,2.91265e-97,9.45239e-01,7.08476e-01,9.99999e-01
1.228637839e+00,3.51466e-75,5.05860e-75,9.61655e-01,7.13315e-01,9.99999e-01
1.234781029e+00,7.96872e-47,1.12370e-46,9.71367e-01,7.18091e-01,9.99999e-01
1.240954934e+00,4.25442e-31,5.95254e-31,9.81808e-01,7.22804e-01,9.99999e-01
1.247159708e+00,4.64635e-15,6.44117e-15,9.85796e-01,7.27453e-01,9.99999e-01
1.253395507e+00,3.09189e-10,4.26127e-10,9.87391e-01,7.32040e-01,9.99999e-01
1.259662485e+00,3.65889e-06,5.01061e-06,9.88036e-01,7.36564e-01,9.99999e-01
1.265960797e+00,8.45495e-04,1.15510e-03,9.80925e-01,7.41026e-01,9.99999e-01
1.272290601e+00,2.52183e-02,3.45823e-02,9.72109e-01,7.45426e-01,9.99998e-01
1.278652054e+00,2.84472e-02,3.94500e-02,9.42033e-01,7.49764e-01,9.99998e-01
1.285045314e+00,4.58516e-05,6.35944e-05,9.10497e-01,7.54042e-01,9.99997e-01
1.291470541e+00,1.29719e-13,1.89569e-13,8.28298e-01,7.58258e-01,9.99995e-01
1.297927893e+00,4.90773e-06,7.19793e-06,7.82740e-01,7.62414e-01,9.99993e-01
1.304417533e+00,1.84408e-03,3.07052e-03,7.30046e-01,7.66510e-01,9.99987e-01
1.310939621e+00,5.00327e-04,7.96545e-04,6.98330e-01,7.70547e-01,9.99979e-01
1.317494319e+00,5.07758e-39,8.11045e-39,6.76842e-01,7.74524e-01,9.99964e-01
1.324081790e+00,1.04382e-25,1.74644e-25,5.62645e-01,7.78443e-01,9.99943e-01
1.330702199e+00,1.47905e-15,4.03687e-15,1.70778e-01,7.82304e-01,9.99905e-01
1.337355710e+00,1.36785e-15,7.01516e-14,5.67433e-03,7.86107e-01,9.99818e-01
1.344042489e+00,1.15460e-16,3.62337e-14,1.22001e-04,7.89852e-01,9.99612e-01
1.350762701e+00,1.13026e-25,1.98283e-15,7.18411e-12,7.93542e-01,9.99381e-01
1.357516515e+00,7.43093e-25,1.82204e-09,2.37783e-17,7.97174e-01,9.99234e-01
1.364304097e+00,2.16007e-16,6.15433e-07,6.77915e-11,8.00752e-01,9.99179e-01
1.371125618e+00,7.71016e-10,6.83571e-04,4.52539e-07,8.04274e-01,9.99172e-01
1.377981246e+00,6.17198e-09,1.85535e-03,1.51825e-06,8.07742e-01,9.99111e-01
1.384871152e+00,9.07918e-11,2.55090e-02,2.33989e-09,8.11156e-01,9.99120e-01
1.391795508e+00,3.87847e-12,3.38893e-02,6.02524e-11,8.14516e-01,9.99246e-01
1.398754485e+00,1.26122e-09,1.18809e-01,9.72224e-09,8.17823e-01,9.99370e-01
1.405748258e+00,2.60315e-09,2.11565e-01,1.12625e-08,8.21079e-01,9.99435e-01
1.412776999e+00,5.28407e-09,3.71827e-01,1.27112e-08,8.24282e-01,9.99546e-01
1.419840884e+00,1.04824e-08,3.49370e-01,2.51299e-08,8.27434e-01,9.99661e-01
1.426940089e+00,1.07980e-06,1.33934e-02,4.03923e-06,8.30536e-01,9.99790e-01
1.434074789e+00,0.00000e+00,0.00000e+00,3.62527e-05,8.33588e-01,9.99869e-01
1.441245163e+00,0.00000e+00,0.00000e+00,2.34268e-04,8.36590e-01,9.99898e-01
1.448451389e+00,0.00000e+00,0.00000e+00,3.19906e-03,8.39544e-01,9.99915e-01
1.455693646e+00,0.00000e+00,0.00000e+00,1.95699e-02,8.42449e-01,9.99929e-01
1.462972114e+00,0.00000e+00,0.00000e+00,2.89042e-02,8.45307e-01,9.99940e-01
1.470286975e+00,1.99441e-190,2.96721e-189,1.66921e-02,8.48117e-01,9.99946e-01
