#,Wave/freq,Total,CO2,H2O,Rayleigh,CIA
4.000000000e-01,2.32125e-11,9.99999e-01,9.99951e-01,2.32136e-11,9.99999e-01
4.020000000e-01,3.76701e-11,9.99999e-01,9.99969e-01,3.76712e-11,9.99999e-01
4.040100000e-01,6.05206e-11,9.99999e-01,9.99986e-01,6.05214e-11,9.99999e-01
4.060300500e-01,9.63253e-11,9.99999e-01,9.99996e-01,9.63256e-11,9.99999e-01
4.080602003e-01,1.51910e-10,9.99999e-01,9.99998e-01,1.51910e-10,9.99999e-01
4.101005013e-01,2.37424e-10,9.99999e-01,9.99999e-01,2.37424e-10,9.99999e-01
4.121510038e-01,3.67817e-10,9.99999e-01,9.99997e-01,3.67818e-10,9.99999e-01
4.142117588e-01,5.64910e-10,9.99999e-01,9.99986e-01,5.64917e-10,9.99999e-01
4.162828176e-01,8.60261e-10,9.99999e-01,9.99940e-01,8.60312e-10,9.99999e-01
4.183642317e-01,1.29928e-09,9.99999e-01,9.99964e-01,1.29933e-09,9.99999e-01
4.204560528e-01,1.94642e-09,9.99999e-01,9.99977e-01,1.94646e-09,9.99999e-01
4.225583331e-01,2.89268e-09,9.99999e-01,9.99991e-01,2.89270e-09,9.99999e-01
4.246711247e-01,4.26542e-09,9.99999e-01,9.99993e-01,4.26545e-09,9.99999e-01
4.267944804e-01,6.24150e-09,9.99999e-01,9.99990e-01,6.24156e-09,9.99999e-01
4.289284528e-01,9.06470e-09,9.99999e-01,9.99992e-01,9.06477e-09,9.99999e-01
4.310730950e-01,1.30682e-08,9.99999e-01,9.99996e-01,1.30683e-08,9.99999e-01
4.332284605e-01,1.87044e-08,9.99999e-01,9.99998e-01,1.87044e-08,9.99999e-01
4.353946028e-01,2.65822e-08,9.99999e-01,9.99999e-01,2.65822e-08,9.99999e-01
4.375715758e-01,3.75165e-08,9.99999e-01,9.99993e-01,3.75167e-08,9.99999e-01
4.397594337e-01,5.25871e-08,9.99999e-01,9.99947e-01,5.25898e-08,9.99999e-01
4.419582309e-01,7.32093e-08,9.99999e-01,9.99732e-01,7.32288e-08,9.99999e-01
4.441680220e-01,1.01282e-07,9.99999e-01,9.99793e-01,1.01303e-07,9.99999e-01
4.463888621e-01,1.39215e-07,9.99999e-01,9.99784e-01,1.39245e-07,9.99999e-01
4.486208064e-01,1.90173e-07,9.99999e-01,9.99866e-01,1.90198e-07,9.99999e-01
4.508639105e-01,2.58185e-07,9.99999e-01,9.99937e-01,2.58201e-07,9.99999e-01
4.531182300e-01,3.48400e-07,9.99999e-01,9.99974e-01,3.48408e-07,9.99999e-01
4.553838212e-01,4.67348e-07,9.99999e-01,9.99982e-01,4.67356e-07,9.99999e-01
4.576607403e-01,6.23282e-07,9.99999e-01,9.99991e-01,6.23287e-07,9.99999e-01
4.599490440e-01,8.26525e-07,9.99999e-01,9.99994e-01,8.26530e-07,9.99999e-01
4.622487892e-01,1.08995e-06,9.99999e-01,9.99998e-01,1.08995e-06,9.99999e-01
4.645600332e-01,1.42949e-06,9.99999e-01,9.99995e-01,1.42950e-06,9.99999e-01
4.668828333e-01,1.86469e-06,9.99999e-01,9.99936e-01,1.86480e-06,9.99999e-01
4.692172475e-01,2.41960e-06,9.99999e-01,9.99864e-01,2.41993e-06,9.99999e-01
4.715633337e-01,3.12391e-06,9.99999e-01,9.99911e-01,3.12418e-06,9.99999e-01
4.739211504e-01,4.01275e-06,9.99999e-01,9.99915e-01,4.01309e-06,9.99999e-01
4.762907561e-01,5.12926e-06,9.99999e-01,9.99955e-01,5.12948e-06,9.99999e-01
4.786722099e-01,6.52462e-06,9.99999e-01,9.99981e-01,6.52473e-06,9.99999e-01
4.810655710e-01,8.26011e-06,9.99999e-01,9.99994e-01,8.26015e-06,9.99999e-01
4.834708988e-01,1.04080e-05,9.99999e-01,9.99947e-01,1.04085e-05,9.99999e-01
4.858882533e-01,1.30547e-05,9.99999e-01,9.99904e-01,1.30560e-05,9.99999e-01
4.883176946e-01,1.63023e-05,9.99999e-01,9.99919e-01,1.63036e-05,9.99999e-01
4.907592831e-01,2.02685e-05,9.99999e-01,9.99927e-01,2.02700e-05,9.99999e-01
4.932130795e-01,2.50918e-05,9.99999e-01,9.99948e-01,2.50931e-05,9.99999e-01
4.956791449e-01,3.09323e-05,9.99999e-01,9.99972e-01,3.09332e-05,9.99999e-01
4.981575406e-01,3.79700e-05,9.99999e-01,9.99863e-01,3.79752e-05,9.99999e-01
5.006483283e-01,4.64154e-05,9.99999e-01,9.99646e-01,4.64318e-05,9.99999e-01
5.031515699e-01,5.64458e-05,9.99999e-01,9.98216e-01,5.65466e-05,9.99999e-01
5.056673278e-01,6.85329e-05,9.99999e-01,9.99060e-01,6.85973e-05,9.99999e-01
5.081956644e-01,8.28010e-05,9.99999e-01,9.98814e-01,8.28992e-05,9.99999e-01
5.107366428e-01,9.97291e-05,9.99999e-01,9.99199e-01,9.98089e-05,9.99999e-01
5.132903260e-01,1.19673e-04,9.99999e-01,9.99542e-01,1.19728e-04,9.99999e-01
5.158567776e-01,1.43079e-04,9.99999e-01,9.99806e-01,1.43107e-04,9.99999e-01
5.184360615e-01,1.70436e-04,9.99999e-01,9.99922e-01,1.70450e-04,9.99999e-01
5.210282418e-01,2.02311e-04,9.99999e-01,9.99970e-01,2.02317e-04,9.99999e-01
5.236333830e-01,2.39302e-04,9.99999e-01,9.99883e-01,2.39330e-04,9.99999e-01
5.262515499e-01,2.82156e-04,9.99999e-01,9.99926e-01,2.82176e-04,9.99999e-01
5.288828077e-01,3.31591e-04,9.99999e-01,9.99932e-01,3.31613e-04,9.99999e-01
5.315272217e-01,3.88447e-04,9.99999e-01,9.99941e-01,3.88470e-04,9.99999e-01
5.341848578e-01,4.53638e-04,9.99999e-01,9.99961e-01,4.53655e-04,9.99999e-01
5.368557821e-01,5.28086e-04,9.99999e-01,9.99863e-01,5.28158e-04,9.99999e-01
5.395400610e-01,6.12751e-04,9.99999e-01,9.99508e-01,6.13052e-04,9.99999e-01
5.422377613e-01,7.09053e-04,9.99999e-01,9.99369e-01,7.09500e-04,9.99999e-01
5.449489501e-01,8.18274e-04,9.99999e-01,9.99411e-01,8.18755e-04,9.99999e-01
5.476736949e-01,9.41676e-04,9.99999e-01,9.99481e-01,9.42164e-04,9.99999e-01
5.504120634e-01,1.08077e-03,9.99999e-01,9.99623e-01,1.08117e-03,9.99999e-01
5.531641237e-01,1.23709e-03,9.99999e-01,9.99810e-01,1.23732e-03,9.99999e-01
5.559299443e-01,1.41213e-03,9.99999e-01,9.99908e-01,1.41226e-03,9.99999e-01
5.587095940e-01,1.60763e-03,9.99999e-01,9.99942e-01,1.60772e-03,9.99999e-01
5.615031420e-01,1.82544e-03,9.99999e-01,9.99935e-01,1.82555e-03,9.99999e-01
5.643106577e-01,2.06755e-03,9.99999e-01,9.99926e-01,2.06770e-03,9.99999e-01
5.671322110e-01,2.33415e-03,9.99999e-01,9.99110e-01,2.33622e-03,9.99999e-01
5.699678720e-01,2.63080e-03,9.99999e-01,9.99066e-01,2.63325e-03,9.99999e-01
5.728177114e-01,2.95815e-03,9.99999e-01,9.99022e-01,2.96104e-03,9.99999e-01
5.756818000e-01,3.31895e-03,9.99999e-01,9.99104e-01,3.32192e-03,9.99999e-01
5.785602090e-01,3.71543e-03,9.99999e-01,9.99219e-01,3.71833e-03,9.99999e-01
5.814530100e-01,4.14953e-03,9.99999e-01,9.99215e-01,4.15279e-03,9.99999e-01
5.843602750e-01,4.62355e-03,9.99999e-01,9.99061e-01,4.62789e-03,9.99999e-01
5.872820764e-01,5.10489e-03,9.99999e-01,9.91946e-01,5.14633e-03,9.99999e-01
5.902184868e-01,5.65538e-03,9.99999e-01,9.90284e-01,5.71086e-03,9.99999e-01
5.931695792e-01,6.28080e-03,9.99999e-01,9.93121e-01,6.32430e-03,9.99999e-01
5.961354271e-01,6.93688e-03,9.99999e-01,9.92467e-01,6.98953e-03,9.99999e-01
5.991161043e-01,7.66711e-03,9.99999e-01,9.94503e-01,7.70948e-03,9.99999e-01
6.021116848e-01,8.46067e-03,9.99999e-01,9.96879e-01,8.48715e-03,9.99999e-01
6.051222432e-01,9.31081e-03,9.99999e-01,9.98420e-01,9.32553e-03,9.99999e-01
6.081478544e-01,1.02207e-02,9.99999e-01,9.99317e-01,1.02277e-02,9.99999e-01
6.111885937e-01,1.11935e-02,9.99999e-01,9.99711e-01,1.11967e-02,9.99999e-01
6.142445367e-01,1.22340e-02,9.99999e-01,9.99870e-01,1.22356e-02,9.99999e-01
6.173157594e-01,1.33465e-02,9.99999e-01,9.99928e-01,1.33475e-02,9.99999e-01
6.204023382e-01,1.45345e-02,9.99999e-01,9.99939e-01,1.45354e-02,9.99999e-01
6.235043498e-01,1.57982e-02,9.99999e-01,9.99732e-01,1.58024e-02,9.99999e-01
6.266218716e-01,1.71275e-02,9.99999e-01,9.98595e-01,1.71515e-02,9.99999e-01
6.297549810e-01,1.85762e-02,9.99999e-01,9.99484e-01,1.85858e-02,9.99999e-01
6.329037559e-01,2.00875e-02,9.99999e-01,9.98983e-01,2.01080e-02,9.99999e-01
6.360682746e-01,2.17022e-02,9.99999e-01,9.99132e-01,2.17210e-02,9.99999e-01
6.392486160e-01,2.34015e-02,9.99999e-01,9.98876e-01,2.34278e-02,9.99999e-01
6.424448591e-01,2.51929e-02,9.99999e-01,9.98490e-01,2.52309e-02,9.99999e-01
6.456570834e-01,2.69435e-02,9.99999e-01,9.93012e-01,2.71331e-02,9.99999e-01
6.488853688e-01,2.89884e-02,9.99999e-01,9.94908e-01,2.91368e-02,9.99999e-01
6.521297956e-01,3.10823e-02,9.99999e-01,9.94810e-01,3.12444e-02,9.99999e-01
6.553904446e-01,3.32851e-02,9.99999e-01,9.94820e-01,3.34583e-02,9.99999e-01
6.586673968e-01,3.56223e-02,9.99999e-01,9.95572e-01,3.57807e-02,9.99999e-01
6.619607338e-01,3.81193e-02,9.99999e-01,9.97530e-01,3.82136e-02,9.99999e-01
6.652705375e-01,4.06985e-02,9.99999e-01,9.98517e-01,4.07589e-02,9.99999e-01
6.685968902e-01,4.33911e-02,9.99999e-01,9.99369e-01,4.34185e-02,9.99999e-01
6.719398746e-01,4.61791e-02,9.99999e-01,9.99680e-01,4.61938e-02,9.99999e-01
6.752995740e-01,4.90779e-02,9.99999e-01,9.99826e-01,4.90864e-02,9.99999e-01
6.786760719e-01,5.20846e-02,9.99999e-01,9.99748e-01,5.20977e-02,9.99999e-01
6.820694522e-01,5.52050e-02,9.99999e-01,9.99571e-01,5.52286e-02,9.99999e-01
6.854797995e-01,5.84480e-02,9.99999e-01,9.99446e-01,5.84803e-02,9.99999e-01
6.889071985e-01,6.17701e-02,9.99999e-01,9.98651e-01,6.18535e-02,9.99999e-01
6.923517345e-01,6.39316e-02,9.99999e-01,9.78312e-01,6.53488e-02,9.99999e-01
6.958134932e-01,6.81932e-02,9.99999e-01,9.88783e-01,6.89667e-02,9.99999e-01
6.992925606e-01,7.19243e-02,9.99999e-01,9.89227e-01,7.27075e-02,9.99999e-01
7.027890234e-01,7.55578e-02,9.99999e-01,9.86763e-01,7.65713e-02,9.99999e-01
7.063029686e-01,7.96600e-02,9.99999e-01,9.88853e-01,8.05580e-02,9.99999e-01
7.098344834e-01,8.37615e-02,9.99999e-01,9.89301e-01,8.46673e-02,9.99999e-01
7.133836558e-01,8.76270e-02,9.99999e-01,9.85693e-01,8.88988e-02,9.99998e-01
7.169505741e-01,8.31267e-02,9.99999e-01,8.91421e-01,9.32519e-02,9.99998e-01
7.205353270e-01,9.24166e-02,9.99999e-01,9.45673e-01,9.77259e-02,9.99998e-01
7.241380036e-01,9.52535e-02,9.99999e-01,9.30940e-01,1.02320e-01,9.99997e-01
7.277586936e-01,1.00343e-01,9.99999e-01,9.37506e-01,1.07032e-01,9.99998e-01
7.313974871e-01,1.04453e-01,9.99999e-01,9.33763e-01,1.11863e-01,9.99998e-01
7.350544745e-01,1.12510e-01,9.99999e-01,9.63201e-01,1.16809e-01,9.99998e-01
7.387297469e-01,1.18552e-01,9.99999e-01,9.72778e-01,1.21870e-01,9.99999e-01
7.424233956e-01,1.25341e-01,9.99999e-01,9.86599e-01,1.27043e-01,9.99999e-01
7.461355126e-01,1.31249e-01,9.99999e-01,9.91852e-01,1.32327e-01,9.99999e-01
7.498661902e-01,1.37198e-01,9.99999e-01,9.96204e-01,1.37721e-01,9.99999e-01
7.536155211e-01,1.42954e-01,9.99999e-01,9.98133e-01,1.43221e-01,9.99999e-01
7.573835987e-01,1.48683e-01,9.99999e-01,9.99039e-01,1.48826e-01,9.99999e-01
7.611705167e-01,1.54440e-01,9.99999e-01,9.99402e-01,1.54532e-01,9.99999e-01
7.649763693e-01,1.60279e-01,9.99999e-01,9.99625e-01,1.60339e-01,9.99999e-01
7.688012511e-01,1.66199e-01,9.99999e-01,9.99738e-01,1.66242e-01,9.99999e-01
7.726452574e-01,1.72203e-01,9.99999e-01,9.99784e-01,1.72240e-01,9.99999e-01
7.765084837e-01,1.78274e-01,9.99999e-01,9.99693e-01,1.78329e-01,9.99999e-01
7.803910261e-01,1.71167e-01,9.28854e-01,9.98675e-01,1.84506e-01,9.99999e-01
7.842929812e-01,1.34827e-01,7.09709e-01,9.95383e-01,1.90770e-01,9.99999e-01
7.882144461e-01,1.35654e-01,6.94223e-01,9.90548e-01,1.97116e-01,9.99999e-01
7.921555184e-01,1.62433e-01,8.01975e-01,9.94820e-01,2.03541e-01,9.99999e-01
7.961162960e-01,1.79464e-01,8.62176e-01,9.90813e-01,2.10043e-01,9.99999e-01
8.000968774e-01,1.97754e-01,9.22615e-01,9.89419e-01,2.16618e-01,9.99999e-01
8.040973618e-01,2.11890e-01,9.59174e-01,9.89411e-01,2.23262e-01,9.99999e-01
8.081178486e-01,2.20259e-01,9.80997e-01,9.76234e-01,2.29974e-01,9.99998e-01
8.121584379e-01,2.13012e-01,9.94121e-01,9.04938e-01,2.36748e-01,9.99998e-01
8.162192301e-01,2.16225e-01,9.98698e-01,8.88796e-01,2.43582e-01,9.99997e-01
8.203003262e-01,2.36212e-01,9.99981e-01,9.43075e-01,2.50473e-01,9.99997e-01
8.244018279e-01,2.37481e-01,9.99999e-01,9.22556e-01,2.57417e-01,9.99997e-01
8.285238370e-01,2.46356e-01,9.99999e-01,9.31719e-01,2.64410e-01,9.99998e-01
8.326664562e-01,2.52771e-01,9.99999e-01,9.31188e-01,2.71450e-01,9.99998e-01
8.368297885e-01,2.64682e-01,9.99999e-01,9.50274e-01,2.78533e-01,9.99998e-01
8.410139374e-01,2.77126e-01,9.99999e-01,9.70144e-01,2.85654e-01,9.99999e-01
8.452190071e-01,2.88494e-01,9.99999e-01,9.85252e-01,2.92812e-01,9.99999e-01
8.494451021e-01,2.97424e-01,9.99999e-01,9.91403e-01,3.00003e-01,9.99999e-01
8.536923276e-01,3.05661e-01,9.99999e-01,9.94916e-01,3.07223e-01,9.99999e-01
8.579607893e-01,3.13482e-01,9.99999e-01,9.96862e-01,3.14469e-01,9.99999e-01
8.622505932e-01,3.21097e-01,9.99999e-01,9.98007e-01,3.21738e-01,9.99999e-01
8.665618462e-01,2.89770e-01,8.81714e-01,9.98765e-01,3.29026e-01,9.99999e-01
8.708946554e-01,1.43147e-01,4.26174e-01,9.98584e-01,3.36330e-01,9.99999e-01
8.752491287e-01,1.70010e-01,4.95604e-01,9.98108e-01,3.43648e-01,9.99999e-01
8.796253743e-01,2.36452e-01,6.75360e-01,9.97376e-01,3.50975e-01,9.99999e-01
8.840235012e-01,2.90741e-01,8.13779e-01,9.97005e-01,3.58309e-01,9.99999e-01
8.884436187e-01,3.33447e-01,9.21808e-01,9.89045e-01,3.65648e-01,9.99998e-01
8.928858368e-01,3.21913e-01,9.67481e-01,8.91480e-01,3.72987e-01,9.99997e-01
8.973502660e-01,3.08461e-01,9.92026e-01,8.17266e-01,3.80324e-01,9.99996e-01
9.018370173e-01,3.49563e-01,9.99119e-01,9.02477e-01,3.87656e-01,9.99996e-01
9.063462024e-01,3.53024e-01,9.77510e-01,9.12861e-01,3.94980e-01,9.99996e-01
9.108779334e-01,3.31851e-01,9.49183e-01,8.67815e-01,4.02295e-01,9.99995e-01
9.154323231e-01,3.44589e-01,9.87891e-01,8.51106e-01,4.09596e-01,9.99995e-01
9.200094847e-01,3.16032e-01,8.48313e-01,8.81718e-01,4.16881e-01,9.99994e-01
9.246095321e-01,2.73209e-01,7.75378e-01,8.23312e-01,4.24149e-01,9.99990e-01
9.292325798e-01,1.05585e-01,8.20389e-01,2.87484e-01,4.31395e-01,9.99980e-01
9.338787427e-01,7.59214e-02,8.25318e-01,2.02641e-01,4.38619e-01,9.99975e-01
9.385481364e-01,2.05442e-01,8.67724e-01,5.22712e-01,4.45818e-01,9.99974e-01
9.432408771e-01,1.73560e-01,9.16633e-01,4.14198e-01,4.52989e-01,9.99971e-01
9.479570815e-01,1.31922e-01,9.56249e-01,2.98467e-01,4.60130e-01,9.99975e-01
9.526968669e-01,1.81356e-01,9.78697e-01,3.95255e-01,4.67239e-01,9.99981e-01
9.574603512e-01,1.95354e-01,9.90834e-01,4.15153e-01,4.74315e-01,9.99985e-01
9.622476530e-01,2.33013e-01,9.97133e-01,4.85294e-01,4.81355e-01,9.99990e-01
9.670588912e-01,3.20712e-01,9.99141e-01,6.57221e-01,4.88357e-01,9.99993e-01
9.718941857e-01,3.79289e-01,9.99939e-01,7.65788e-01,4.95320e-01,9.99995e-01
9.767536566e-01,4.02340e-01,9.99999e-01,8.01091e-01,5.02241e-01,9.99997e-01
9.816374249e-01,4.31832e-01,9.99999e-01,8.48193e-01,5.09120e-01,9.99997e-01
9.865456120e-01,4.65439e-01,9.99999e-01,9.02094e-01,5.15954e-01,9.99998e-01
9.914783401e-01,4.90440e-01,9.99999e-01,9.38205e-01,5.22742e-01,9.99999e-01
9.964357318e-01,5.11409e-01,9.99999e-01,9.65863e-01,5.29483e-01,9.99999e-01
1.001417910e+00,5.25129e-01,9.99999e-01,9.79397e-01,5.36175e-01,9.99999e-01
1.006425000e+00,5.36408e-01,9.99999e-01,9.88191e-01,5.42817e-01,9.99999e-01
1.011457125e+00,5.45378e-01,9.99999e-01,9.92664e-01,5.49408e-01,9.99999e-01
1.016514411e+00,5.53173e-01,9.99999e-01,9.95011e-01,5.55946e-01,9.99999e-01
1.021596983e+00,5.60121e-01,9.99869e-01,9.96021e-01,5.62430e-01,9.99999e-01
1.026704968e+00,5.62043e-01,9.91082e-01,9.96895e-01,5.68860e-01,9.99999e-01
1.031838492e+00,5.27481e-01,9.18955e-01,9.97745e-01,5.75234e-01,9.99999e-01
1.036997685e+00,3.93540e-02,6.77398e-02,9.98658e-01,5.81552e-01,9.99999e-01
1.042182673e+00,6.44130e-03,1.09722e-02,9.98398e-01,5.87812e-01,9.99999e-01
1.047393587e+00,1.34791e-02,2.27323e-02,9.97878e-01,5.94014e-01,9.99999e-01
1.052630555e+00,9.78412e-06,1.63336e-05,9.97087e-01,6.00157e-01,9.99999e-01
1.057893707e+00,3.60060e-05,5.95529e-05,9.95138e-01,6.06240e-01,9.99999e-01
1.063183176e+00,4.35114e-04,7.14143e-04,9.92016e-01,6.12262e-01,9.99999e-01
1.068499092e+00,2.93122e-03,4.78715e-03,9.86675e-01,6.18224e-01,9.99999e-01
1.073841587e+00,2.02933e-02,3.29041e-02,9.84416e-01,6.24125e-01,9.99999e-01
1.079210795e+00,7.19574e-02,1.16130e-01,9.80097e-01,6.29964e-01,9.99998e-01
1.084606849e+00,1.84514e-01,2.98332e-01,9.70012e-01,6.35740e-01,9.99998e-01
1.090029883e+00,3.27140e-01,5.31403e-01,9.57129e-01,6.41453e-01,9.99997e-01
1.095480033e+00,4.21610e-01,7.31879e-01,8.87607e-01,6.47104e-01,9.99996e-01
1.100957433e+00,4.16851e-01,8.59898e-01,7.40038e-01,6.52691e-01,9.99994e-01
1.106462220e+00,2.94219e-01,9.39468e-01,4.73538e-01,6.58215e-01,9.99988e-01
1.111994531e+00,1.39488e-01,9.77103e-01,2.14389e-01,6.63675e-01,9.99976e-01
1.117554504e+00,5.83635e-02,9.94376e-01,8.75584e-02,6.69071e-01,9.99967e-01
1.123142276e+00,1.23548e-01,9.99631e-01,1.83217e-01,6.74403e-01,9.99961e-01
1.128757988e+00,2.14756e-01,9.99999e-01,3.15982e-01,6.79671e-01,9.99958e-01
1.134401778e+00,9.98105e-02,9.99999e-01,1.45742e-01,6.84875e-01,9.99953e-01
1.140073787e+00,3.39080e-01,9.99999e-01,4.91427e-01,6.90015e-01,9.99962e-01
1.145774156e+00,1.68454e-01,9.99999e-01,2.42355e-01,6.95091e-01,9.99968e-01
1.151503026e+00,1.46397e-01,9.99999e-01,2.09114e-01,7.00102e-01,9.99972e-01
1.157260541e+00,1.78790e-01,9.99999e-01,2.53590e-01,7.05050e-01,9.99979e-01
1.163046844e+00,2.55787e-01,9.99999e-01,3.60302e-01,7.09934e-01,9.99986e-01
1.168862078e+00,3.46805e-01,9.99999e-01,4.85211e-01,7.14754e-01,9.99992e-01
1.174706389e+00,4.60082e-01,9.99999e-01,6.39438e-01,7.19511e-01,9.99996e-01
1.180579921e+00,5.51057e-01,9.99999e-01,7.60914e-01,7.24205e-01,9.99997e-01
1.186482820e+00,6.24096e-01,9.99981e-01,8.56306e-01,7.28835e-01,9.99997e-01
1.192415234e+00,6.49658e-01,9.69136e-01,9.13280e-01,7.33403e-01,9.99997e-01
1.198377311e+00,3.67815e-01,5.31248e-01,9.26360e-01,7.37909e-01,9.99998e-01
1.204369197e+00,1.68051e-23,2.36045e-23,9.30328e-01,7.42352e-01,9.99998e-01
1.210391043e+00,1.72410e-93,2.39936e-93,9.33203e-01,7.46734e-01,9.99998e-01
1.216442998e+00,5.65573e-81,7.80983e-81,9.42944e-01,7.51054e-01,9.99998e-01
1.222525213e+00,9.24017e-80,1.25258e-79,9.55235e-01,7.55313e-01,9.99999e-01
1.228637839e+00,1.27640e-61,1.71706e-61,9.68685e-01,7.59511e-01,9.99999e-01
1.234781029e+00,1.49382e-38,1.97623e-38,9.76667e-01,7.63649e-01,9.99999e-01
1.240954934e+00,1.11771e-25,1.46943e-25,9.85176e-01,7.67727e-01,9.99999e-01
1.247159708e+00,1.10830e-12,1.44597e-12,9.88442e-01,7.71746e-01,9.99999e-01
1.253395507e+00,1.44209e-08,1.87269e-08,9.89725e-01,7.75706e-01,9.99999e-01
1.259662485e+00,3.08254e-05,3.98245e-05,9.90227e-01,7.79607e-01,9.99999e-01
1.265960797e+00,2.70438e-03,3.48809e-03,9.84446e-01,7.83450e-01,9.99999e-01
1.272290601e+00,5.83056e-02,7.56002e-02,9.75640e-01,7.87236e-01,9.99998e-01
1.278652054e+00,5.02187e-02,6.56539e-02,9.52206e-01,7.90965e-01,9.99998e-01
1.285045314e+00,1.39809e-04,1.82389e-04,9.15083e-01,7.94637e-01,9.99997e-01
1.291470541e+00,2.33218e-11,3.19092e-11,8.56823e-01,7.98253e-01,9.99996e-01
1.297927893e+00,1.60493e-04,2.19585e-04,8.03030e-01,8.01814e-01,9.99994e-01
1.304417533e+00,5.68546e-03,8.68107e-03,7.73029e-01,8.05320e-01,9.99989e-01
1.310939621e+00,1.40776e-03,2.05836e-03,7.44191e-01,8.08771e-01,9.99982e-01
1.317494319e+00,3.68323e-32,5.39826e-32,7.27023e-01,8.12169e-01,9.99971e-01
1.324081790e+00,2.50613e-21,3.81591e-21,6.23032e-01,8.15513e-01,9.99953e-01
1.330702199e+00,6.41003e-13,1.54883e-12,2.12380e-01,8.18805e-01,9.99922e-01
1.337355710e+00,5.12317e-13,1.30214e-11,1.28705e-02,8.22045e-01,9.99852e-01
1.344042489e+00,5.46628e-14,5.90564e-12,3.44161e-04,8.25233e-01,9.99684e-01
1.350762701e+00,2.84214e-21,8.12913e-13,5.13596e-10,8.28370e-01,9.99496e-01
1.357516515e+00,1.20182e-20,5.06102e-08,1.71854e-14,8.31457e-01,9.99376e-01
1.364304097e+00,1.07678e-13,7.75321e-06,3.42293e-09,8.34493e-01,9.99331e-01
1.371125618e+00,2.28164e-08,2.45126e-03,4.16218e-06,8.37481e-01,9.99326e-01
1.377981246e+00,1.46727e-07,5.80426e-03,1.36151e-05,8.40420e-01,9.99276e-01
1.384871152e+00,3.46810e-09,4.97437e-02,4.89090e-08,8.43311e-01,9.99296e-01
1.391795508e+00,3.54096e-10,6.28357e-02,3.41092e-09,8.46155e-01,9.99403e-01
1.398754485e+00,3.77372e-08,1.76702e-01,2.02864e-07,8.48951e-01,9.99487e-01
1.405748258e+00,6.32797e-08,2.82150e-01,2.08958e-07,8.51702e-01,9.99540e-01
1.412776999e+00,1.06139e-07,4.47640e-01,2.18545e-07,8.54406e-01,9.99630e-01
1.419840884e+00,2.21765e-07,4.06290e-01,4.53229e-07,8.57066e-01,9.99724e-01
1.426940089e+00,7.32576e-06,1.83270e-02,2.37138e-05,8.59681e-01,9.99828e-01
1.434074789e+00,0.00000e+00,0.00000e+00,1.88271e-04,8.62252e-01,9.99893e-01
1.441245163e+00,0.00000e+00,0.00000e+00,9.22128e-04,8.64780e-01,9.99916e-01
1.448451389e+00,0.00000e+00,0.00000e+00,8.02354e-03,8.67265e-01,9.99930e-01
1.455693646e+00,0.00000e+00,0.00000e+00,3.70263e-02,8.69708e-01,9.99942e-01
1.462972114e+00,0.00000e+00,0.00000e+00,5.24091e-02,8.72110e-01,9.99951e-01
1.470286975e+00,1.67738e-155,1.51196e-154,3.31416e-02,8.74470e-01,9.99956e-01
