#,Wave/freq,Total,CO2,H2O,Rayleigh,CIA
4.000000000e-01,6.05703e-05,9.99999e-01,9.99980e-01,6.05715e-05,9.99999e-01
4.020000000e-01,7.33938e-05,9.99999e-01,9.99987e-01,7.33946e-05,9.99999e-01
4.040100000e-01,8.85779e-05,9.99999e-01,9.99994e-01,8.85784e-05,9.99999e-01
4.060300500e-01,1.06507e-04,9.99999e-01,9.99998e-01,1.06507e-04,9.99999e-01
4.080602003e-01,1.27599e-04,9.99999e-01,9.99999e-01,1.27599e-04,9.99999e-01
4.101005013e-01,1.52323e-04,9.99999e-01,9.99999e-01,1.52323e-04,9.99999e-01
4.121510038e-01,1.81203e-04,9.99999e-01,9.99998e-01,1.81203e-04,9.99999e-01
4.142117588e-01,2.14820e-04,9.99999e-01,9.99994e-01,2.14821e-04,9.99999e-01
4.162828176e-01,2.53815e-04,9.99999e-01,9.99975e-01,2.53821e-04,9.99999e-01
4.183642317e-01,2.98910e-04,9.99999e-01,9.99985e-01,2.98914e-04,9.99999e-01
4.204560528e-01,3.50881e-04,9.99999e-01,9.99990e-01,3.50884e-04,9.99999e-01
4.225583331e-01,4.10585e-04,9.99999e-01,9.99996e-01,4.10587e-04,9.99999e-01
4.246711247e-01,4.78958e-04,9.99999e-01,9.99996e-01,4.78959e-04,9.99999e-01
4.267944804e-01,5.57018e-04,9.99999e-01,9.99995e-01,5.57020e-04,9.99999e-01
4.289284528e-01,6.45872e-04,9.99999e-01,9.99996e-01,6.45874e-04,9.99999e-01
4.310730950e-01,7.46715e-04,9.99999e-01,9.99998e-01,7.46716e-04,9.99999e-01
4.332284605e-01,8.60832e-04,9.99999e-01,9.99999e-01,8.60832e-04,9.99999e-01
4.353946028e-01,9.89604e-04,9.99999e-01,9.99999e-01,9.89604e-04,9.99999e-01
4.375715758e-01,1.13451e-03,9.99999e-01,9.99997e-01,1.13451e-03,9.99999e-01
4.397594337e-01,1.29710e-03,9.99999e-01,9.99978e-01,1.29713e-03,9.99999e-01
4.419582309e-01,1.47898e-03,9.99999e-01,9.99894e-01,1.47914e-03,9.99999e-01
4.441680220e-01,1.68218e-03,9.99999e-01,9.99917e-01,1.68232e-03,9.99999e-01
4.463888621e-01,1.90839e-03,9.99999e-01,9.99914e-01,1.90855e-03,9.99999e-01
4.486208064e-01,2.15970e-03,9.99999e-01,9.99946e-01,2.15981e-03,9.99999e-01
4.508639105e-01,2.43813e-03,9.99999e-01,9.99974e-01,2.43819e-03,9.99999e-01
4.531182300e-01,2.74584e-03,9.99999e-01,9.99989e-01,2.74587e-03,9.99999e-01
4.553838212e-01,3.08510e-03,9.99999e-01,9.99992e-01,3.08512e-03,9.99999e-01
4.576607403e-01,3.45831e-03,9.99999e-01,9.99996e-01,3.45832e-03,9.99999e-01
4.599490440e-01,3.86793e-03,9.99999e-01,9.99997e-01,3.86793e-03,9.99999e-01
4.622487892e-01,4.31650e-03,9.99999e-01,9.99999e-01,4.31651e-03,9.99999e-01
4.645600332e-01,4.80666e-03,9.99999e-01,9.99998e-01,4.80667e-03,9.99999e-01
4.668828333e-01,5.34100e-03,9.99999e-01,9.99974e-01,5.34114e-03,9.99999e-01
4.692172475e-01,5.92237e-03,9.99999e-01,9.99946e-01,5.92268e-03,9.99999e-01
4.715633337e-01,6.55393e-03,9.99999e-01,9.99964e-01,6.55416e-03,9.99999e-01
4.739211504e-01,7.23821e-03,9.99999e-01,9.99966e-01,7.23846e-03,9.99999e-01
4.762907561e-01,7.97840e-03,9.99999e-01,9.99982e-01,7.97854e-03,9.99999e-01
4.786722099e-01,8.77733e-03,9.99999e-01,9.99992e-01,8.77739e-03,9.99999e-01
4.810655710e-01,9.63803e-03,9.99999e-01,9.99997e-01,9.63805e-03,9.99999e-01
4.834708988e-01,1.05633e-02,9.99999e-01,9.99979e-01,1.05636e-02,9.99999e-01
4.858882533e-01,1.15566e-02,9.99999e-01,9.99961e-01,1.15570e-02,9.99999e-01
4.883176946e-01,1.26210e-02,9.99999e-01,9.99967e-01,1.26214e-02,9.99999e-01
4.907592831e-01,1.37595e-02,9.99999e-01,9.99970e-01,1.37599e-02,9.99999e-01
4.932130795e-01,1.49753e-02,9.99999e-01,9.99979e-01,1.49756e-02,9.99999e-01
4.956791449e-01,1.62712e-02,9.99999e-01,9.99988e-01,1.62714e-02,9.99999e-01
4.981575406e-01,1.76494e-02,9.99999e-01,9.99945e-01,1.76503e-02,9.99999e-01
5.006483283e-01,1.91127e-02,9.99999e-01,9.99860e-01,1.91154e-02,9.99999e-01
5.031515699e-01,2.06549e-02,9.99999e-01,9.99292e-01,2.06695e-02,9.99999e-01
5.056673278e-01,2.23072e-02,9.99999e-01,9.99626e-01,2.23155e-02,9.99999e-01
5.081956644e-01,2.40448e-02,9.99999e-01,9.99529e-01,2.40561e-02,9.99999e-01
5.107366428e-01,2.58859e-02,9.99999e-01,9.99681e-01,2.58941e-02,9.99999e-01
5.132903260e-01,2.78269e-02,9.99999e-01,9.99817e-01,2.78320e-02,9.99999e-01
5.158567776e-01,2.98700e-02,9.99999e-01,9.99922e-01,2.98723e-02,9.99999e-01
5.184360615e-01,3.20164e-02,9.99999e-01,9.99968e-01,3.20174e-02,9.99999e-01
5.210282418e-01,3.42691e-02,9.99999e-01,9.99988e-01,3.42695e-02,9.99999e-01
5.236333830e-01,3.66292e-02,9.99999e-01,9.99953e-01,3.66308e-02,9.99999e-01
5.262515499e-01,3.91023e-02,9.99999e-01,9.99970e-01,3.91034e-02,9.99999e-01
5.288828077e-01,4.16879e-02,9.99999e-01,9.99973e-01,4.16890e-02,9.99999e-01
5.315272217e-01,4.43884e-02,9.99999e-01,9.99976e-01,4.43894e-02,9.99999e-01
5.341848578e-01,4.72055e-02,9.99999e-01,9.99984e-01,4.72062e-02,9.99999e-01
5.368557821e-01,5.01381e-02,9.99999e-01,9.99945e-01,5.01408e-02,9.99999e-01
5.395400610e-01,5.31841e-02,9.99999e-01,9.99805e-01,5.31944e-02,9.99999e-01
5.422377613e-01,5.63539e-02,9.99999e-01,9.99749e-01,5.63680e-02,9.99999e-01
5.449489501e-01,5.96488e-02,9.99999e-01,9.99766e-01,5.96627e-02,9.99999e-01
5.476736949e-01,6.30662e-02,9.99999e-01,9.99793e-01,6.30792e-02,9.99999e-01
5.504120634e-01,6.66080e-02,9.99999e-01,9.99850e-01,6.66179e-02,9.99999e-01
5.531641237e-01,7.02741e-02,9.99999e-01,9.99924e-01,7.02794e-02,9.99999e-01
5.559299443e-01,7.40611e-02,9.99999e-01,9.99963e-01,7.40638e-02,9.99999e-01
5.587095940e-01,7.79694e-02,9.99999e-01,9.99976e-01,7.79712e-02,9.99999e-01
5.615031420e-01,8.19993e-02,9.99999e-01,9.99974e-01,8.20014e-02,9.99999e-01
5.643106577e-01,8.61516e-02,9.99999e-01,9.99970e-01,8.61541e-02,9.99999e-01
5.671322110e-01,9.03972e-02,9.99999e-01,9.99649e-01,9.04288e-02,9.99999e-01
5.699678720e-01,9.47897e-02,9.99999e-01,9.99627e-01,9.48249e-02,9.99999e-01
5.728177114e-01,9.93030e-02,9.99999e-01,9.99612e-01,9.93415e-02,9.99999e-01
5.756818000e-01,1.03941e-01,9.99999e-01,9.99644e-01,1.03978e-01,9.99999e-01
5.785602090e-01,1.08698e-01,9.99999e-01,9.99689e-01,1.08732e-01,9.99999e-01
5.814530100e-01,1.13568e-01,9.99999e-01,9.99688e-01,1.13604e-01,9.99999e-01
5.843602750e-01,1.18547e-01,9.99999e-01,9.99628e-01,1.18591e-01,9.99999e-01
5.872820764e-01,1.23296e-01,9.99999e-01,9.96804e-01,1.23692e-01,9.99999e-01
5.902184868e-01,1.28406e-01,9.99999e-01,9.96130e-01,1.28905e-01,9.99999e-01
5.931695792e-01,1.33861e-01,9.99999e-01,9.97264e-01,1.34228e-01,9.99999e-01
5.961354271e-01,1.39241e-01,9.99999e-01,9.97002e-01,1.39659e-01,9.99999e-01
5.991161043e-01,1.44879e-01,9.99999e-01,9.97813e-01,1.45197e-01,9.99999e-01
6.021116848e-01,1.50651e-01,9.99999e-01,9.98758e-01,1.50838e-01,9.99999e-01
6.051222432e-01,1.56482e-01,9.99999e-01,9.99371e-01,1.56580e-01,9.99999e-01
6.081478544e-01,1.62377e-01,9.99999e-01,9.99728e-01,1.62421e-01,9.99999e-01
6.111885937e-01,1.68339e-01,9.99999e-01,9.99884e-01,1.68358e-01,9.99999e-01
6.142445367e-01,1.74380e-01,9.99999e-01,9.99948e-01,1.74389e-01,9.99999e-01
6.173157594e-01,1.80505e-01,9.99999e-01,9.99971e-01,1.80510e-01,9.99999e-01
6.204023382e-01,1.86714e-01,9.99999e-01,9.99975e-01,1.86718e-01,9.99999e-01
6.235043498e-01,1.92991e-01,9.99999e-01,9.99894e-01,1.93011e-01,9.99999e-01
6.266218716e-01,1.99275e-01,9.99999e-01,9.99442e-01,1.99386e-01,9.99999e-01
6.297549810e-01,2.05796e-01,9.99999e-01,9.99795e-01,2.05838e-01,9.99999e-01
6.329037559e-01,2.12281e-01,9.99999e-01,9.99595e-01,2.12367e-01,9.99999e-01
6.360682746e-01,2.18891e-01,9.99999e-01,9.99655e-01,2.18967e-01,9.99999e-01
6.392486160e-01,2.25535e-01,9.99999e-01,9.99554e-01,2.25635e-01,9.99999e-01
6.424448591e-01,2.32231e-01,9.99999e-01,9.99403e-01,2.32369e-01,9.99999e-01
6.456570834e-01,2.38503e-01,9.99999e-01,9.97231e-01,2.39165e-01,9.99999e-01
6.488853688e-01,2.45522e-01,9.99999e-01,9.97973e-01,2.46020e-01,9.99999e-01
6.521297956e-01,2.52407e-01,9.99999e-01,9.97933e-01,2.52930e-01,9.99999e-01
6.553904446e-01,2.59358e-01,9.99999e-01,9.97943e-01,2.59892e-01,9.99999e-01
6.586673968e-01,2.66432e-01,9.99999e-01,9.98238e-01,2.66902e-01,9.99999e-01
6.619607338e-01,2.73688e-01,9.99999e-01,9.99018e-01,2.73957e-01,9.99999e-01
6.652705375e-01,2.80889e-01,9.99999e-01,9.99410e-01,2.81054e-01,9.99999e-01
6.685968902e-01,2.88110e-01,9.99999e-01,9.99725e-01,2.88189e-01,9.99999e-01
6.719398746e-01,2.95322e-01,9.99999e-01,9.99872e-01,2.95359e-01,9.99999e-01
6.752995740e-01,3.02540e-01,9.99999e-01,9.99930e-01,3.02561e-01,9.99999e-01
6.786760719e-01,3.09759e-01,9.99999e-01,9.99900e-01,3.09790e-01,9.99999e-01
6.820694522e-01,3.16991e-01,9.99999e-01,9.99829e-01,3.17045e-01,9.99999e-01
6.854797995e-01,3.24249e-01,9.99999e-01,9.99780e-01,3.24320e-01,9.99999e-01
6.889071985e-01,3.31439e-01,9.99999e-01,9.99468e-01,3.31615e-01,9.99999e-01
6.923517345e-01,3.35994e-01,9.99999e-01,9.91353e-01,3.38924e-01,9.99999e-01
6.958134932e-01,3.44687e-01,9.99999e-01,9.95499e-01,3.46245e-01,9.99999e-01
6.992925606e-01,3.52063e-01,9.99999e-01,9.95721e-01,3.53576e-01,9.99999e-01
7.027890234e-01,3.59006e-01,9.99999e-01,9.94720e-01,3.60912e-01,9.99999e-01
7.063029686e-01,3.66616e-01,9.99999e-01,9.95560e-01,3.68251e-01,9.99999e-01
7.098344834e-01,3.73989e-01,9.99999e-01,9.95740e-01,3.75589e-01,9.99999e-01
7.133836558e-01,3.80751e-01,9.99999e-01,9.94321e-01,3.82925e-01,9.99999e-01
7.169505741e-01,3.72741e-01,9.99999e-01,9.55121e-01,3.90255e-01,9.99998e-01
7.205353270e-01,3.88756e-01,9.99999e-01,9.77814e-01,3.97576e-01,9.99998e-01
7.241380036e-01,3.93505e-01,9.99999e-01,9.71892e-01,4.04886e-01,9.99998e-01
7.277586936e-01,4.01713e-01,9.99999e-01,9.74602e-01,4.12182e-01,9.99998e-01
7.313974871e-01,4.08148e-01,9.99999e-01,9.73029e-01,4.19461e-01,9.99999e-01
7.350544745e-01,4.20400e-01,9.99999e-01,9.85186e-01,4.26721e-01,9.99999e-01
7.387297469e-01,4.29223e-01,9.99999e-01,9.89082e-01,4.33960e-01,9.99999e-01
7.424233956e-01,4.38814e-01,9.99999e-01,9.94646e-01,4.41175e-01,9.99999e-01
7.461355126e-01,4.46909e-01,9.99999e-01,9.96753e-01,4.48364e-01,9.99999e-01
7.498661902e-01,4.54836e-01,9.99999e-01,9.98487e-01,4.55525e-01,9.99999e-01
7.536155211e-01,4.62312e-01,9.99999e-01,9.99257e-01,4.62655e-01,9.99999e-01
7.573835987e-01,4.69573e-01,9.99999e-01,9.99617e-01,4.69753e-01,9.99999e-01
7.611705167e-01,4.76703e-01,9.99999e-01,9.99762e-01,4.76816e-01,9.99999e-01
7.649763693e-01,4.83771e-01,9.99999e-01,9.99850e-01,4.83843e-01,9.99999e-01
7.688012511e-01,4.90780e-01,9.99999e-01,9.99895e-01,4.90831e-01,9.99999e-01
7.726452574e-01,4.97737e-01,9.99999e-01,9.99914e-01,4.97779e-01,9.99999e-01
7.765084837e-01,5.04625e-01,9.99999e-01,9.99878e-01,5.04686e-01,9.99999e-01
7.803910261e-01,4.95001e-01,9.68142e-01,9.99476e-01,5.11549e-01,9.99999e-01
7.842929812e-01,4.49010e-01,8.67714e-01,9.98172e-01,5.18367e-01,9.99999e-01
7.882144461e-01,4.49418e-01,8.58919e-01,9.96238e-01,5.25139e-01,9.99999e-01
7.921555184e-01,4.85823e-01,9.15284e-01,9.97936e-01,5.31862e-01,9.99999e-01
7.961162960e-01,5.05741e-01,9.42508e-01,9.96353e-01,5.38537e-01,9.99999e-01
8.000968774e-01,5.25727e-01,9.68417e-01,9.95789e-01,5.45161e-01,9.99999e-01
8.040973618e-01,5.40360e-01,9.83520e-01,9.95788e-01,5.51733e-01,9.99999e-01
8.081178486e-01,5.48765e-01,9.92400e-01,9.90521e-01,5.58252e-01,9.99999e-01
8.121584379e-01,5.41442e-01,9.97648e-01,9.61022e-01,5.64717e-01,9.99999e-01
8.162192301e-01,5.44516e-01,9.99480e-01,9.53891e-01,5.71127e-01,9.99998e-01
8.203003262e-01,5.64031e-01,9.99991e-01,9.76715e-01,5.77481e-01,9.99998e-01
8.244018279e-01,5.64862e-01,9.99999e-01,9.67597e-01,5.83779e-01,9.99998e-01
8.285238370e-01,5.73642e-01,9.99999e-01,9.72244e-01,5.90018e-01,9.99998e-01
8.326664562e-01,5.79472e-01,9.99999e-01,9.71943e-01,5.96199e-01,9.99999e-01
8.368297885e-01,5.90213e-01,9.99999e-01,9.79897e-01,6.02321e-01,9.99999e-01
8.410139374e-01,6.01091e-01,9.99999e-01,9.88013e-01,6.08383e-01,9.99999e-01
8.452190071e-01,6.10764e-01,9.99999e-01,9.94107e-01,6.14384e-01,9.99999e-01
8.494451021e-01,6.18202e-01,9.99999e-01,9.96578e-01,6.20324e-01,9.99999e-01
8.536923276e-01,6.24935e-01,9.99999e-01,9.97975e-01,6.26203e-01,9.99999e-01
8.579607893e-01,6.31231e-01,9.99999e-01,9.98752e-01,6.32019e-01,9.99999e-01
8.622505932e-01,6.37268e-01,9.99999e-01,9.99207e-01,6.37773e-01,9.99999e-01
8.665618462e-01,5.96988e-01,9.28207e-01,9.99509e-01,6.43465e-01,9.99999e-01
8.708946554e-01,4.52079e-01,6.96855e-01,9.99438e-01,6.49093e-01,9.99999e-01
8.752491287e-01,4.89253e-01,7.47887e-01,9.99249e-01,6.54658e-01,9.99999e-01
8.796253743e-01,5.62338e-01,8.52684e-01,9.98960e-01,6.60159e-01,9.99999e-01
8.840235012e-01,6.12120e-01,9.20734e-01,9.98812e-01,6.65596e-01,9.99999e-01
8.884436187e-01,6.46709e-01,9.67997e-01,9.95667e-01,6.70970e-01,9.99999e-01
8.928858368e-01,6.37599e-01,9.86914e-01,9.55204e-01,6.76279e-01,9.99998e-01
8.973502660e-01,6.26461e-01,9.96808e-01,9.22093e-01,6.81524e-01,9.99998e-01
9.018370173e-01,6.58636e-01,9.99647e-01,9.59453e-01,6.86705e-01,9.99998e-01
9.063462024e-01,6.61227e-01,9.90972e-01,9.64228e-01,6.91822e-01,9.99998e-01
9.108779334e-01,6.45000e-01,9.79429e-01,9.44774e-01,6.96875e-01,9.99998e-01
9.154323231e-01,6.54876e-01,9.95137e-01,9.37521e-01,7.01864e-01,9.99997e-01
9.200094847e-01,6.27277e-01,9.31183e-01,9.50720e-01,7.06789e-01,9.99997e-01
9.246095321e-01,5.94841e-01,9.03233e-01,9.23811e-01,7.11651e-01,9.99995e-01
9.292325798e-01,3.92675e-01,9.23253e-01,5.88900e-01,7.16449e-01,9.99992e-01
9.338787427e-01,3.39968e-01,9.25781e-01,5.05247e-01,7.21183e-01,9.99989e-01
9.385481364e-01,5.22390e-01,9.44924e-01,7.59286e-01,7.25854e-01,9.99989e-01
9.432408771e-01,4.81883e-01,9.65928e-01,6.81731e-01,7.30463e-01,9.99988e-01
9.479570815e-01,4.26313e-01,9.82373e-01,5.89878e-01,7.35008e-01,9.99989e-01
9.526968669e-01,4.93797e-01,9.91464e-01,6.73018e-01,7.39492e-01,9.99992e-01
9.574603512e-01,5.14948e-01,9.96342e-01,6.94601e-01,7.43913e-01,9.99994e-01
9.622476530e-01,5.55638e-01,9.98857e-01,7.43364e-01,7.48273e-01,9.99995e-01
9.670588912e-01,6.34119e-01,9.99657e-01,8.42879e-01,7.52571e-01,9.99997e-01
9.718941857e-01,6.80105e-01,9.99975e-01,8.98670e-01,7.56809e-01,9.99998e-01
9.767536566e-01,6.96407e-01,9.99999e-01,9.15138e-01,7.60985e-01,9.99998e-01
9.816374249e-01,7.16453e-01,9.99999e-01,9.36414e-01,7.65102e-01,9.99998e-01
9.865456120e-01,7.38235e-01,9.99999e-01,9.59795e-01,7.69159e-01,9.99999e-01
9.914783401e-01,7.53798e-01,9.99999e-01,9.74960e-01,7.73157e-01,9.99999e-01
9.964357318e-01,7.66441e-01,9.99999e-01,9.86288e-01,7.77096e-01,9.99999e-01
1.001417910e+00,7.74543e-01,9.99999e-01,9.91761e-01,7.80977e-01,9.99999e-01
1.006425000e+00,7.81108e-01,9.99999e-01,9.95296e-01,7.84800e-01,9.99999e-01
1.011457125e+00,7.86262e-01,9.99999e-01,9.97078e-01,7.88565e-01,9.99999e-01
1.016514411e+00,7.90702e-01,9.99999e-01,9.98015e-01,7.92274e-01,9.99999e-01
1.021596983e+00,7.94630e-01,9.99951e-01,9.98418e-01,7.95926e-01,9.99999e-01
1.026704968e+00,7.95722e-01,9.96473e-01,9.98766e-01,7.99522e-01,9.99999e-01
1.031838492e+00,7.68199e-01,9.57417e-01,9.99103e-01,8.03064e-01,9.99999e-01
1.036997685e+00,1.30501e-01,1.61870e-01,9.99467e-01,8.06550e-01,9.99999e-01
1.042182673e+00,1.09691e-01,1.35500e-01,9.99364e-01,8.09983e-01,9.99999e-01
1.047393587e+00,1.26118e-01,1.55174e-01,9.99157e-01,8.13361e-01,9.99999e-01
1.052630555e+00,4.25857e-03,5.21890e-03,9.98844e-01,8.16687e-01,9.99999e-01
1.057893707e+00,1.05372e-02,1.28678e-02,9.98071e-01,8.19960e-01,9.99999e-01
1.063183176e+00,3.32797e-02,4.05212e-02,9.96827e-01,8.23181e-01,9.99999e-01
1.068499092e+00,8.92916e-02,1.08543e-01,9.94692e-01,8.26351e-01,9.99999e-01
1.073841587e+00,2.02860e-01,2.45875e-01,9.93789e-01,8.29470e-01,9.99999e-01
1.079210795e+00,3.40015e-01,4.11405e-01,9.92048e-01,8.32539e-01,9.99999e-01
1.084606849e+00,5.06796e-01,6.13590e-01,9.87984e-01,8.35559e-01,9.99999e-01
1.090029883e+00,6.39835e-01,7.76072e-01,9.82774e-01,8.38529e-01,9.99998e-01
1.095480033e+00,7.08657e-01,8.82599e-01,9.53753e-01,8.41451e-01,9.99998e-01
1.100957433e+00,7.05285e-01,9.41620e-01,8.86595e-01,8.44325e-01,9.99997e-01
1.106462220e+00,6.09228e-01,9.75436e-01,7.36642e-01,8.47152e-01,9.99995e-01
1.111994531e+00,4.43659e-01,9.90825e-01,5.26503e-01,8.49932e-01,9.99990e-01
1.117554504e+00,3.02076e-01,9.97753e-01,3.54933e-01,8.52666e-01,9.99986e-01
1.123142276e+00,4.00954e-01,9.99852e-01,4.68798e-01,8.55355e-01,9.99984e-01
1.128757988e+00,5.26872e-01,9.99999e-01,6.14080e-01,8.57999e-01,9.99983e-01
1.134401778e+00,3.04210e-01,9.99999e-01,3.53493e-01,8.60598e-01,9.99981e-01
1.140073787e+00,6.44688e-01,9.99999e-01,7.46909e-01,8.63154e-01,9.99984e-01
1.145774156e+00,4.72037e-01,9.99999e-01,5.45294e-01,8.65667e-01,9.99987e-01
1.151503026e+00,4.42113e-01,9.99999e-01,5.09272e-01,8.68137e-01,9.99988e-01
1.157260541e+00,4.94577e-01,9.99999e-01,5.68114e-01,8.70565e-01,9.99991e-01
1.163046844e+00,5.74611e-01,9.99999e-01,6.58242e-01,8.72952e-01,9.99994e-01
1.168862078e+00,6.54395e-01,9.99999e-01,7.47627e-01,8.75298e-01,9.99996e-01
1.174706389e+00,7.33404e-01,9.99999e-01,8.35690e-01,8.77603e-01,9.99998e-01
1.180579921e+00,7.88760e-01,9.99999e-01,8.96451e-01,8.79870e-01,9.99998e-01
1.186482820e+00,8.29259e-01,9.99993e-01,9.40106e-01,8.82097e-01,9.99998e-01
1.192415234e+00,8.42395e-01,9.87450e-01,9.64606e-01,8.84285e-01,9.99998e-01
1.198377311e+00,4.86644e-01,5.63108e-01,9.70084e-01,8.86436e-01,9.99998e-01
1.204369197e+00,1.11747e-10,1.27867e-10,9.71669e-01,8.88549e-01,9.99999e-01
1.210391043e+00,1.95055e-38,2.22374e-38,9.72892e-01,8.90625e-01,9.99999e-01
1.216442998e+00,1.79454e-33,2.03958e-33,9.76895e-01,8.92665e-01,9.99999e-01
1.222525213e+00,5.44078e-33,6.13854e-33,9.81969e-01,8.94670e-01,9.99999e-01
1.228637839e+00,1.50331e-25,1.69137e-25,9.87446e-01,8.96639e-01,9.99999e-01
1.234781029e+00,1.19997e-16,1.34083e-16,9.90664e-01,8.98573e-01,9.99999e-01
1.240954934e+00,2.96103e-11,3.30098e-11,9.94087e-01,9.00473e-01,9.99999e-01
1.247159708e+00,2.44900e-06,2.72167e-06,9.95394e-01,9.02340e-01,9.99999e-01
1.253395507e+00,4.48782e-04,4.97882e-04,9.95909e-01,9.04173e-01,9.99999e-01
1.259662485e+00,1.15475e-02,1.27861e-02,9.96114e-01,9.05974e-01,9.99999e-01
1.265960797e+00,7.23634e-02,8.01194e-02,9.93796e-01,9.07743e-01,9.99999e-01
1.272290601e+00,3.10890e-01,3.44915e-01,9.90269e-01,9.09480e-01,9.99999e-01
1.278652054e+00,2.64451e-01,2.94787e-01,9.80736e-01,9.11186e-01,9.99999e-01
1.285045314e+00,5.90266e-03,6.56632e-03,9.65310e-01,9.12862e-01,9.99998e-01
1.291470541e+00,3.23784e-05,3.68590e-05,9.40323e-01,9.14507e-01,9.99998e-01
1.297927893e+00,5.41086e-03,6.14984e-03,9.22874e-01,9.16123e-01,9.99997e-01
1.304417533e+00,1.20570e-01,1.44191e-01,9.01898e-01,9.17709e-01,9.99995e-01
1.310939621e+00,3.01242e-02,3.51807e-02,8.88409e-01,9.19267e-01,9.99992e-01
1.317494319e+00,1.02767e-13,1.20313e-13,8.79659e-01,9.20797e-01,9.99988e-01
1.324081790e+00,1.43435e-09,1.70507e-09,8.25378e-01,9.22299e-01,9.99981e-01
1.330702199e+00,8.40993e-06,1.33765e-05,4.70127e-01,9.23774e-01,9.99969e-01
1.337355710e+00,4.24224e-06,1.61105e-05,1.43991e-01,9.25222e-01,9.99941e-01
1.344042489e+00,6.73245e-07,4.80616e-06,9.37734e-03,9.26643e-01,9.99874e-01
1.350762701e+00,1.76543e-09,8.45197e-06,5.89359e-05,9.28039e-01,9.99799e-01
1.357516515e+00,2.54685e-09,5.51030e-04,1.19028e-06,9.29409e-01,9.99752e-01
1.364304097e+00,2.13369e-06,7.68316e-03,1.49885e-04,9.30754e-01,9.99734e-01
1.371125618e+00,3.11296e-04,7.87563e-02,2.65839e-03,9.32074e-01,9.99732e-01
1.377981246e+00,9.41693e-04,1.24868e-01,6.35961e-03,9.33370e-01,9.99712e-01
1.384871152e+00,6.72951e-05,2.98000e-01,1.94228e-04,9.34642e-01,9.99720e-01
1.391795508e+00,7.66990e-05,3.26740e-01,2.02788e-04,9.35891e-01,9.99763e-01
1.398754485e+00,4.24628e-04,5.01463e-01,8.46139e-04,9.37116e-01,9.99796e-01
1.405748258e+00,4.72025e-04,6.01557e-01,7.65126e-04,9.38319e-01,9.99817e-01
1.412776999e+00,5.73103e-04,7.25421e-01,7.87149e-04,9.39500e-01,9.99853e-01
1.419840884e+00,9.78257e-04,6.53232e-01,1.30694e-03,9.40659e-01,9.99890e-01
1.426940089e+00,1.62251e-03,6.27576e-02,5.42279e-03,9.41796e-01,9.99931e-01
1.434074789e+00,0.00000e+00,0.00000e+00,1.86904e-02,9.42912e-01,9.99957e-01
1.441245163e+00,0.00000e+00,0.00000e+00,4.58572e-02,9.44008e-01,9.99966e-01
1.448451389e+00,0.00000e+00,0.00000e+00,1.12564e-01,9.45083e-01,9.99972e-01
1.455693646e+00,6.47890e-308,1.46239e-307,2.33930e-01,9.46138e-01,9.99977e-01
1.462972114e+00,1.95709e-149,4.41260e-149,2.85553e-01,9.47173e-01,9.99980e-01
1.470286975e+00,4.93706e-63,1.18088e-62,2.32000e-01,9.48189e-01,9.99982e-01
