#,Wave/freq,Total,CO2,H2O,Rayleigh,CIA
4.000000000e-01,2.00955e-02,9.99999e-01,9.99991e-01,2.00957e-02,9.99999e-01
4.020000000e-01,2.17096e-02,9.99999e-01,9.99994e-01,2.17097e-02,9.99999e-01
4.040100000e-01,2.34158e-02,9.99999e-01,9.99997e-01,2.34158e-02,9.99999e-01
4.060300500e-01,2.52183e-02,9.99999e-01,9.99999e-01,2.52183e-02,9.99999e-01
4.080602003e-01,2.71198e-02,9.99999e-01,9.99999e-01,2.71198e-02,9.99999e-01
4.101005013e-01,2.91228e-02,9.99999e-01,9.99999e-01,2.91228e-02,9.99999e-01
4.121510038e-01,3.12297e-02,9.99999e-01,9.99999e-01,3.12297e-02,9.99999e-01
4.142117588e-01,3.34428e-02,9.99999e-01,9.99997e-01,3.34429e-02,9.99999e-01
4.162828176e-01,3.57642e-02,9.99999e-01,9.99990e-01,3.57645e-02,9.99999e-01
4.183642317e-01,3.81964e-02,9.99999e-01,9.99993e-01,3.81967e-02,9.99999e-01
4.204560528e-01,4.07411e-02,9.99999e-01,9.99996e-01,4.07412e-02,9.99999e-01
4.225583331e-01,4.33999e-02,9.99999e-01,9.99998e-01,4.33999e-02,9.99999e-01
4.246711247e-01,4.61744e-02,9.99999e-01,9.99998e-01,4.61745e-02,9.99999e-01
4.267944804e-01,4.90662e-02,9.99999e-01,9.99997e-01,4.90663e-02,9.99999e-01
4.289284528e-01,5.20767e-02,9.99999e-01,9.99998e-01,5.20767e-02,9.99999e-01
4.310730950e-01,5.52069e-02,9.99999e-01,9.99999e-01,5.52069e-02,9.99999e-01
4.332284605e-01,5.84577e-02,9.99999e-01,9.99999e-01,5.84577e-02,9.99999e-01
4.353946028e-01,6.18301e-02,9.99999e-01,9.99999e-01,6.18301e-02,9.99999e-01
4.375715758e-01,6.53245e-02,9.99999e-01,9.99998e-01,6.53246e-02,9.99999e-01
4.397594337e-01,6.89411e-02,9.99999e-01,9.99991e-01,6.89417e-02,9.99999e-01
4.419582309e-01,7.26785e-02,9.99999e-01,9.99956e-01,7.26816e-02,9.99999e-01
4.441680220e-01,7.65421e-02,9.99999e-01,9.99966e-01,7.65446e-02,9.99999e-01
4.463888621e-01,8.05276e-02,9.99999e-01,9.99965e-01,8.05304e-02,9.99999e-01
4.486208064e-01,8.46371e-02,9.99999e-01,9.99978e-01,8.46389e-02,9.99999e-01
4.508639105e-01,8.88687e-02,9.99999e-01,9.99989e-01,8.88695e-02,9.99999e-01
4.531182300e-01,9.32215e-02,9.99999e-01,9.99995e-01,9.32218e-02,9.99999e-01
4.553838212e-01,9.76947e-02,9.99999e-01,9.99996e-01,9.76950e-02,9.99999e-01
4.576607403e-01,1.02288e-01,9.99999e-01,9.99998e-01,1.02288e-01,9.99999e-01
4.599490440e-01,1.07000e-01,9.99999e-01,9.99998e-01,1.07000e-01,9.99999e-01
4.622487892e-01,1.11829e-01,9.99999e-01,9.99999e-01,1.11829e-01,9.99999e-01
4.645600332e-01,1.16775e-01,9.99999e-01,9.99998e-01,1.16775e-01,9.99999e-01
4.668828333e-01,1.21833e-01,9.99999e-01,9.99989e-01,1.21835e-01,9.99999e-01
4.692172475e-01,1.27005e-01,9.99999e-01,9.99978e-01,1.27007e-01,9.99999e-01
4.715633337e-01,1.32289e-01,9.99999e-01,9.99985e-01,1.32291e-01,9.99999e-01
4.739211504e-01,1.37682e-01,9.99999e-01,9.99986e-01,1.37684e-01,9.99999e-01
4.762907561e-01,1.43182e-01,9.99999e-01,9.99992e-01,1.43183e-01,9.99999e-01
4.786722099e-01,1.48787e-01,9.99999e-01,9.99996e-01,1.48787e-01,9.99999e-01
4.810655710e-01,1.54493e-01,9.99999e-01,9.99998e-01,1.54493e-01,9.99999e-01
4.834708988e-01,1.60297e-01,9.99999e-01,9.99991e-01,1.60299e-01,9.99999e-01
4.858882533e-01,1.66199e-01,9.99999e-01,9.99984e-01,1.66201e-01,9.99999e-01
4.883176946e-01,1.72196e-01,9.99999e-01,9.99986e-01,1.72198e-01,9.99999e-01
4.907592831e-01,1.78285e-01,9.99999e-01,9.99988e-01,1.78287e-01,9.99999e-01
4.932130795e-01,1.84462e-01,9.99999e-01,9.99991e-01,1.84464e-01,9.99999e-01
4.956791449e-01,1.90726e-01,9.99999e-01,9.99995e-01,1.90727e-01,9.99999e-01
4.981575406e-01,1.97068e-01,9.99999e-01,9.99977e-01,1.97072e-01,9.99999e-01
5.006483283e-01,2.03486e-01,9.99999e-01,9.99942e-01,2.03497e-01,9.99999e-01
5.031515699e-01,2.09938e-01,9.99999e-01,9.99714e-01,2.09998e-01,9.99999e-01
5.056673278e-01,2.16540e-01,9.99999e-01,9.99849e-01,2.16573e-01,9.99999e-01
5.081956644e-01,2.23175e-01,9.99999e-01,9.99810e-01,2.23217e-01,9.99999e-01
5.107366428e-01,2.29898e-01,9.99999e-01,9.99871e-01,2.29928e-01,9.99999e-01
5.132903260e-01,2.36685e-01,9.99999e-01,9.99926e-01,2.36702e-01,9.99999e-01
5.158567776e-01,2.43528e-01,9.99999e-01,9.99968e-01,2.43536e-01,9.99999e-01
5.184360615e-01,2.50423e-01,9.99999e-01,9.99987e-01,2.50426e-01,9.99999e-01
5.210282418e-01,2.57368e-01,9.99999e-01,9.99994e-01,2.57369e-01,9.99999e-01
5.236333830e-01,2.64358e-01,9.99999e-01,9.99980e-01,2.64363e-01,9.99999e-01
5.262515499e-01,2.71399e-01,9.99999e-01,9.99987e-01,2.71402e-01,9.99999e-01
5.288828077e-01,2.78481e-01,9.99999e-01,9.99988e-01,2.78484e-01,9.99999e-01
5.315272217e-01,2.85603e-01,9.99999e-01,9.99990e-01,2.85606e-01,9.99999e-01
5.341848578e-01,2.92762e-01,9.99999e-01,9.99993e-01,2.92764e-01,9.99999e-01
5.368557821e-01,2.99947e-01,9.99999e-01,9.99977e-01,2.99954e-01,9.99999e-01
5.395400610e-01,3.07150e-01,9.99999e-01,9.99920e-01,3.07174e-01,9.99999e-01
5.422377613e-01,3.14388e-01,9.99999e-01,9.99899e-01,3.14420e-01,9.99999e-01
5.449489501e-01,3.21658e-01,9.99999e-01,9.99905e-01,3.21688e-01,9.99999e-01
5.476736949e-01,3.28949e-01,9.99999e-01,9.99916e-01,3.28976e-01,9.99999e-01
5.504120634e-01,3.36260e-01,9.99999e-01,9.99939e-01,3.36280e-01,9.99999e-01
5.531641237e-01,3.43587e-01,9.99999e-01,9.99969e-01,3.43598e-01,9.99999e-01
5.559299443e-01,3.50920e-01,9.99999e-01,9.99984e-01,3.50925e-01,9.99999e-01
5.587095940e-01,3.58256e-01,9.99999e-01,9.99990e-01,3.58259e-01,9.99999e-01
5.615031420e-01,3.65594e-01,9.99999e-01,9.99989e-01,3.65598e-01,9.99999e-01
5.643106577e-01,3.72932e-01,9.99999e-01,9.99987e-01,3.72937e-01,9.99999e-01
5.671322110e-01,3.80219e-01,9.99999e-01,9.99856e-01,3.80274e-01,9.99999e-01
5.699678720e-01,3.87548e-01,9.99999e-01,9.99851e-01,3.87606e-01,9.99999e-01
5.728177114e-01,3.94869e-01,9.99999e-01,9.99843e-01,3.94931e-01,9.99999e-01
5.756818000e-01,4.02187e-01,9.99999e-01,9.99856e-01,4.02245e-01,9.99999e-01
5.785602090e-01,4.09495e-01,9.99999e-01,9.99875e-01,4.09546e-01,9.99999e-01
5.814530100e-01,4.16779e-01,9.99999e-01,9.99874e-01,4.16832e-01,9.99999e-01
5.843602750e-01,4.24035e-01,9.99999e-01,9.99849e-01,4.24099e-01,9.99999e-01
5.872820764e-01,4.30787e-01,9.99999e-01,9.98704e-01,4.31346e-01,9.99999e-01
5.902184868e-01,4.37888e-01,9.99999e-01,9.98443e-01,4.38570e-01,9.99999e-01
5.931695792e-01,4.45277e-01,9.99999e-01,9.98897e-01,4.45769e-01,9.99999e-01
5.961354271e-01,4.52394e-01,9.99999e-01,9.98793e-01,4.52940e-01,9.99999e-01
5.991161043e-01,4.59677e-01,9.99999e-01,9.99121e-01,4.60081e-01,9.99999e-01
6.021116848e-01,4.66958e-01,9.99999e-01,9.99501e-01,4.67191e-01,9.99999e-01
6.051222432e-01,4.74147e-01,9.99999e-01,9.99747e-01,4.74267e-01,9.99999e-01
6.081478544e-01,4.81255e-01,9.99999e-01,9.99890e-01,4.81307e-01,9.99999e-01
6.111885937e-01,4.88287e-01,9.99999e-01,9.99953e-01,4.88309e-01,9.99999e-01
6.142445367e-01,4.95262e-01,9.99999e-01,9.99978e-01,4.95272e-01,9.99999e-01
6.173157594e-01,5.02188e-01,9.99999e-01,9.99988e-01,5.02194e-01,9.99999e-01
6.204023382e-01,5.09068e-01,9.99999e-01,9.99989e-01,5.09073e-01,9.99999e-01
6.235043498e-01,5.15885e-01,9.99999e-01,9.99956e-01,5.15908e-01,9.99999e-01
6.266218716e-01,5.22579e-01,9.99999e-01,9.99775e-01,5.22696e-01,9.99999e-01
6.297549810e-01,5.29394e-01,9.99999e-01,9.99917e-01,5.29437e-01,9.99999e-01
6.329037559e-01,5.36043e-01,9.99999e-01,9.99837e-01,5.36130e-01,9.99999e-01
6.360682746e-01,5.42697e-01,9.99999e-01,9.99860e-01,5.42772e-01,9.99999e-01
6.392486160e-01,5.49265e-01,9.99999e-01,9.99820e-01,5.49363e-01,9.99999e-01
6.424448591e-01,5.55767e-01,9.99999e-01,9.99757e-01,5.55902e-01,9.99999e-01
6.456570834e-01,5.61755e-01,9.99999e-01,9.98876e-01,5.62386e-01,9.99999e-01
6.488853688e-01,5.68353e-01,9.99999e-01,9.99185e-01,5.68817e-01,9.99999e-01
6.521297956e-01,5.74714e-01,9.99999e-01,9.99169e-01,5.75191e-01,9.99999e-01
6.553904446e-01,5.81027e-01,9.99999e-01,9.99170e-01,5.81509e-01,9.99999e-01
6.586673968e-01,5.87354e-01,9.99999e-01,9.99292e-01,5.87769e-01,9.99999e-01
6.619607338e-01,5.93738e-01,9.99999e-01,9.99605e-01,5.93972e-01,9.99999e-01
6.652705375e-01,5.99973e-01,9.99999e-01,9.99763e-01,6.00115e-01,9.99999e-01
6.685968902e-01,6.06138e-01,9.99999e-01,9.99899e-01,6.06198e-01,9.99999e-01
6.719398746e-01,6.12191e-01,9.99999e-01,9.99948e-01,6.12222e-01,9.99999e-01
6.752995740e-01,6.18167e-01,9.99999e-01,9.99972e-01,6.18184e-01,9.99999e-01
6.786760719e-01,6.24060e-01,9.99999e-01,9.99959e-01,6.24085e-01,9.99999e-01
6.820694522e-01,6.29881e-01,9.99999e-01,9.99931e-01,6.29924e-01,9.99999e-01
6.854797995e-01,6.35645e-01,9.99999e-01,9.99911e-01,6.35701e-01,9.99999e-01
6.889071985e-01,6.41276e-01,9.99999e-01,9.99782e-01,6.41415e-01,9.99999e-01
6.923517345e-01,6.44795e-01,9.99999e-01,9.96489e-01,6.47066e-01,9.99999e-01
6.958134932e-01,6.51483e-01,9.99999e-01,9.98206e-01,6.52653e-01,9.99999e-01
6.992925606e-01,6.57037e-01,9.99999e-01,9.98266e-01,6.58178e-01,9.99999e-01
7.027890234e-01,6.62228e-01,9.99999e-01,9.97874e-01,6.63638e-01,9.99999e-01
7.063029686e-01,6.67839e-01,9.99999e-01,9.98211e-01,6.69035e-01,9.99999e-01
7.098344834e-01,6.73211e-01,9.99999e-01,9.98284e-01,6.74367e-01,9.99999e-01
7.133836558e-01,6.78064e-01,9.99999e-01,9.97687e-01,6.79636e-01,9.99999e-01
7.169505741e-01,6.72200e-01,9.99999e-01,9.81543e-01,6.84840e-01,9.99999e-01
7.205353270e-01,6.83830e-01,9.99999e-01,9.91086e-01,6.89980e-01,9.99999e-01
7.241380036e-01,6.87092e-01,9.99999e-01,9.88541e-01,6.95056e-01,9.99999e-01
7.277586936e-01,6.92831e-01,9.99999e-01,9.89661e-01,7.00068e-01,9.99999e-01
7.313974871e-01,6.97322e-01,9.99999e-01,9.89085e-01,7.05016e-01,9.99999e-01
7.350544745e-01,7.05657e-01,9.99999e-01,9.94021e-01,7.09901e-01,9.99999e-01
7.387297469e-01,7.11580e-01,9.99999e-01,9.95603e-01,7.14722e-01,9.99999e-01
7.424233956e-01,7.17934e-01,9.99999e-01,9.97852e-01,7.19479e-01,9.99999e-01
7.461355126e-01,7.23229e-01,9.99999e-01,9.98696e-01,7.24173e-01,9.99999e-01
7.498661902e-01,7.28363e-01,9.99999e-01,9.99394e-01,7.28804e-01,9.99999e-01
7.536155211e-01,7.33154e-01,9.99999e-01,9.99701e-01,7.33372e-01,9.99999e-01
7.573835987e-01,7.37765e-01,9.99999e-01,9.99846e-01,7.37878e-01,9.99999e-01
7.611705167e-01,7.42251e-01,9.99999e-01,9.99904e-01,7.42322e-01,9.99999e-01
7.649763693e-01,7.46659e-01,9.99999e-01,9.99939e-01,7.46704e-01,9.99999e-01
7.688012511e-01,7.50993e-01,9.99999e-01,9.99957e-01,7.51024e-01,9.99999e-01
7.726452574e-01,7.55258e-01,9.99999e-01,9.99965e-01,7.55284e-01,9.99999e-01
7.765084837e-01,7.59445e-01,9.99999e-01,9.99950e-01,7.59483e-01,9.99999e-01
7.803910261e-01,7.52670e-01,9.85864e-01,9.99787e-01,7.63621e-01,9.99999e-01
7.842929812e-01,7.24006e-01,9.43770e-01,9.99258e-01,7.67700e-01,9.99999e-01
7.882144461e-01,7.23788e-01,9.39290e-01,9.98484e-01,7.71719e-01,9.99999e-01
7.921555184e-01,7.47749e-01,9.64783e-01,9.99172e-01,7.75679e-01,9.99999e-01
7.961162960e-01,7.60169e-01,9.76536e-01,9.98522e-01,7.79581e-01,9.99999e-01
8.000968774e-01,7.72084e-01,9.87196e-01,9.98303e-01,7.83424e-01,9.99999e-01
8.040973618e-01,7.80668e-01,9.93375e-01,9.98300e-01,7.87210e-01,9.99999e-01
8.081178486e-01,7.85486e-01,9.96944e-01,9.96146e-01,7.90940e-01,9.99999e-01
8.121584379e-01,7.81179e-01,9.99063e-01,9.84011e-01,7.94612e-01,9.99999e-01
8.162192301e-01,7.83052e-01,9.99792e-01,9.81188e-01,7.98229e-01,9.99999e-01
8.203003262e-01,7.94072e-01,9.99996e-01,9.90375e-01,8.01790e-01,9.99999e-01
8.244018279e-01,7.94690e-01,9.99999e-01,9.86829e-01,8.05296e-01,9.99999e-01
8.285238370e-01,7.99606e-01,9.99999e-01,9.88695e-01,8.08748e-01,9.99999e-01
8.326664562e-01,8.02893e-01,9.99999e-01,9.88605e-01,8.12146e-01,9.99999e-01
8.368297885e-01,8.08868e-01,9.99999e-01,9.91878e-01,8.15491e-01,9.99999e-01
8.410139374e-01,8.14831e-01,9.99999e-01,9.95172e-01,8.18783e-01,9.99999e-01
8.452190071e-01,8.20079e-01,9.99999e-01,9.97634e-01,8.22023e-01,9.99999e-01
8.494451021e-01,8.24075e-01,9.99999e-01,9.98623e-01,8.25211e-01,9.99999e-01
8.536923276e-01,8.27676e-01,9.99999e-01,9.99187e-01,8.28349e-01,9.99999e-01
8.579607893e-01,8.31019e-01,9.99999e-01,9.99498e-01,8.31436e-01,9.99999e-01
8.622505932e-01,8.34208e-01,9.99999e-01,9.99681e-01,8.34473e-01,9.99999e-01
8.665618462e-01,8.04683e-01,9.61045e-01,9.99802e-01,8.37461e-01,9.99999e-01
8.708946554e-01,7.22820e-01,8.60281e-01,9.99773e-01,8.40400e-01,9.99999e-01
8.752491287e-01,7.48535e-01,8.87899e-01,9.99697e-01,8.43292e-01,9.99999e-01
8.796253743e-01,7.93036e-01,9.37633e-01,9.99579e-01,8.46135e-01,9.99999e-01
8.840235012e-01,8.20831e-01,9.67358e-01,9.99520e-01,8.48932e-01,9.99999e-01
8.884436187e-01,8.39196e-01,9.87086e-01,9.98221e-01,8.51683e-01,9.99999e-01
8.928858368e-01,8.34219e-01,9.94743e-01,9.81535e-01,8.54388e-01,9.99999e-01
8.973502660e-01,8.28371e-01,9.98727e-01,9.67760e-01,8.57048e-01,9.99999e-01
9.018370173e-01,8.45383e-01,9.99859e-01,9.83523e-01,8.59663e-01,9.99999e-01
9.063462024e-01,8.46439e-01,9.96280e-01,9.85301e-01,8.62235e-01,9.99998e-01
9.108779334e-01,8.38116e-01,9.91695e-01,9.77262e-01,8.64763e-01,9.99998e-01
9.154323231e-01,8.43324e-01,9.98063e-01,9.74284e-01,8.67249e-01,9.99998e-01
9.200094847e-01,8.27201e-01,9.70309e-01,9.79825e-01,8.69692e-01,9.99998e-01
9.246095321e-01,8.10236e-01,9.59883e-01,9.67596e-01,8.72094e-01,9.99998e-01
9.292325798e-01,6.79991e-01,9.67930e-01,8.02139e-01,8.74454e-01,9.99996e-01
9.338787427e-01,6.40964e-01,9.69390e-01,7.53016e-01,8.76775e-01,9.99995e-01
9.385481364e-01,7.67346e-01,9.77466e-01,8.92559e-01,8.79055e-01,9.99995e-01
9.432408771e-01,7.39299e-01,9.86200e-01,8.50337e-01,8.81296e-01,9.99995e-01
9.479570815e-01,6.98528e-01,9.92886e-01,7.96161e-01,8.83499e-01,9.99995e-01
9.526968669e-01,7.47587e-01,9.96569e-01,8.46890e-01,8.85663e-01,9.99996e-01
9.574603512e-01,7.63538e-01,9.98533e-01,8.61274e-01,8.87789e-01,9.99997e-01
9.622476530e-01,7.88491e-01,9.99542e-01,8.86461e-01,8.89879e-01,9.99998e-01
9.670588912e-01,8.32052e-01,9.99862e-01,9.32990e-01,8.91932e-01,9.99998e-01
9.718941857e-01,8.56216e-01,9.99990e-01,9.57799e-01,8.93949e-01,9.99998e-01
9.767536566e-01,8.64441e-01,9.99999e-01,9.64851e-01,8.95931e-01,9.99999e-01
9.816374249e-01,8.74468e-01,9.99999e-01,9.73927e-01,8.97878e-01,9.99999e-01
9.865456120e-01,8.85080e-01,9.99999e-01,9.83651e-01,8.99790e-01,9.99999e-01
9.914783401e-01,8.92532e-01,9.99999e-01,9.89866e-01,9.01669e-01,9.99999e-01
9.964357318e-01,8.98520e-01,9.99999e-01,9.94471e-01,9.03514e-01,9.99999e-01
1.001417910e+00,9.02326e-01,9.99999e-01,9.96685e-01,9.05327e-01,9.99999e-01
1.006425000e+00,9.05390e-01,9.99999e-01,9.98106e-01,9.07107e-01,9.99999e-01
1.011457125e+00,9.07790e-01,9.99999e-01,9.98826e-01,9.08856e-01,9.99999e-01
1.016514411e+00,9.09847e-01,9.99999e-01,9.99202e-01,9.10573e-01,9.99999e-01
1.021596983e+00,9.11660e-01,9.99977e-01,9.99363e-01,9.12259e-01,9.99999e-01
1.026704968e+00,9.12138e-01,9.98549e-01,9.99503e-01,9.13916e-01,9.99999e-01
1.031838492e+00,8.93044e-01,9.75770e-01,9.99639e-01,9.15542e-01,9.99999e-01
1.036997685e+00,3.17195e-01,3.45916e-01,9.99785e-01,9.17139e-01,9.99999e-01
1.042182673e+00,3.94758e-01,4.29793e-01,9.99743e-01,9.18707e-01,9.99999e-01
1.047393587e+00,3.49250e-01,3.79635e-01,9.99660e-01,9.20247e-01,9.99999e-01
1.052630555e+00,7.76111e-02,8.42308e-02,9.99533e-01,9.21759e-01,9.99999e-01
1.057893707e+00,1.35511e-01,1.46872e-01,9.99220e-01,9.23244e-01,9.99999e-01
1.063183176e+00,2.31425e-01,2.50541e-01,9.98719e-01,9.24701e-01,9.99999e-01
1.068499092e+00,3.69698e-01,3.99979e-01,9.97858e-01,9.26132e-01,9.99999e-01
1.073841587e+00,5.20421e-01,5.62389e-01,9.97488e-01,9.27537e-01,9.99999e-01
1.079210795e+00,6.44360e-01,6.95819e-01,9.96792e-01,9.28916e-01,9.99999e-01
1.084606849e+00,7.60087e-01,8.20978e-01,9.95138e-01,9.30270e-01,9.99999e-01
1.090029883e+00,8.35290e-01,9.02890e-01,9.92980e-01,9.31599e-01,9.99999e-01
1.095480033e+00,8.70451e-01,9.51038e-01,9.81013e-01,9.32904e-01,9.99999e-01
1.100957433e+00,8.68504e-01,9.76134e-01,9.52330e-01,9.34185e-01,9.99998e-01
1.106462220e+00,8.16971e-01,9.90080e-01,8.81975e-01,9.35442e-01,9.99997e-01
1.111994531e+00,7.16136e-01,9.96313e-01,7.67297e-01,9.36676e-01,9.99995e-01
1.117554504e+00,6.08817e-01,9.99102e-01,6.49676e-01,9.37887e-01,9.99994e-01
1.123142276e+00,6.79427e-01,9.99941e-01,7.23541e-01,9.39076e-01,9.99993e-01
1.128757988e+00,7.66376e-01,9.99999e-01,8.15088e-01,9.40242e-01,9.99992e-01
1.134401778e+00,5.71219e-01,9.99999e-01,6.06789e-01,9.41387e-01,9.99992e-01
1.140073787e+00,8.35962e-01,9.99999e-01,8.86956e-01,9.42511e-01,9.99993e-01
1.145774156e+00,7.32691e-01,9.99999e-01,7.76476e-01,9.43614e-01,9.99994e-01
1.151503026e+00,7.10740e-01,9.99999e-01,7.52350e-01,9.44696e-01,9.99995e-01
1.157260541e+00,7.50162e-01,9.99999e-01,7.93187e-01,9.45758e-01,9.99996e-01
1.163046844e+00,7.98568e-01,9.99999e-01,8.43439e-01,9.46801e-01,9.99997e-01
1.168862078e+00,8.42870e-01,9.99999e-01,8.89269e-01,9.47824e-01,9.99998e-01
1.174706389e+00,8.82557e-01,9.99999e-01,9.30155e-01,9.48827e-01,9.99998e-01
1.180579921e+00,9.08916e-01,9.99999e-01,9.56942e-01,9.49812e-01,9.99999e-01
1.186482820e+00,9.27450e-01,9.99996e-01,9.75466e-01,9.50779e-01,9.99999e-01
1.192415234e+00,9.33135e-01,9.94755e-01,9.85610e-01,9.51727e-01,9.99999e-01
1.198377311e+00,5.63461e-01,5.97604e-01,9.87839e-01,9.52658e-01,9.99999e-01
1.204369197e+00,1.23410e-05,1.30286e-05,9.88488e-01,9.53571e-01,9.99999e-01
1.210391043e+00,8.23409e-17,8.67999e-17,9.88997e-01,9.54467e-01,9.99999e-01
1.216442998e+00,8.56082e-15,9.01342e-15,9.90649e-01,9.55346e-01,9.99999e-01
1.222525213e+00,1.47057e-14,1.54399e-14,9.92712e-01,9.56208e-01,9.99999e-01
1.228637839e+00,3.74067e-11,3.92285e-11,9.94932e-01,9.57054e-01,9.99999e-01
1.234781029e+00,5.61477e-08,5.87204e-08,9.96238e-01,9.57884e-01,9.99999e-01
1.240954934e+00,2.07803e-05,2.17108e-05,9.97618e-01,9.58699e-01,9.99999e-01
1.247159708e+00,2.32995e-03,2.43172e-03,9.98146e-01,9.59498e-01,9.99999e-01
1.253395507e+00,3.65386e-02,3.81028e-02,9.98352e-01,9.60282e-01,9.99999e-01
1.259662485e+00,1.51509e-01,1.57871e-01,9.98432e-01,9.61051e-01,9.99999e-01
1.265960797e+00,3.30181e-01,3.44079e-01,9.97499e-01,9.61805e-01,9.99999e-01
1.272290601e+00,6.20686e-01,6.47296e-01,9.96062e-01,9.62545e-01,9.99999e-01
1.278652054e+00,5.53523e-01,5.78652e-01,9.92181e-01,9.63271e-01,9.99999e-01
1.285045314e+00,4.81733e-02,5.03878e-02,9.85832e-01,9.63984e-01,9.99999e-01
1.291470541e+00,1.20612e-02,1.27472e-02,9.75432e-01,9.64682e-01,9.99999e-01
1.297927893e+00,1.07212e-01,1.13929e-01,9.65193e-01,9.65368e-01,9.99998e-01
1.304417533e+00,4.22032e-01,4.54671e-01,9.59104e-01,9.66040e-01,9.99997e-01
1.310939621e+00,8.64696e-02,9.22102e-02,9.48557e-01,9.66699e-01,9.99996e-01
1.317494319e+00,3.33893e-06,3.57303e-06,9.49504e-01,9.67346e-01,9.99995e-01
1.324081790e+00,3.76102e-04,4.04896e-04,9.26309e-01,9.67981e-01,9.99992e-01
1.330702199e+00,6.96655e-03,8.95207e-03,7.03196e-01,9.68603e-01,9.99987e-01
1.337355710e+00,3.31662e-03,6.02289e-03,4.30602e-01,9.69214e-01,9.99976e-01
1.344042489e+00,6.31826e-04,2.38279e-03,9.37011e-02,9.69813e-01,9.99949e-01
1.350762701e+00,1.25821e-04,7.39866e-03,1.01281e-02,9.70400e-01,9.99919e-01
1.357516515e+00,1.59047e-04,3.89747e-02,2.52395e-03,9.70976e-01,9.99900e-01
1.364304097e+00,2.71196e-03,1.35424e-01,1.62848e-02,9.71541e-01,9.99892e-01
1.371125618e+00,2.59071e-02,3.46824e-01,6.59358e-02,9.72095e-01,9.99892e-01
1.377981246e+00,4.22859e-02,4.30931e-01,9.45285e-02,9.72639e-01,9.99884e-01
1.384871152e+00,8.51622e-03,6.12858e-01,1.33475e-02,9.73172e-01,9.99887e-01
1.391795508e+00,1.41411e-02,6.36374e-01,2.15626e-02,9.73695e-01,9.99904e-01
1.398754485e+00,2.58085e-02,7.57634e-01,3.42915e-02,9.74208e-01,9.99917e-01
1.405748258e+00,2.64401e-02,8.14786e-01,3.23231e-02,9.74711e-01,9.99926e-01
1.412776999e+00,3.29677e-02,8.78982e-01,3.78577e-02,9.75204e-01,9.99940e-01
1.419840884e+00,3.96032e-02,8.21459e-01,4.49257e-02,9.75688e-01,9.99955e-01
1.426940089e+00,2.37207e-02,1.19153e-01,9.20638e-02,9.76162e-01,9.99972e-01
1.434074789e+00,1.67215e-230,4.80732e-230,1.59215e-01,9.76627e-01,9.99982e-01
1.441245163e+00,0.00000e+00,0.00000e+00,2.61938e-01,9.77084e-01,9.99986e-01
1.448451389e+00,4.82761e-279,7.95345e-279,3.80867e-01,9.77531e-01,9.99988e-01
1.455693646e+00,3.00080e-125,4.16398e-125,5.42929e-01,9.77970e-01,9.99990e-01
1.462972114e+00,1.77937e-61,2.46817e-61,5.93488e-01,9.78400e-01,9.99991e-01
1.470286975e+00,1.06859e-26,1.52059e-26,5.42447e-01,9.78823e-01,9.99992e-01
