#,Wave/freq,Total,CO2,H2O,Rayleigh,CIA
4.000000000e-01,1.64323e-04,9.99999e-01,9.99982e-01,1.64326e-04,9.99999e-01
4.020000000e-01,1.95222e-04,9.99999e-01,9.99988e-01,1.95224e-04,9.99999e-01
4.040100000e-01,2.31101e-04,9.99999e-01,9.99995e-01,2.31102e-04,9.99999e-01
4.060300500e-01,2.72664e-04,9.99999e-01,9.99998e-01,2.72664e-04,9.99999e-01
4.080602003e-01,3.20651e-04,9.99999e-01,9.99999e-01,3.20651e-04,9.99999e-01
4.101005013e-01,3.75879e-04,9.99999e-01,9.99999e-01,3.75879e-04,9.99999e-01
4.121510038e-01,4.39237e-04,9.99999e-01,9.99998e-01,4.39237e-04,9.99999e-01
4.142117588e-01,5.11696e-04,9.99999e-01,9.99994e-01,5.11698e-04,9.99999e-01
4.162828176e-01,5.94306e-04,9.99999e-01,9.99978e-01,5.94318e-04,9.99999e-01
4.183642317e-01,6.88232e-04,9.99999e-01,9.99986e-01,6.88240e-04,9.99999e-01
4.204560528e-01,7.94693e-04,9.99999e-01,9.99991e-01,7.94699e-04,9.99999e-01
4.225583331e-01,9.15019e-04,9.99999e-01,9.99996e-01,9.15021e-04,9.99999e-01
4.246711247e-01,1.05063e-03,9.99999e-01,9.99997e-01,1.05063e-03,9.99999e-01
4.267944804e-01,1.20305e-03,9.99999e-01,9.99996e-01,1.20305e-03,9.99999e-01
4.289284528e-01,1.37390e-03,9.99999e-01,9.99996e-01,1.37390e-03,9.99999e-01
4.310730950e-01,1.56490e-03,9.99999e-01,9.99998e-01,1.56491e-03,9.99999e-01
4.332284605e-01,1.77789e-03,9.99999e-01,9.99999e-01,1.77789e-03,9.99999e-01
4.353946028e-01,2.01477e-03,9.99999e-01,9.99999e-01,2.01477e-03,9.99999e-01
4.375715758e-01,2.27757e-03,9.99999e-01,9.99997e-01,2.27758e-03,9.99999e-01
4.397594337e-01,2.56840e-03,9.99999e-01,9.99981e-01,2.56844e-03,9.99999e-01
4.419582309e-01,2.88931e-03,9.99999e-01,9.99906e-01,2.88958e-03,9.99999e-01
4.441680220e-01,3.24308e-03,9.99999e-01,9.99925e-01,3.24332e-03,9.99999e-01
4.463888621e-01,3.63179e-03,9.99999e-01,9.99922e-01,3.63207e-03,9.99999e-01
4.486208064e-01,4.05814e-03,9.99999e-01,9.99951e-01,4.05833e-03,9.99999e-01
4.508639105e-01,4.52458e-03,9.99999e-01,9.99977e-01,4.52469e-03,9.99999e-01
4.531182300e-01,5.03376e-03,9.99999e-01,9.99990e-01,5.03380e-03,9.99999e-01
4.553838212e-01,5.58839e-03,9.99999e-01,9.99993e-01,5.58843e-03,9.99999e-01
4.576607403e-01,6.19134e-03,9.99999e-01,9.99996e-01,6.19136e-03,9.99999e-01
4.599490440e-01,6.84547e-03,9.99999e-01,9.99997e-01,6.84548e-03,9.99999e-01
4.622487892e-01,7.55370e-03,9.99999e-01,9.99999e-01,7.55370e-03,9.99999e-01
4.645600332e-01,8.31900e-03,9.99999e-01,9.99998e-01,8.31901e-03,9.99999e-01
4.668828333e-01,9.14420e-03,9.99999e-01,9.99977e-01,9.14440e-03,9.99999e-01
4.692172475e-01,1.00324e-02,9.99999e-01,9.99951e-01,1.00329e-02,9.99999e-01
4.715633337e-01,1.09873e-02,9.99999e-01,9.99968e-01,1.09876e-02,9.99999e-01
4.739211504e-01,1.20112e-02,9.99999e-01,9.99969e-01,1.20116e-02,9.99999e-01
4.762907561e-01,1.31077e-02,9.99999e-01,9.99983e-01,1.31079e-02,9.99999e-01
4.786722099e-01,1.42795e-02,9.99999e-01,9.99993e-01,1.42796e-02,9.99999e-01
4.810655710e-01,1.55298e-02,9.99999e-01,9.99997e-01,1.55298e-02,9.99999e-01
4.834708988e-01,1.68612e-02,9.99999e-01,9.99981e-01,1.68615e-02,9.99999e-01
4.858882533e-01,1.82769e-02,9.99999e-01,9.99965e-01,1.82776e-02,9.99999e-01
4.883176946e-01,1.97805e-02,9.99999e-01,9.99971e-01,1.97811e-02,9.99999e-01
4.907592831e-01,2.13743e-02,9.99999e-01,9.99973e-01,2.13748e-02,9.99999e-01
4.932130795e-01,2.30613e-02,9.99999e-01,9.99981e-01,2.30617e-02,9.99999e-01
4.956791449e-01,2.48442e-02,9.99999e-01,9.99989e-01,2.48444e-02,9.99999e-01
4.981575406e-01,2.67243e-02,9.99999e-01,9.99951e-01,2.67256e-02,9.99999e-01
5.006483283e-01,2.87042e-02,9.99999e-01,9.99875e-01,2.87077e-02,9.99999e-01
5.031515699e-01,3.07739e-02,9.99999e-01,9.99366e-01,3.07934e-02,9.99999e-01
5.056673278e-01,3.29738e-02,9.99999e-01,9.99664e-01,3.29848e-02,9.99999e-01
5.081956644e-01,3.52693e-02,9.99999e-01,9.99576e-01,3.52842e-02,9.99999e-01
5.107366428e-01,3.76830e-02,9.99999e-01,9.99714e-01,3.76938e-02,9.99999e-01
5.132903260e-01,4.02088e-02,9.99999e-01,9.99836e-01,4.02153e-02,9.99999e-01
5.158567776e-01,4.28478e-02,9.99999e-01,9.99930e-01,4.28508e-02,9.99999e-01
5.184360615e-01,4.56004e-02,9.99999e-01,9.99971e-01,4.56017e-02,9.99999e-01
5.210282418e-01,4.84691e-02,9.99999e-01,9.99989e-01,4.84696e-02,9.99999e-01
5.236333830e-01,5.14537e-02,9.99999e-01,9.99958e-01,5.14558e-02,9.99999e-01
5.262515499e-01,5.45602e-02,9.99999e-01,9.99973e-01,5.45616e-02,9.99999e-01
5.288828077e-01,5.77865e-02,9.99999e-01,9.99975e-01,5.77878e-02,9.99999e-01
5.315272217e-01,6.11342e-02,9.99999e-01,9.99978e-01,6.11355e-02,9.99999e-01
5.341848578e-01,6.46042e-02,9.99999e-01,9.99985e-01,6.46051e-02,9.99999e-01
5.368557821e-01,6.81940e-02,9.99999e-01,9.99951e-01,6.81973e-02,9.99999e-01
5.395400610e-01,7.18999e-02,9.99999e-01,9.99826e-01,7.19123e-02,9.99999e-01
5.422377613e-01,7.57332e-02,9.99999e-01,9.99774e-01,7.57502e-02,9.99999e-01
5.449489501e-01,7.96945e-02,9.99999e-01,9.99791e-01,7.97111e-02,9.99999e-01
5.476736949e-01,8.37792e-02,9.99999e-01,9.99814e-01,8.37947e-02,9.99999e-01
5.504120634e-01,8.79888e-02,9.99999e-01,9.99865e-01,8.80006e-02,9.99999e-01
5.531641237e-01,9.23220e-02,9.99999e-01,9.99931e-01,9.23283e-02,9.99999e-01
5.559299443e-01,9.67738e-02,9.99999e-01,9.99966e-01,9.67770e-02,9.99999e-01
5.587095940e-01,1.01344e-01,9.99999e-01,9.99979e-01,1.01346e-01,9.99999e-01
5.615031420e-01,1.06031e-01,9.99999e-01,9.99976e-01,1.06034e-01,9.99999e-01
5.643106577e-01,1.10836e-01,9.99999e-01,9.99973e-01,1.10839e-01,9.99999e-01
5.671322110e-01,1.15725e-01,9.99999e-01,9.99689e-01,1.15761e-01,9.99999e-01
5.699678720e-01,1.20758e-01,9.99999e-01,9.99664e-01,1.20798e-01,9.99999e-01
5.728177114e-01,1.25904e-01,9.99999e-01,9.99652e-01,1.25948e-01,9.99999e-01
5.756818000e-01,1.31168e-01,9.99999e-01,9.99680e-01,1.31209e-01,9.99999e-01
5.785602090e-01,1.36542e-01,9.99999e-01,9.99721e-01,1.36580e-01,9.99999e-01
5.814530100e-01,1.42018e-01,9.99999e-01,9.99720e-01,1.42058e-01,9.99999e-01
5.843602750e-01,1.47592e-01,9.99999e-01,9.99668e-01,1.47641e-01,9.99999e-01
5.872820764e-01,1.52888e-01,9.99999e-01,9.97143e-01,1.53326e-01,9.99999e-01
5.902184868e-01,1.58559e-01,9.99999e-01,9.96523e-01,1.59112e-01,9.99999e-01
5.931695792e-01,1.64590e-01,9.99999e-01,9.97546e-01,1.64995e-01,9.99999e-01
5.961354271e-01,1.70513e-01,9.99999e-01,9.97308e-01,1.70973e-01,9.99999e-01
5.991161043e-01,1.76696e-01,9.99999e-01,9.98035e-01,1.77043e-01,9.99999e-01
6.021116848e-01,1.82998e-01,9.99999e-01,9.98883e-01,1.83203e-01,9.99999e-01
6.051222432e-01,1.89341e-01,9.99999e-01,9.99434e-01,1.89448e-01,9.99999e-01
6.081478544e-01,1.95729e-01,9.99999e-01,9.99756e-01,1.95777e-01,9.99999e-01
6.111885937e-01,2.02165e-01,9.99999e-01,9.99896e-01,2.02186e-01,9.99999e-01
6.142445367e-01,2.08663e-01,9.99999e-01,9.99953e-01,2.08672e-01,9.99999e-01
6.173157594e-01,2.15227e-01,9.99999e-01,9.99974e-01,2.15232e-01,9.99999e-01
6.204023382e-01,2.21858e-01,9.99999e-01,9.99978e-01,2.21862e-01,9.99999e-01
6.235043498e-01,2.28539e-01,9.99999e-01,9.99906e-01,2.28560e-01,9.99999e-01
6.266218716e-01,2.35204e-01,9.99999e-01,9.99500e-01,2.35321e-01,9.99999e-01
6.297549810e-01,2.42099e-01,9.99999e-01,9.99816e-01,2.42143e-01,9.99999e-01
6.329037559e-01,2.48932e-01,9.99999e-01,9.99636e-01,2.49023e-01,9.99999e-01
6.360682746e-01,2.55877e-01,9.99999e-01,9.99691e-01,2.55955e-01,9.99999e-01
6.392486160e-01,2.62834e-01,9.99999e-01,9.99599e-01,2.62939e-01,9.99999e-01
6.424448591e-01,2.69825e-01,9.99999e-01,9.99467e-01,2.69969e-01,9.99999e-01
6.456570834e-01,2.76358e-01,9.99999e-01,9.97526e-01,2.77043e-01,9.99999e-01
6.488853688e-01,2.83639e-01,9.99999e-01,9.98178e-01,2.84157e-01,9.99999e-01
6.521297956e-01,2.90766e-01,9.99999e-01,9.98142e-01,2.91307e-01,9.99999e-01
6.553904446e-01,2.97944e-01,9.99999e-01,9.98164e-01,2.98491e-01,9.99999e-01
6.586673968e-01,3.05222e-01,9.99999e-01,9.98416e-01,3.05706e-01,9.99999e-01
6.619607338e-01,3.12660e-01,9.99999e-01,9.99084e-01,3.12946e-01,9.99999e-01
6.652705375e-01,3.20041e-01,9.99999e-01,9.99469e-01,3.20210e-01,9.99999e-01
6.685968902e-01,3.27414e-01,9.99999e-01,9.99753e-01,3.27495e-01,9.99999e-01
6.719398746e-01,3.34758e-01,9.99999e-01,9.99885e-01,3.34796e-01,9.99999e-01
6.752995740e-01,3.42090e-01,9.99999e-01,9.99937e-01,3.42111e-01,9.99999e-01
6.786760719e-01,3.49406e-01,9.99999e-01,9.99910e-01,3.49437e-01,9.99999e-01
6.820694522e-01,3.56715e-01,9.99999e-01,9.99847e-01,3.56770e-01,9.99999e-01
6.854797995e-01,3.64036e-01,9.99999e-01,9.99803e-01,3.64107e-01,9.99999e-01
6.889071985e-01,3.71271e-01,9.99999e-01,9.99528e-01,3.71446e-01,9.99999e-01
6.923517345e-01,3.75855e-01,9.99999e-01,9.92267e-01,3.78784e-01,9.99999e-01
6.958134932e-01,3.84546e-01,9.99999e-01,9.95928e-01,3.86118e-01,9.99999e-01
6.992925606e-01,3.91939e-01,9.99999e-01,9.96174e-01,3.93444e-01,9.99999e-01
7.027890234e-01,3.98860e-01,9.99999e-01,9.95257e-01,4.00761e-01,9.99999e-01
7.063029686e-01,4.06438e-01,9.99999e-01,9.96014e-01,4.08065e-01,9.99999e-01
7.098344834e-01,4.13765e-01,9.99999e-01,9.96175e-01,4.15354e-01,9.99999e-01
7.133836558e-01,4.20486e-01,9.99999e-01,9.94937e-01,4.22625e-01,9.99999e-01
7.169505741e-01,4.12569e-01,9.99999e-01,9.59739e-01,4.29876e-01,9.99999e-01
7.205353270e-01,4.28327e-01,9.99999e-01,9.79918e-01,4.37105e-01,9.99998e-01
7.241380036e-01,4.33102e-01,9.99999e-01,9.74775e-01,4.44309e-01,9.99998e-01
7.277586936e-01,4.41191e-01,9.99999e-01,9.77198e-01,4.51486e-01,9.99999e-01
7.313974871e-01,4.47489e-01,9.99999e-01,9.75699e-01,4.58634e-01,9.99999e-01
7.350544745e-01,4.59544e-01,9.99999e-01,9.86675e-01,4.65750e-01,9.99999e-01
7.387297469e-01,4.68189e-01,9.99999e-01,9.90179e-01,4.72833e-01,9.99999e-01
7.424233956e-01,4.77567e-01,9.99999e-01,9.95179e-01,4.79880e-01,9.99999e-01
7.461355126e-01,4.85469e-01,9.99999e-01,9.97079e-01,4.86891e-01,9.99999e-01
7.498661902e-01,4.93189e-01,9.99999e-01,9.98637e-01,4.93862e-01,9.99999e-01
7.536155211e-01,5.00458e-01,9.99999e-01,9.99332e-01,5.00792e-01,9.99999e-01
7.573835987e-01,5.07505e-01,9.99999e-01,9.99656e-01,5.07680e-01,9.99999e-01
7.611705167e-01,5.14414e-01,9.99999e-01,9.99786e-01,5.14523e-01,9.99999e-01
7.649763693e-01,5.21252e-01,9.99999e-01,9.99865e-01,5.21322e-01,9.99999e-01
7.688012511e-01,5.28023e-01,9.99999e-01,9.99906e-01,5.28072e-01,9.99999e-01
7.726452574e-01,5.34734e-01,9.99999e-01,9.99923e-01,5.34775e-01,9.99999e-01
7.765084837e-01,5.41369e-01,9.99999e-01,9.99891e-01,5.41427e-01,9.99999e-01
7.803910261e-01,5.32332e-01,9.71798e-01,9.99532e-01,5.48029e-01,9.99999e-01
7.842929812e-01,4.87136e-01,8.79765e-01,9.98368e-01,5.54578e-01,9.99999e-01
7.882144461e-01,4.87716e-01,8.72098e-01,9.96624e-01,5.61074e-01,9.99999e-01
7.921555184e-01,5.23241e-01,9.23667e-01,9.98142e-01,5.67515e-01,9.99999e-01
7.961162960e-01,5.42342e-01,9.48075e-01,9.96738e-01,5.73901e-01,9.99999e-01
8.000968774e-01,5.61597e-01,9.71545e-01,9.96222e-01,5.80231e-01,9.99999e-01
8.040973618e-01,5.75604e-01,9.85129e-01,9.96224e-01,5.86503e-01,9.99999e-01
8.081178486e-01,5.83686e-01,9.93163e-01,9.91530e-01,5.92717e-01,9.99999e-01
8.121584379e-01,5.76732e-01,9.97874e-01,9.65063e-01,5.98872e-01,9.99999e-01
8.162192301e-01,5.79545e-01,9.99530e-01,9.58419e-01,6.04968e-01,9.99998e-01
8.203003262e-01,5.98301e-01,9.99992e-01,9.79216e-01,6.11004e-01,9.99998e-01
8.244018279e-01,5.98862e-01,9.99999e-01,9.70636e-01,6.16978e-01,9.99998e-01
8.285238370e-01,6.07375e-01,9.99999e-01,9.75088e-01,6.22892e-01,9.99999e-01
8.326664562e-01,6.12872e-01,9.99999e-01,9.74757e-01,6.28743e-01,9.99999e-01
8.368297885e-01,6.23052e-01,9.99999e-01,9.81906e-01,6.34533e-01,9.99999e-01
8.410139374e-01,6.33354e-01,9.99999e-01,9.89213e-01,6.40260e-01,9.99999e-01
8.452190071e-01,6.42498e-01,9.99999e-01,9.94695e-01,6.45923e-01,9.99999e-01
8.494451021e-01,6.49522e-01,9.99999e-01,9.96926e-01,6.51524e-01,9.99999e-01
8.536923276e-01,6.55865e-01,9.99999e-01,9.98178e-01,6.57061e-01,9.99999e-01
8.579607893e-01,6.61793e-01,9.99999e-01,9.98879e-01,6.62534e-01,9.99999e-01
8.622505932e-01,6.67468e-01,9.99999e-01,9.99287e-01,6.67944e-01,9.99999e-01
8.665618462e-01,6.28737e-01,9.34225e-01,9.99559e-01,6.73289e-01,9.99999e-01
8.708946554e-01,4.89601e-01,7.21869e-01,9.99496e-01,6.78571e-01,9.99999e-01
8.752491287e-01,5.25757e-01,7.69392e-01,9.99326e-01,6.83788e-01,9.99999e-01
8.796253743e-01,5.96214e-01,8.66191e-01,9.99069e-01,6.88942e-01,9.99999e-01
8.840235012e-01,6.43627e-01,9.28349e-01,9.98936e-01,6.94031e-01,9.99999e-01
8.884436187e-01,6.76255e-01,9.71087e-01,9.96155e-01,6.99056e-01,9.99999e-01
8.928858368e-01,6.67858e-01,9.88207e-01,9.59877e-01,7.04017e-01,9.99998e-01
8.973502660e-01,6.57215e-01,9.97114e-01,9.29709e-01,7.08914e-01,9.99998e-01
9.018370173e-01,6.87366e-01,9.99681e-01,9.63337e-01,7.13748e-01,9.99998e-01
9.063462024e-01,6.90060e-01,9.91977e-01,9.67956e-01,7.18518e-01,9.99998e-01
9.108779334e-01,6.74696e-01,9.81471e-01,9.50327e-01,7.23225e-01,9.99998e-01
9.154323231e-01,6.83940e-01,9.95599e-01,9.43726e-01,7.27869e-01,9.99998e-01
9.200094847e-01,6.57891e-01,9.38057e-01,9.55576e-01,7.32450e-01,9.99997e-01
9.246095321e-01,6.27552e-01,9.12518e-01,9.31863e-01,7.36968e-01,9.99996e-01
9.292325798e-01,4.31730e-01,9.31037e-01,6.21353e-01,7.41425e-01,9.99992e-01
9.338787427e-01,3.77785e-01,9.32978e-01,5.39414e-01,7.45819e-01,9.99990e-01
9.385481364e-01,5.57198e-01,9.50347e-01,7.79604e-01,7.50152e-01,9.99990e-01
9.432408771e-01,5.18439e-01,9.69270e-01,7.07935e-01,7.54424e-01,9.99989e-01
9.479570815e-01,4.63863e-01,9.84140e-01,6.20834e-01,7.58635e-01,9.99990e-01
9.526968669e-01,5.29290e-01,9.92314e-01,6.98847e-01,7.62786e-01,9.99992e-01
9.574603512e-01,5.50597e-01,9.96706e-01,7.20214e-01,7.66876e-01,9.99994e-01
9.622476530e-01,5.89525e-01,9.98970e-01,7.65465e-01,7.70907e-01,9.99996e-01
9.670588912e-01,6.64198e-01,9.99691e-01,8.57417e-01,7.74880e-01,9.99997e-01
9.718941857e-01,7.07519e-01,9.99977e-01,9.08500e-01,7.78793e-01,9.99998e-01
9.767536566e-01,7.22746e-01,9.99999e-01,9.23461e-01,7.82649e-01,9.99998e-01
9.816374249e-01,7.41343e-01,9.99999e-01,9.42649e-01,7.86446e-01,9.99998e-01
9.865456120e-01,7.61567e-01,9.99999e-01,9.63780e-01,7.90187e-01,9.99999e-01
9.914783401e-01,7.75986e-01,9.99999e-01,9.77470e-01,7.93871e-01,9.99999e-01
9.964357318e-01,7.87664e-01,9.99999e-01,9.87667e-01,7.97499e-01,9.99999e-01
1.001417910e+00,7.95137e-01,9.99999e-01,9.92591e-01,8.01071e-01,9.99999e-01
1.006425000e+00,8.01190e-01,9.99999e-01,9.95775e-01,8.04589e-01,9.99999e-01
1.011457125e+00,8.05929e-01,9.99999e-01,9.97372e-01,8.08052e-01,9.99999e-01
1.016514411e+00,8.10014e-01,9.99999e-01,9.98217e-01,8.11460e-01,9.99999e-01
1.021596983e+00,8.13626e-01,9.99959e-01,9.98579e-01,8.14816e-01,9.99999e-01
1.026704968e+00,8.14661e-01,9.96875e-01,9.98892e-01,8.18119e-01,9.99999e-01
1.031838492e+00,7.89792e-01,9.62309e-01,9.99194e-01,8.21369e-01,9.99999e-01
1.036997685e+00,1.48121e-01,1.79704e-01,9.99521e-01,8.24568e-01,9.99999e-01
1.042182673e+00,1.35144e-01,1.63357e-01,9.99430e-01,8.27716e-01,9.99999e-01
1.047393587e+00,1.49638e-01,1.80232e-01,9.99244e-01,8.30813e-01,9.99999e-01
1.052630555e+00,6.80026e-03,8.16147e-03,9.98964e-01,8.33860e-01,9.99999e-01
1.057893707e+00,1.58545e-02,1.89681e-02,9.98272e-01,8.36858e-01,9.99999e-01
1.063183176e+00,4.56233e-02,5.44403e-02,9.97157e-01,8.39807e-01,9.99999e-01
1.068499092e+00,1.13620e-01,1.35381e-01,9.95239e-01,8.42708e-01,9.99999e-01
1.073841587e+00,2.37559e-01,2.82310e-01,9.94435e-01,8.45562e-01,9.99999e-01
1.079210795e+00,3.78623e-01,4.49258e-01,9.92861e-01,8.48368e-01,9.99999e-01
1.084606849e+00,5.42628e-01,6.44209e-01,9.89220e-01,8.51128e-01,9.99999e-01
1.090029883e+00,6.69549e-01,7.96148e-01,9.84589e-01,8.53843e-01,9.99998e-01
1.095480033e+00,7.33997e-01,8.93707e-01,9.58512e-01,8.56512e-01,9.99998e-01
1.100957433e+00,7.31101e-01,9.47333e-01,8.97860e-01,8.59136e-01,9.99997e-01
1.106462220e+00,6.41303e-01,9.77864e-01,7.60548e-01,8.61716e-01,9.99995e-01
1.111994531e+00,4.81554e-01,9.91739e-01,5.61551e-01,8.64253e-01,9.99991e-01
1.117554504e+00,3.40082e-01,9.97972e-01,3.93037e-01,8.66747e-01,9.99988e-01
1.123142276e+00,4.36958e-01,9.99866e-01,5.02755e-01,8.69199e-01,9.99986e-01
1.128757988e+00,5.61520e-01,9.99999e-01,6.44242e-01,8.71609e-01,9.99984e-01
1.134401778e+00,3.33500e-01,9.99999e-01,3.81594e-01,8.73978e-01,9.99983e-01
1.140073787e+00,6.74225e-01,9.99999e-01,7.69403e-01,8.76307e-01,9.99986e-01
1.145774156e+00,5.08158e-01,9.99999e-01,5.78382e-01,8.78595e-01,9.99988e-01
1.151503026e+00,4.78767e-01,9.99999e-01,5.43537e-01,8.80844e-01,9.99989e-01
1.157260541e+00,5.30852e-01,9.99999e-01,6.01158e-01,8.83054e-01,9.99992e-01
1.163046844e+00,6.07443e-01,9.99999e-01,6.86203e-01,8.85226e-01,9.99994e-01
1.168862078e+00,6.83136e-01,9.99999e-01,7.69853e-01,8.87361e-01,9.99997e-01
1.174706389e+00,7.56903e-01,9.99999e-01,8.50971e-01,8.89458e-01,9.99998e-01
1.180579921e+00,8.08067e-01,9.99999e-01,9.06395e-01,8.91518e-01,9.99998e-01
1.186482820e+00,8.45311e-01,9.99994e-01,9.46026e-01,8.93542e-01,9.99998e-01
1.192415234e+00,8.57480e-01,9.88888e-01,9.68165e-01,8.95531e-01,9.99998e-01
1.198377311e+00,4.97072e-01,5.66620e-01,9.73127e-01,8.97485e-01,9.99999e-01
1.204369197e+00,8.22462e-10,9.28162e-10,9.74536e-01,8.99405e-01,9.99999e-01
1.210391043e+00,1.02803e-34,1.15633e-34,9.75636e-01,9.01290e-01,9.99999e-01
1.216442998e+00,2.91932e-30,3.27458e-30,9.79214e-01,9.03142e-01,9.99999e-01
1.222525213e+00,7.90790e-30,8.81214e-30,9.83791e-01,9.04961e-01,9.99999e-01
1.228637839e+00,4.34064e-23,4.82501e-23,9.88723e-01,9.06748e-01,9.99999e-01
1.234781029e+00,3.63380e-15,4.01433e-15,9.91609e-01,9.08503e-01,9.99999e-01
1.240954934e+00,2.79931e-10,3.08608e-10,9.94690e-01,9.10227e-01,9.99999e-01
1.247159708e+00,6.96561e-06,7.65797e-06,9.95861e-01,9.11919e-01,9.99999e-01
1.253395507e+00,9.22434e-04,1.01253e-03,9.96328e-01,9.13582e-01,9.99999e-01
1.259662485e+00,1.76090e-02,1.92955e-02,9.96516e-01,9.15214e-01,9.99999e-01
1.265960797e+00,9.21824e-02,1.01010e-01,9.94430e-01,9.16817e-01,9.99999e-01
1.272290601e+00,3.23543e-01,3.54948e-01,9.91822e-01,9.18391e-01,9.99999e-01
1.278652054e+00,3.00155e-01,3.30916e-01,9.82776e-01,9.19937e-01,9.99999e-01
1.285045314e+00,1.08775e-02,1.19739e-02,9.73015e-01,9.21455e-01,9.99998e-01
1.291470541e+00,8.70336e-05,9.77997e-05,9.46450e-01,9.22945e-01,9.99998e-01
1.297927893e+00,7.96771e-03,8.94541e-03,9.30628e-01,9.24408e-01,9.99997e-01
1.304417533e+00,1.48624e-01,1.74611e-01,9.11478e-01,9.25844e-01,9.99996e-01
1.310939621e+00,3.85812e-02,4.43731e-02,8.99503e-01,9.27254e-01,9.99993e-01
1.317494319e+00,1.94626e-12,2.24415e-12,8.91134e-01,9.28638e-01,9.99989e-01
1.324081790e+00,9.27522e-09,1.08394e-08,8.41707e-01,9.29997e-01,9.99983e-01
1.330702199e+00,2.62396e-05,4.01959e-05,5.04479e-01,9.31331e-01,9.99972e-01
1.337355710e+00,1.27193e-05,4.23574e-05,1.72901e-01,9.32641e-01,9.99947e-01
1.344042489e+00,2.05658e-06,1.27118e-05,1.31661e-02,9.33927e-01,9.99887e-01
1.350762701e+00,1.15430e-08,2.59311e-05,1.36439e-04,9.35188e-01,9.99820e-01
1.357516515e+00,1.58668e-08,1.08517e-03,4.30603e-06,9.36427e-01,9.99777e-01
1.364304097e+00,6.88758e-06,1.24101e-02,3.18664e-04,9.37643e-01,9.99761e-01
1.371125618e+00,6.26790e-04,1.00335e-01,4.36265e-03,9.38836e-01,9.99759e-01
1.377981246e+00,1.77466e-03,1.54069e-01,9.98726e-03,9.40007e-01,9.99742e-01
1.384871152e+00,1.40330e-04,3.36615e-01,3.64567e-04,9.41156e-01,9.99744e-01
1.391795508e+00,1.81736e-04,3.65573e-01,4.39274e-04,9.42285e-01,9.99781e-01
1.398754485e+00,8.19202e-04,5.37801e-01,1.52337e-03,9.43392e-01,9.99817e-01
1.405748258e+00,9.14927e-04,6.33023e-01,1.41374e-03,9.44478e-01,9.99836e-01
1.412776999e+00,1.09349e-03,7.49184e-01,1.45954e-03,9.45544e-01,9.99868e-01
1.419840884e+00,1.78472e-03,6.79917e-01,2.31657e-03,9.46591e-01,9.99901e-01
1.426940089e+00,2.46010e-03,7.03421e-02,8.38875e-03,9.47618e-01,9.99938e-01
1.434074789e+00,0.00000e+00,0.00000e+00,2.61419e-02,9.48625e-01,9.99961e-01
1.441245163e+00,0.00000e+00,0.00000e+00,6.10945e-02,9.49614e-01,9.99970e-01
1.448451389e+00,0.00000e+00,0.00000e+00,1.37008e-01,9.50584e-01,9.99975e-01
1.455693646e+00,1.77100e-276,3.67637e-276,2.67903e-01,9.51536e-01,9.99979e-01
1.462972114e+00,2.68435e-134,5.56690e-134,3.22806e-01,9.52470e-01,9.99982e-01
1.470286975e+00,8.80471e-57,1.92531e-56,2.67176e-01,9.53387e-01,9.99984e-01
