#,Wave/freq,Total,CO2,H2O,Rayleigh,CIA
4.000000000e-01,8.31210e-06,9.99999e-01,9.99976e-01,8.31229e-06,9.99999e-01
4.020000000e-01,1.04753e-05,9.99999e-01,9.99985e-01,1.04754e-05,9.99999e-01
4.040100000e-01,1.31381e-05,9.99999e-01,9.99993e-01,1.31382e-05,9.99999e-01
4.060300500e-01,1.64042e-05,9.99999e-01,9.99998e-01,1.64042e-05,9.99999e-01
4.080602003e-01,2.03926e-05,9.99999e-01,9.99999e-01,2.03926e-05,9.99999e-01
4.101005013e-01,2.52419e-05,9.99999e-01,9.99999e-01,2.52419e-05,9.99999e-01
4.121510038e-01,3.11129e-05,9.99999e-01,9.99998e-01,3.11130e-05,9.99999e-01
4.142117588e-01,3.81913e-05,9.99999e-01,9.99993e-01,3.81915e-05,9.99999e-01
4.162828176e-01,4.66898e-05,9.99999e-01,9.99971e-01,4.66911e-05,9.99999e-01
4.183642317e-01,5.68552e-05,9.99999e-01,9.99982e-01,5.68562e-05,9.99999e-01
4.204560528e-01,6.89647e-05,9.99999e-01,9.99989e-01,6.89654e-05,9.99999e-01
4.225583331e-01,8.33349e-05,9.99999e-01,9.99995e-01,8.33352e-05,9.99999e-01
4.246711247e-01,1.00323e-04,9.99999e-01,9.99996e-01,1.00323e-04,9.99999e-01
4.267944804e-01,1.20332e-04,9.99999e-01,9.99994e-01,1.20333e-04,9.99999e-01
4.289284528e-01,1.43815e-04,9.99999e-01,9.99995e-01,1.43816e-04,9.99999e-01
4.310730950e-01,1.71277e-04,9.99999e-01,9.99998e-01,1.71277e-04,9.99999e-01
4.332284605e-01,2.03279e-04,9.99999e-01,9.99999e-01,2.03279e-04,9.99999e-01
4.353946028e-01,2.40446e-04,9.99999e-01,9.99999e-01,2.40446e-04,9.99999e-01
4.375715758e-01,2.83465e-04,9.99999e-01,9.99996e-01,2.83466e-04,9.99999e-01
4.397594337e-01,3.33091e-04,9.99999e-01,9.99974e-01,3.33099e-04,9.99999e-01
4.419582309e-01,3.90127e-04,9.99999e-01,9.99871e-01,3.90176e-04,9.99999e-01
4.441680220e-01,4.55564e-04,9.99999e-01,9.99901e-01,4.55609e-04,9.99999e-01
4.463888621e-01,5.30333e-04,9.99999e-01,9.99896e-01,5.30387e-04,9.99999e-01
4.486208064e-01,6.15549e-04,9.99999e-01,9.99935e-01,6.15588e-04,9.99999e-01
4.508639105e-01,7.12356e-04,9.99999e-01,9.99969e-01,7.12377e-04,9.99999e-01
4.531182300e-01,8.22000e-04,9.99999e-01,9.99987e-01,8.22009e-04,9.99999e-01
4.553838212e-01,9.45828e-04,9.99999e-01,9.99991e-01,9.45835e-04,9.99999e-01
4.576607403e-01,1.08530e-03,9.99999e-01,9.99995e-01,1.08530e-03,9.99999e-01
4.599490440e-01,1.24195e-03,9.99999e-01,9.99996e-01,1.24196e-03,9.99999e-01
4.622487892e-01,1.41744e-03,9.99999e-01,9.99999e-01,1.41744e-03,9.99999e-01
4.645600332e-01,1.61350e-03,9.99999e-01,9.99997e-01,1.61350e-03,9.99999e-01
4.668828333e-01,1.83193e-03,9.99999e-01,9.99969e-01,1.83199e-03,9.99999e-01
4.692172475e-01,2.07472e-03,9.99999e-01,9.99935e-01,2.07485e-03,9.99999e-01
4.715633337e-01,2.34404e-03,9.99999e-01,9.99957e-01,2.34414e-03,9.99999e-01
4.739211504e-01,2.64189e-03,9.99999e-01,9.99959e-01,2.64200e-03,9.99999e-01
4.762907561e-01,2.97062e-03,9.99999e-01,9.99978e-01,2.97068e-03,9.99999e-01
4.786722099e-01,3.33249e-03,9.99999e-01,9.99990e-01,3.33252e-03,9.99999e-01
4.810655710e-01,3.72995e-03,9.99999e-01,9.99996e-01,3.72996e-03,9.99999e-01
4.834708988e-01,4.16541e-03,9.99999e-01,9.99974e-01,4.16552e-03,9.99999e-01
4.858882533e-01,4.64159e-03,9.99999e-01,9.99954e-01,4.64180e-03,9.99999e-01
4.883176946e-01,5.16129e-03,9.99999e-01,9.99961e-01,5.16149e-03,9.99999e-01
4.907592831e-01,5.72715e-03,9.99999e-01,9.99965e-01,5.72735e-03,9.99999e-01
4.932130795e-01,6.34204e-03,9.99999e-01,9.99975e-01,6.34219e-03,9.99999e-01
4.956791449e-01,7.00882e-03,9.99999e-01,9.99986e-01,7.00891e-03,9.99999e-01
4.981575406e-01,7.72994e-03,9.99999e-01,9.99934e-01,7.73045e-03,9.99999e-01
5.006483283e-01,8.50833e-03,9.99999e-01,9.99830e-01,8.50977e-03,9.99999e-01
5.031515699e-01,9.34193e-03,9.99999e-01,9.99147e-01,9.34990e-03,9.99999e-01
5.056673278e-01,1.02493e-02,9.99999e-01,9.99550e-01,1.02539e-02,9.99999e-01
5.081956644e-01,1.12184e-02,9.99999e-01,9.99433e-01,1.12248e-02,9.99999e-01
5.107366428e-01,1.22610e-02,9.99999e-01,9.99617e-01,1.22657e-02,9.99999e-01
5.132903260e-01,1.33767e-02,9.99999e-01,9.99781e-01,1.33797e-02,9.99999e-01
5.158567776e-01,1.45684e-02,9.99999e-01,9.99907e-01,1.45698e-02,9.99999e-01
5.184360615e-01,1.58385e-02,9.99999e-01,9.99962e-01,1.58390e-02,9.99999e-01
5.210282418e-01,1.71903e-02,9.99999e-01,9.99985e-01,1.71905e-02,9.99999e-01
5.236333830e-01,1.86261e-02,9.99999e-01,9.99944e-01,1.86271e-02,9.99999e-01
5.262515499e-01,2.01512e-02,9.99999e-01,9.99964e-01,2.01519e-02,9.99999e-01
5.288828077e-01,2.17668e-02,9.99999e-01,9.99967e-01,2.17675e-02,9.99999e-01
5.315272217e-01,2.34763e-02,9.99999e-01,9.99971e-01,2.34769e-02,9.99999e-01
5.341848578e-01,2.52823e-02,9.99999e-01,9.99981e-01,2.52828e-02,9.99999e-01
5.368557821e-01,2.71860e-02,9.99999e-01,9.99934e-01,2.71878e-02,9.99999e-01
5.395400610e-01,2.91875e-02,9.99999e-01,9.99764e-01,2.91943e-02,9.99999e-01
5.422377613e-01,3.12955e-02,9.99999e-01,9.99698e-01,3.13049e-02,9.99999e-01
5.449489501e-01,3.35124e-02,9.99999e-01,9.99718e-01,3.35218e-02,9.99999e-01
5.476736949e-01,3.58384e-02,9.99999e-01,9.99751e-01,3.58473e-02,9.99999e-01
5.504120634e-01,3.82764e-02,9.99999e-01,9.99819e-01,3.82833e-02,9.99999e-01
5.531641237e-01,4.08281e-02,9.99999e-01,9.99909e-01,4.08318e-02,9.99999e-01
5.559299443e-01,4.34926e-02,9.99999e-01,9.99955e-01,4.34945e-02,9.99999e-01
5.587095940e-01,4.62719e-02,9.99999e-01,9.99972e-01,4.62731e-02,9.99999e-01
5.615031420e-01,4.91676e-02,9.99999e-01,9.99968e-01,4.91691e-02,9.99999e-01
5.643106577e-01,5.21818e-02,9.99999e-01,9.99964e-01,5.21836e-02,9.99999e-01
5.671322110e-01,5.52944e-02,9.99999e-01,9.99574e-01,5.53180e-02,9.99999e-01
5.699678720e-01,5.85469e-02,9.99999e-01,9.99553e-01,5.85730e-02,9.99999e-01
5.728177114e-01,6.19207e-02,9.99999e-01,9.99532e-01,6.19496e-02,9.99999e-01
5.756818000e-01,6.54204e-02,9.99999e-01,9.99571e-01,6.54484e-02,9.99999e-01
5.785602090e-01,6.90440e-02,9.99999e-01,9.99627e-01,6.90697e-02,9.99999e-01
5.814530100e-01,7.27867e-02,9.99999e-01,9.99624e-01,7.28140e-02,9.99999e-01
5.843602750e-01,7.66468e-02,9.99999e-01,9.99551e-01,7.66812e-02,9.99999e-01
5.872820764e-01,8.03598e-02,9.99999e-01,9.96138e-01,8.06713e-02,9.99999e-01
5.902184868e-01,8.43895e-02,9.99999e-01,9.95345e-01,8.47840e-02,9.99999e-01
5.931695792e-01,8.87257e-02,9.99999e-01,9.96705e-01,8.90190e-02,9.99999e-01
5.961354271e-01,9.30387e-02,9.99999e-01,9.96392e-01,9.33755e-02,9.99999e-01
5.991161043e-01,9.75955e-02,9.99999e-01,9.97370e-01,9.78528e-02,9.99999e-01
6.021116848e-01,1.02297e-01,9.99999e-01,9.98508e-01,1.02450e-01,9.99999e-01
6.051222432e-01,1.07085e-01,9.99999e-01,9.99244e-01,1.07166e-01,9.99999e-01
6.081478544e-01,1.11963e-01,9.99999e-01,9.99673e-01,1.11999e-01,9.99999e-01
6.111885937e-01,1.16933e-01,9.99999e-01,9.99861e-01,1.16949e-01,9.99999e-01
6.142445367e-01,1.22005e-01,9.99999e-01,9.99938e-01,1.22013e-01,9.99999e-01
6.173157594e-01,1.27185e-01,9.99999e-01,9.99965e-01,1.27189e-01,9.99999e-01
6.204023382e-01,1.32473e-01,9.99999e-01,9.99970e-01,1.32477e-01,9.99999e-01
6.235043498e-01,1.37856e-01,9.99999e-01,9.99871e-01,1.37873e-01,9.99999e-01
6.266218716e-01,1.43280e-01,9.99999e-01,9.99328e-01,1.43376e-01,9.99999e-01
6.297549810e-01,1.48947e-01,9.99999e-01,9.99753e-01,1.48984e-01,9.99999e-01
6.329037559e-01,1.54618e-01,9.99999e-01,9.99513e-01,1.54693e-01,9.99999e-01
6.360682746e-01,1.60436e-01,9.99999e-01,9.99584e-01,1.60502e-01,9.99999e-01
6.392486160e-01,1.66319e-01,9.99999e-01,9.99462e-01,1.66408e-01,9.99999e-01
6.424448591e-01,1.72284e-01,9.99999e-01,9.99277e-01,1.72409e-01,9.99999e-01
6.456570834e-01,1.77903e-01,9.99999e-01,9.96652e-01,1.78500e-01,9.99999e-01
6.488853688e-01,1.84230e-01,9.99999e-01,9.97562e-01,1.84680e-01,9.99999e-01
6.521297956e-01,1.90472e-01,9.99999e-01,9.97515e-01,1.90946e-01,9.99999e-01
6.553904446e-01,1.96805e-01,9.99999e-01,9.97521e-01,1.97294e-01,9.99999e-01
6.586673968e-01,2.03291e-01,9.99999e-01,9.97881e-01,2.03722e-01,9.99999e-01
6.619607338e-01,2.09978e-01,9.99999e-01,9.98819e-01,2.10226e-01,9.99999e-01
6.652705375e-01,2.16649e-01,9.99999e-01,9.99291e-01,2.16803e-01,9.99999e-01
6.685968902e-01,2.23382e-01,9.99999e-01,9.99698e-01,2.23449e-01,9.99999e-01
6.719398746e-01,2.30127e-01,9.99999e-01,9.99847e-01,2.30162e-01,9.99999e-01
6.752995740e-01,2.36919e-01,9.99999e-01,9.99916e-01,2.36939e-01,9.99999e-01
6.786760719e-01,2.43745e-01,9.99999e-01,9.99879e-01,2.43775e-01,9.99999e-01
6.820694522e-01,2.50615e-01,9.99999e-01,9.99794e-01,2.50667e-01,9.99999e-01
6.854797995e-01,2.57544e-01,9.99999e-01,9.99735e-01,2.57612e-01,9.99999e-01
6.889071985e-01,2.64436e-01,9.99999e-01,9.99354e-01,2.64607e-01,9.99999e-01
6.923517345e-01,2.68812e-01,9.99999e-01,9.89560e-01,2.71648e-01,9.99999e-01
6.958134932e-01,2.77232e-01,9.99999e-01,9.94621e-01,2.78731e-01,9.99999e-01
6.992925606e-01,2.84377e-01,9.99999e-01,9.94832e-01,2.85854e-01,9.99999e-01
7.027890234e-01,2.91153e-01,9.99999e-01,9.93650e-01,2.93013e-01,9.99999e-01
7.063029686e-01,2.98601e-01,9.99999e-01,9.94657e-01,3.00205e-01,9.99999e-01
7.098344834e-01,3.05850e-01,9.99999e-01,9.94873e-01,3.07425e-01,9.99999e-01
7.133836558e-01,3.12509e-01,9.99999e-01,9.93125e-01,3.14672e-01,9.99999e-01
7.169505741e-01,3.04593e-01,9.99999e-01,9.46114e-01,3.21941e-01,9.99998e-01
7.205353270e-01,3.20517e-01,9.99999e-01,9.73536e-01,3.29230e-01,9.99998e-01
7.241380036e-01,3.25166e-01,9.99999e-01,9.66219e-01,3.36535e-01,9.99998e-01
7.277586936e-01,3.33359e-01,9.99999e-01,9.69482e-01,3.43853e-01,9.99998e-01
7.313974871e-01,3.39836e-01,9.99999e-01,9.67695e-01,3.51180e-01,9.99999e-01
7.350544745e-01,3.52138e-01,9.99999e-01,9.82214e-01,3.58515e-01,9.99999e-01
7.387297469e-01,3.61057e-01,9.99999e-01,9.86890e-01,3.65853e-01,9.99999e-01
7.424233956e-01,3.70794e-01,9.99999e-01,9.93574e-01,3.73192e-01,9.99999e-01
7.461355126e-01,3.79045e-01,9.99999e-01,9.96098e-01,3.80529e-01,9.99999e-01
7.498661902e-01,3.87157e-01,9.99999e-01,9.98185e-01,3.87861e-01,9.99999e-01
7.536155211e-01,3.94833e-01,9.99999e-01,9.99107e-01,3.95185e-01,9.99999e-01
7.573835987e-01,4.02314e-01,9.99999e-01,9.99540e-01,4.02499e-01,9.99999e-01
7.611705167e-01,4.09683e-01,9.99999e-01,9.99714e-01,4.09800e-01,9.99999e-01
7.649763693e-01,4.17010e-01,9.99999e-01,9.99820e-01,4.17085e-01,9.99999e-01
7.688012511e-01,4.24299e-01,9.99999e-01,9.99874e-01,4.24352e-01,9.99999e-01
7.726452574e-01,4.31554e-01,9.99999e-01,9.99896e-01,4.31598e-01,9.99999e-01
7.765084837e-01,4.38757e-01,9.99999e-01,9.99853e-01,4.38821e-01,9.99999e-01
7.803910261e-01,4.28637e-01,9.61615e-01,9.99366e-01,4.46019e-01,9.99999e-01
7.842929812e-01,3.81756e-01,8.44143e-01,9.97789e-01,4.53189e-01,9.99999e-01
7.882144461e-01,3.82076e-01,8.33614e-01,9.95471e-01,4.60329e-01,9.99999e-01
7.921555184e-01,4.19181e-01,8.98931e-01,9.97521e-01,4.67438e-01,9.99999e-01
7.961162960e-01,4.40035e-01,9.31401e-01,9.95595e-01,4.74512e-01,9.99999e-01
8.000968774e-01,4.60992e-01,9.62168e-01,9.94930e-01,4.81551e-01,9.99999e-01
8.040973618e-01,4.76487e-01,9.80268e-01,9.94924e-01,4.88552e-01,9.99999e-01
8.081178486e-01,4.85378e-01,9.90872e-01,9.88549e-01,4.95514e-01,9.99999e-01
8.121584379e-01,4.77556e-01,9.97188e-01,9.53135e-01,5.02434e-01,9.99998e-01
8.162192301e-01,4.80950e-01,9.99378e-01,9.44889e-01,5.09312e-01,9.99998e-01
8.203003262e-01,5.01637e-01,9.99990e-01,9.71900e-01,5.16145e-01,9.99998e-01
8.244018279e-01,5.02776e-01,9.99999e-01,9.61457e-01,5.22932e-01,9.99998e-01
8.285238370e-01,5.12003e-01,9.99999e-01,9.66642e-01,5.29671e-01,9.99998e-01
8.326664562e-01,5.18317e-01,9.99999e-01,9.66357e-01,5.36362e-01,9.99999e-01
8.368297885e-01,5.29908e-01,9.99999e-01,9.75885e-01,5.43002e-01,9.99999e-01
8.410139374e-01,5.41684e-01,9.99999e-01,9.85610e-01,5.49591e-01,9.99999e-01
8.452190071e-01,5.52194e-01,9.99999e-01,9.92925e-01,5.56128e-01,9.99999e-01
8.494451021e-01,5.60295e-01,9.99999e-01,9.95883e-01,5.62611e-01,9.99999e-01
8.536923276e-01,5.67656e-01,9.99999e-01,9.97568e-01,5.69039e-01,9.99999e-01
8.579607893e-01,5.74549e-01,9.99999e-01,9.98499e-01,5.75412e-01,9.99999e-01
8.622505932e-01,5.81174e-01,9.99999e-01,9.99047e-01,5.81728e-01,9.99999e-01
8.665618462e-01,5.39709e-01,9.18412e-01,9.99409e-01,5.87986e-01,9.99999e-01
8.708946554e-01,3.86075e-01,6.50175e-01,9.99323e-01,5.94186e-01,9.99999e-01
8.752491287e-01,4.23967e-01,7.06844e-01,9.99095e-01,6.00328e-01,9.99999e-01
8.796253743e-01,5.00434e-01,8.26243e-01,9.98745e-01,6.06409e-01,9.99999e-01
8.840235012e-01,5.53868e-01,9.05653e-01,9.98567e-01,6.12430e-01,9.99999e-01
8.884436187e-01,5.91648e-01,9.61767e-01,9.94730e-01,6.18390e-01,9.99999e-01
8.928858368e-01,5.81493e-01,9.84321e-01,9.46138e-01,6.24289e-01,9.99998e-01
8.973502660e-01,5.69474e-01,9.96183e-01,9.07130e-01,6.30126e-01,9.99998e-01
9.018370173e-01,6.04912e-01,9.99579e-01,9.51654e-01,6.35901e-01,9.99998e-01
9.063462024e-01,6.07520e-01,9.89051e-01,9.56978e-01,6.41612e-01,9.99997e-01
9.108779334e-01,5.89767e-01,9.75341e-01,9.33890e-01,6.47261e-01,9.99997e-01
9.154323231e-01,6.00666e-01,9.94192e-01,9.25318e-01,6.52847e-01,9.99997e-01
9.200094847e-01,5.70939e-01,9.18226e-01,9.41103e-01,6.58369e-01,9.99997e-01
9.246095321e-01,5.35055e-01,8.84929e-01,9.08592e-01,6.63827e-01,9.99995e-01
9.292325798e-01,3.26228e-01,9.08229e-01,5.30743e-01,6.69221e-01,9.99990e-01
9.338787427e-01,2.75937e-01,9.11570e-01,4.44006e-01,6.74551e-01,9.99987e-01
9.385481364e-01,4.59610e-01,9.34174e-01,7.20590e-01,6.79818e-01,9.99987e-01
9.432408771e-01,4.17527e-01,9.59223e-01,6.33816e-01,6.85020e-01,9.99986e-01
9.479570815e-01,3.61599e-01,9.78843e-01,5.34574e-01,6.90158e-01,9.99987e-01
9.526968669e-01,4.30287e-01,9.89757e-01,6.24702e-01,6.95232e-01,9.99990e-01
9.574603512e-01,4.50958e-01,9.95609e-01,6.46637e-01,7.00242e-01,9.99992e-01
9.622476530e-01,4.93858e-01,9.98629e-01,7.01222e-01,7.05187e-01,9.99995e-01
9.670588912e-01,5.78268e-01,9.99589e-01,8.14698e-01,7.10070e-01,9.99996e-01
9.718941857e-01,6.28677e-01,9.99970e-01,8.79429e-01,7.14888e-01,9.99997e-01
9.767536566e-01,6.46824e-01,9.99999e-01,8.98812e-01,7.19643e-01,9.99998e-01
9.816374249e-01,6.69337e-01,9.99999e-01,9.24071e-01,7.24335e-01,9.99998e-01
9.865456120e-01,6.93877e-01,9.99999e-01,9.51867e-01,7.28964e-01,9.99999e-01
9.914783401e-01,7.11496e-01,9.99999e-01,9.69961e-01,7.33530e-01,9.99999e-01
9.964357318e-01,7.25881e-01,9.99999e-01,9.83533e-01,7.38034e-01,9.99999e-01
1.001417910e+00,7.35126e-01,9.99999e-01,9.90101e-01,7.42475e-01,9.99999e-01
1.006425000e+00,7.42629e-01,9.99999e-01,9.94340e-01,7.46855e-01,9.99999e-01
1.011457125e+00,7.48536e-01,9.99999e-01,9.96488e-01,7.51174e-01,9.99999e-01
1.016514411e+00,7.53628e-01,9.99999e-01,9.97613e-01,7.55431e-01,9.99999e-01
1.021596983e+00,7.58135e-01,9.99936e-01,9.98097e-01,7.59628e-01,9.99999e-01
1.026704968e+00,7.59358e-01,9.95706e-01,9.98515e-01,7.63764e-01,9.99999e-01
1.031838492e+00,7.28638e-01,9.49932e-01,9.98921e-01,7.67840e-01,9.99999e-01
1.036997685e+00,1.04541e-01,1.35510e-01,9.99358e-01,7.71858e-01,9.99999e-01
1.042182673e+00,7.28017e-02,9.39018e-02,9.99233e-01,7.75816e-01,9.99999e-01
1.047393587e+00,9.10383e-02,1.16862e-01,9.98985e-01,7.79715e-01,9.99999e-01
1.052630555e+00,1.72927e-03,2.20917e-03,9.98606e-01,7.83557e-01,9.99999e-01
1.057893707e+00,4.72856e-03,6.01493e-03,9.97673e-01,7.87341e-01,9.99999e-01
1.063183176e+00,1.79374e-02,2.27357e-02,9.96175e-01,7.91068e-01,9.99999e-01
1.068499092e+00,5.55437e-02,7.02600e-02,9.93607e-01,7.94739e-01,9.99999e-01
1.073841587e+00,1.48197e-01,1.86805e-01,9.92513e-01,7.98354e-01,9.99999e-01
1.079210795e+00,2.74691e-01,3.45527e-01,9.90433e-01,8.01913e-01,9.99999e-01
1.084606849e+00,4.42191e-01,5.56664e-01,9.85536e-01,8.05417e-01,9.99999e-01
1.090029883e+00,5.84501e-01,7.37476e-01,9.79219e-01,8.08867e-01,9.99998e-01
1.095480033e+00,6.60761e-01,8.60745e-01,9.44437e-01,8.12263e-01,9.99998e-01
1.100957433e+00,6.56758e-01,9.30265e-01,8.64870e-01,8.15606e-01,9.99997e-01
1.106462220e+00,5.50837e-01,9.70574e-01,6.92219e-01,8.18897e-01,9.99994e-01
1.111994531e+00,3.77636e-01,9.88990e-01,4.64044e-01,8.22135e-01,9.99988e-01
1.117554504e+00,2.39447e-01,9.97309e-01,2.90753e-01,8.25321e-01,9.99984e-01
1.123142276e+00,3.38759e-01,9.99823e-01,4.08942e-01,8.28457e-01,9.99981e-01
1.128757988e+00,4.64926e-01,9.99999e-01,5.59123e-01,8.31542e-01,9.99979e-01
1.134401778e+00,2.55431e-01,9.99999e-01,3.06067e-01,8.34578e-01,9.99977e-01
1.140073787e+00,5.90197e-01,9.99999e-01,7.04670e-01,8.37564e-01,9.99981e-01
1.145774156e+00,4.08326e-01,9.99999e-01,4.85819e-01,8.40502e-01,9.99984e-01
1.151503026e+00,3.78224e-01,9.99999e-01,4.48461e-01,8.43391e-01,9.99986e-01
1.157260541e+00,4.29967e-01,9.99999e-01,5.08099e-01,8.46233e-01,9.99989e-01
1.163046844e+00,5.14532e-01,9.99999e-01,6.06027e-01,8.49029e-01,9.99993e-01
1.168862078e+00,6.00669e-01,9.99999e-01,7.05196e-01,8.51778e-01,9.99996e-01
1.174706389e+00,6.88736e-01,9.99999e-01,8.06028e-01,8.54481e-01,9.99997e-01
1.180579921e+00,7.51633e-01,9.99999e-01,8.76908e-01,8.57140e-01,9.99998e-01
1.186482820e+00,7.98189e-01,9.99990e-01,9.28400e-01,8.59754e-01,9.99998e-01
1.192415234e+00,8.13284e-01,9.84751e-01,9.57549e-01,8.62324e-01,9.99998e-01
1.198377311e+00,4.67741e-01,5.57615e-01,9.64069e-01,8.64850e-01,9.99998e-01
1.204369197e+00,2.10606e-12,2.47721e-12,9.65991e-01,8.67334e-01,9.99998e-01
1.210391043e+00,7.68139e-46,8.99519e-46,9.67453e-01,8.69776e-01,9.99999e-01
1.216442998e+00,7.32690e-40,8.54823e-40,9.72278e-01,8.72176e-01,9.99999e-01
1.222525213e+00,2.78460e-39,3.22020e-39,9.78341e-01,8.74536e-01,9.99999e-01
1.228637839e+00,1.97780e-30,2.27932e-30,9.84907e-01,8.76855e-01,9.99999e-01
1.234781029e+00,1.35755e-19,1.55174e-19,9.88778e-01,8.79134e-01,9.99999e-01
1.240954934e+00,3.33600e-13,3.80245e-13,9.92887e-01,8.81373e-01,9.99999e-01
1.247159708e+00,3.25334e-07,3.69424e-07,9.94460e-01,8.83574e-01,9.99999e-01
1.253395507e+00,1.08064e-04,1.22452e-04,9.95076e-01,8.85737e-01,9.99999e-01
1.259662485e+00,5.02843e-03,5.68460e-03,9.95317e-01,8.87863e-01,9.99999e-01
1.265960797e+00,4.49912e-02,5.08505e-02,9.92535e-01,8.89951e-01,9.99999e-01
1.272290601e+00,2.47174e-01,2.80073e-01,9.88275e-01,8.92003e-01,9.99999e-01
1.278652054e+00,2.07666e-01,2.36564e-01,9.76822e-01,8.94019e-01,9.99999e-01
1.285045314e+00,3.34337e-03,3.79980e-03,9.58323e-01,8.95999e-01,9.99998e-01
1.291470541e+00,4.60078e-06,5.37045e-06,9.28502e-01,8.97945e-01,9.99998e-01
1.297927893e+00,5.33299e-03,6.24680e-03,8.99839e-01,8.99856e-01,9.99996e-01
1.304417533e+00,7.92640e-02,9.81204e-02,8.83189e-01,9.01734e-01,9.99994e-01
1.310939621e+00,1.32633e-02,1.59480e-02,8.54683e-01,9.03578e-01,9.99991e-01
1.317494319e+00,2.41437e-16,2.91774e-16,8.57237e-01,9.05389e-01,9.99986e-01
1.324081790e+00,3.54912e-11,4.36235e-11,7.94054e-01,9.07169e-01,9.99977e-01
1.330702199e+00,8.89873e-07,1.51510e-06,4.13058e-01,9.08916e-01,9.99962e-01
1.337355710e+00,4.81277e-07,2.36922e-06,1.01163e-01,9.10632e-01,9.99929e-01
1.344042489e+00,7.42316e-08,7.33386e-07,5.19711e-03,9.12318e-01,9.99849e-01
1.350762701e+00,4.33766e-11,9.21185e-07,1.15543e-05,9.13973e-01,9.99759e-01
1.357516515e+00,6.98851e-11,1.46479e-04,9.57852e-08,9.15598e-01,9.99701e-01
1.364304097e+00,2.10869e-07,2.96934e-03,3.39332e-05,9.17194e-01,9.99680e-01
1.371125618e+00,7.94706e-05,4.87171e-02,1.02057e-03,9.18762e-01,9.99677e-01
1.377981246e+00,2.73946e-04,8.22217e-02,2.65417e-03,9.20300e-01,9.99653e-01
1.384871152e+00,1.65165e-05,2.33795e-01,5.88469e-05,9.21811e-01,9.99663e-01
1.391795508e+00,1.40199e-05,2.61198e-01,4.42888e-05,9.23295e-01,9.99714e-01
1.398754485e+00,1.15802e-04,4.35967e-01,2.64568e-04,9.24752e-01,9.99754e-01
1.405748258e+00,1.31715e-04,5.43266e-01,2.34878e-04,9.26182e-01,9.99780e-01
1.412776999e+00,1.63517e-04,6.80027e-01,2.37501e-04,9.27586e-01,9.99823e-01
1.419840884e+00,3.01986e-04,6.06861e-01,4.27263e-04,9.28964e-01,9.99867e-01
1.426940089e+00,7.30147e-04,5.08824e-02,2.34241e-03,9.30317e-01,9.99918e-01
1.434074789e+00,0.00000e+00,0.00000e+00,9.70236e-03,9.31645e-01,9.99948e-01
1.441245163e+00,0.00000e+00,0.00000e+00,2.62047e-02,9.32949e-01,9.99960e-01
1.448451389e+00,0.00000e+00,0.00000e+00,7.68231e-02,9.34229e-01,9.99966e-01
1.455693646e+00,0.00000e+00,0.00000e+00,1.79201e-01,9.35485e-01,9.99972e-01
1.462972114e+00,1.49195e-179,3.97270e-179,2.24523e-01,9.36718e-01,9.99976e-01
1.470286975e+00,1.80133e-75,5.15018e-75,1.75935e-01,9.37929e-01,9.99978e-01
