#,Wave/freq,Total,CO2,H2O,Rayleigh,CIA
4.000000000e-01,9.18155e-06,9.99999e-01,9.99976e-01,9.18176e-06,9.99999e-01
4.020000000e-01,1.15483e-05,9.99999e-01,9.99985e-01,1.15485e-05,9.99999e-01
4.040100000e-01,1.44561e-05,9.99999e-01,9.99993e-01,1.44562e-05,9.99999e-01
4.060300500e-01,1.80158e-05,9.99999e-01,9.99998e-01,1.80158e-05,9.99999e-01
4.080602003e-01,2.23546e-05,9.99999e-01,9.99999e-01,2.23546e-05,9.99999e-01
4.101005013e-01,2.76203e-05,9.99999e-01,9.99999e-01,2.76203e-05,9.99999e-01
4.121510038e-01,3.39840e-05,9.99999e-01,9.99998e-01,3.39840e-05,9.99999e-01
4.142117588e-01,4.16429e-05,9.99999e-01,9.99993e-01,4.16431e-05,9.99999e-01
4.162828176e-01,5.08225e-05,9.99999e-01,9.99971e-01,5.08239e-05,9.99999e-01
4.183642317e-01,6.17841e-05,9.99999e-01,9.99982e-01,6.17851e-05,9.99999e-01
4.204560528e-01,7.48204e-05,9.99999e-01,9.99989e-01,7.48212e-05,9.99999e-01
4.225583331e-01,9.02653e-05,9.99999e-01,9.99995e-01,9.02657e-05,9.99999e-01
4.246711247e-01,1.08495e-04,9.99999e-01,9.99996e-01,1.08495e-04,9.99999e-01
4.267944804e-01,1.29933e-04,9.99999e-01,9.99994e-01,1.29934e-04,9.99999e-01
4.289284528e-01,1.55054e-04,9.99999e-01,9.99996e-01,1.55055e-04,9.99999e-01
4.310730950e-01,1.84388e-04,9.99999e-01,9.99998e-01,1.84388e-04,9.99999e-01
4.332284605e-01,2.18521e-04,9.99999e-01,9.99999e-01,2.18521e-04,9.99999e-01
4.353946028e-01,2.58106e-04,9.99999e-01,9.99999e-01,2.58106e-04,9.99999e-01
4.375715758e-01,3.03859e-04,9.99999e-01,9.99996e-01,3.03860e-04,9.99999e-01
4.397594337e-01,3.56565e-04,9.99999e-01,9.99975e-01,3.56574e-04,9.99999e-01
4.419582309e-01,4.17061e-04,9.99999e-01,9.99876e-01,4.17112e-04,9.99999e-01
4.441680220e-01,4.86372e-04,9.99999e-01,9.99900e-01,4.86420e-04,9.99999e-01
4.463888621e-01,5.65466e-04,9.99999e-01,9.99897e-01,5.65524e-04,9.99999e-01
4.486208064e-01,6.55497e-04,9.99999e-01,9.99935e-01,6.55539e-04,9.99999e-01
4.508639105e-01,7.57644e-04,9.99999e-01,9.99969e-01,7.57667e-04,9.99999e-01
4.531182300e-01,8.73195e-04,9.99999e-01,9.99987e-01,8.73205e-04,9.99999e-01
4.553838212e-01,1.00354e-03,9.99999e-01,9.99991e-01,1.00355e-03,9.99999e-01
4.576607403e-01,1.15017e-03,9.99999e-01,9.99995e-01,1.15018e-03,9.99999e-01
4.599490440e-01,1.31468e-03,9.99999e-01,9.99996e-01,1.31468e-03,9.99999e-01
4.622487892e-01,1.49876e-03,9.99999e-01,9.99999e-01,1.49876e-03,9.99999e-01
4.645600332e-01,1.70419e-03,9.99999e-01,9.99997e-01,1.70419e-03,9.99999e-01
4.668828333e-01,1.93281e-03,9.99999e-01,9.99969e-01,1.93287e-03,9.99999e-01
4.692172475e-01,2.18665e-03,9.99999e-01,9.99935e-01,2.18679e-03,9.99999e-01
4.715633337e-01,2.46794e-03,9.99999e-01,9.99957e-01,2.46804e-03,9.99999e-01
4.739211504e-01,2.77870e-03,9.99999e-01,9.99959e-01,2.77881e-03,9.99999e-01
4.762907561e-01,3.12134e-03,9.99999e-01,9.99978e-01,3.12140e-03,9.99999e-01
4.786722099e-01,3.49815e-03,9.99999e-01,9.99990e-01,3.49818e-03,9.99999e-01
4.810655710e-01,3.91162e-03,9.99999e-01,9.99996e-01,3.91163e-03,9.99999e-01
4.834708988e-01,4.36419e-03,9.99999e-01,9.99975e-01,4.36430e-03,9.99999e-01
4.858882533e-01,4.85861e-03,9.99999e-01,9.99954e-01,4.85883e-03,9.99999e-01
4.883176946e-01,5.39774e-03,9.99999e-01,9.99961e-01,5.39795e-03,9.99999e-01
4.907592831e-01,5.98422e-03,9.99999e-01,9.99965e-01,5.98443e-03,9.99999e-01
4.932130795e-01,6.62097e-03,9.99999e-01,9.99975e-01,6.62113e-03,9.99999e-01
4.956791449e-01,7.31086e-03,9.99999e-01,9.99986e-01,7.31095e-03,9.99999e-01
4.981575406e-01,8.05634e-03,9.99999e-01,9.99935e-01,8.05686e-03,9.99999e-01
5.006483283e-01,8.86039e-03,9.99999e-01,9.99835e-01,8.86185e-03,9.99999e-01
5.031515699e-01,9.72075e-03,9.99999e-01,9.99157e-01,9.72894e-03,9.99999e-01
5.056673278e-01,1.06565e-02,9.99999e-01,9.99553e-01,1.06612e-02,9.99999e-01
5.081956644e-01,1.16551e-02,9.99999e-01,9.99436e-01,1.16617e-02,9.99999e-01
5.107366428e-01,1.27287e-02,9.99999e-01,9.99619e-01,1.27335e-02,9.99999e-01
5.132903260e-01,1.38767e-02,9.99999e-01,9.99781e-01,1.38797e-02,9.99999e-01
5.158567776e-01,1.51019e-02,9.99999e-01,9.99907e-01,1.51033e-02,9.99999e-01
5.184360615e-01,1.64068e-02,9.99999e-01,9.99962e-01,1.64074e-02,9.99999e-01
5.210282418e-01,1.77948e-02,9.99999e-01,9.99985e-01,1.77950e-02,9.99999e-01
5.236333830e-01,1.92679e-02,9.99999e-01,9.99944e-01,1.92690e-02,9.99999e-01
5.262515499e-01,2.08316e-02,9.99999e-01,9.99965e-01,2.08323e-02,9.99999e-01
5.288828077e-01,2.24871e-02,9.99999e-01,9.99968e-01,2.24878e-02,9.99999e-01
5.315272217e-01,2.42375e-02,9.99999e-01,9.99971e-01,2.42381e-02,9.99999e-01
5.341848578e-01,2.60857e-02,9.99999e-01,9.99981e-01,2.60861e-02,9.99999e-01
5.368557821e-01,2.80325e-02,9.99999e-01,9.99935e-01,2.80343e-02,9.99999e-01
5.395400610e-01,3.00782e-02,9.99999e-01,9.99771e-01,3.00851e-02,9.99999e-01
5.422377613e-01,3.22313e-02,9.99999e-01,9.99699e-01,3.22409e-02,9.99999e-01
5.449489501e-01,3.44945e-02,9.99999e-01,9.99723e-01,3.45041e-02,9.99999e-01
5.476736949e-01,3.68675e-02,9.99999e-01,9.99752e-01,3.68766e-02,9.99999e-01
5.504120634e-01,3.93535e-02,9.99999e-01,9.99820e-01,3.93606e-02,9.99999e-01
5.531641237e-01,4.19540e-02,9.99999e-01,9.99909e-01,4.19578e-02,9.99999e-01
5.559299443e-01,4.46680e-02,9.99999e-01,9.99955e-01,4.46699e-02,9.99999e-01
5.587095940e-01,4.74973e-02,9.99999e-01,9.99972e-01,4.74986e-02,9.99999e-01
5.615031420e-01,5.04436e-02,9.99999e-01,9.99969e-01,5.04452e-02,9.99999e-01
5.643106577e-01,5.35091e-02,9.99999e-01,9.99965e-01,5.35109e-02,9.99999e-01
5.671322110e-01,5.66736e-02,9.99999e-01,9.99591e-01,5.66968e-02,9.99999e-01
5.699678720e-01,5.99769e-02,9.99999e-01,9.99551e-01,6.00038e-02,9.99999e-01
5.728177114e-01,6.34034e-02,9.99999e-01,9.99538e-01,6.34326e-02,9.99999e-01
5.756818000e-01,6.69554e-02,9.99999e-01,9.99575e-01,6.69838e-02,9.99999e-01
5.785602090e-01,7.06316e-02,9.99999e-01,9.99628e-01,7.06578e-02,9.99999e-01
5.814530100e-01,7.44270e-02,9.99999e-01,9.99628e-01,7.44547e-02,9.99999e-01
5.843602750e-01,7.83402e-02,9.99999e-01,9.99561e-01,7.83745e-02,9.99999e-01
5.872820764e-01,8.21054e-02,9.99999e-01,9.96216e-01,8.24172e-02,9.99999e-01
5.902184868e-01,8.61814e-02,9.99999e-01,9.95370e-01,8.65823e-02,9.99999e-01
5.931695792e-01,9.05730e-02,9.99999e-01,9.96738e-01,9.08693e-02,9.99999e-01
5.961354271e-01,9.49363e-02,9.99999e-01,9.96416e-01,9.52777e-02,9.99999e-01
5.991161043e-01,9.95453e-02,9.99999e-01,9.97382e-01,9.98065e-02,9.99999e-01
6.021116848e-01,1.04299e-01,9.99999e-01,9.98511e-01,1.04455e-01,9.99999e-01
6.051222432e-01,1.09139e-01,9.99999e-01,9.99246e-01,1.09221e-01,9.99999e-01
6.081478544e-01,1.14067e-01,9.99999e-01,9.99675e-01,1.14104e-01,9.99999e-01
6.111885937e-01,1.19087e-01,9.99999e-01,9.99861e-01,1.19103e-01,9.99999e-01
6.142445367e-01,1.24208e-01,9.99999e-01,9.99938e-01,1.24215e-01,9.99999e-01
6.173157594e-01,1.29435e-01,9.99999e-01,9.99965e-01,1.29440e-01,9.99999e-01
6.204023382e-01,1.34770e-01,9.99999e-01,9.99971e-01,1.34774e-01,9.99999e-01
6.235043498e-01,1.40199e-01,9.99999e-01,9.99876e-01,1.40216e-01,9.99999e-01
6.266218716e-01,1.45668e-01,9.99999e-01,9.99335e-01,1.45765e-01,9.99999e-01
6.297549810e-01,1.51379e-01,9.99999e-01,9.99755e-01,1.51416e-01,9.99999e-01
6.329037559e-01,1.57093e-01,9.99999e-01,9.99516e-01,1.57168e-01,9.99999e-01
6.360682746e-01,1.62953e-01,9.99999e-01,9.99590e-01,1.63019e-01,9.99999e-01
6.392486160e-01,1.68876e-01,9.99999e-01,9.99467e-01,1.68966e-01,9.99999e-01
6.424448591e-01,1.74894e-01,9.99999e-01,9.99362e-01,1.75006e-01,9.99999e-01
6.456570834e-01,1.80547e-01,9.99999e-01,9.96751e-01,1.81136e-01,9.99999e-01
6.488853688e-01,1.86819e-01,9.99999e-01,9.97148e-01,1.87353e-01,9.99999e-01
6.521297956e-01,1.93175e-01,9.99999e-01,9.97527e-01,1.93654e-01,9.99999e-01
6.553904446e-01,1.99549e-01,9.99999e-01,9.97559e-01,2.00037e-01,9.99999e-01
6.586673968e-01,2.06062e-01,9.99999e-01,9.97888e-01,2.06497e-01,9.99999e-01
6.619607338e-01,2.12773e-01,9.99999e-01,9.98779e-01,2.13033e-01,9.99999e-01
6.652705375e-01,2.19485e-01,9.99999e-01,9.99291e-01,2.19640e-01,9.99999e-01
6.685968902e-01,2.26241e-01,9.99999e-01,9.99670e-01,2.26316e-01,9.99999e-01
6.719398746e-01,2.33021e-01,9.99999e-01,9.99846e-01,2.33056e-01,9.99999e-01
6.752995740e-01,2.39839e-01,9.99999e-01,9.99917e-01,2.39858e-01,9.99999e-01
6.786760719e-01,2.46690e-01,9.99999e-01,9.99881e-01,2.46719e-01,9.99999e-01
6.820694522e-01,2.53583e-01,9.99999e-01,9.99797e-01,2.53634e-01,9.99999e-01
6.854797995e-01,2.60533e-01,9.99999e-01,9.99738e-01,2.60601e-01,9.99999e-01
6.889071985e-01,2.67450e-01,9.99999e-01,9.99378e-01,2.67616e-01,9.99999e-01
6.923517345e-01,2.71863e-01,9.99999e-01,9.89761e-01,2.74676e-01,9.99999e-01
6.958134932e-01,2.80240e-01,9.99999e-01,9.94547e-01,2.81776e-01,9.99999e-01
6.992925606e-01,2.87451e-01,9.99999e-01,9.94930e-01,2.88915e-01,9.99999e-01
7.027890234e-01,2.94219e-01,9.99999e-01,9.93687e-01,2.96088e-01,9.99999e-01
7.063029686e-01,3.01684e-01,9.99999e-01,9.94696e-01,3.03293e-01,9.99999e-01
7.098344834e-01,3.08945e-01,9.99999e-01,9.94910e-01,3.10525e-01,9.99999e-01
7.133836558e-01,3.15659e-01,9.99999e-01,9.93319e-01,3.17782e-01,9.99999e-01
7.169505741e-01,3.07848e-01,9.99999e-01,9.47051e-01,3.25060e-01,9.99998e-01
7.205353270e-01,3.23450e-01,9.99999e-01,9.73205e-01,3.32356e-01,9.99998e-01
7.241380036e-01,3.28341e-01,9.99999e-01,9.66657e-01,3.39666e-01,9.99998e-01
7.277586936e-01,3.36521e-01,9.99999e-01,9.69832e-01,3.46989e-01,9.99998e-01
7.313974871e-01,3.42885e-01,9.99999e-01,9.67728e-01,3.54320e-01,9.99999e-01
7.350544745e-01,3.55250e-01,9.99999e-01,9.82285e-01,3.61656e-01,9.99999e-01
7.387297469e-01,3.64172e-01,9.99999e-01,9.86927e-01,3.68995e-01,9.99999e-01
7.424233956e-01,3.73913e-01,9.99999e-01,9.93567e-01,3.76334e-01,9.99999e-01
7.461355126e-01,3.82175e-01,9.99999e-01,9.96105e-01,3.83669e-01,9.99999e-01
7.498661902e-01,3.90286e-01,9.99999e-01,9.98179e-01,3.90998e-01,9.99999e-01
7.536155211e-01,3.97964e-01,9.99999e-01,9.99109e-01,3.98318e-01,9.99999e-01
7.573835987e-01,4.05441e-01,9.99999e-01,9.99541e-01,4.05627e-01,9.99999e-01
7.611705167e-01,4.12803e-01,9.99999e-01,9.99714e-01,4.12921e-01,9.99999e-01
7.649763693e-01,4.20124e-01,9.99999e-01,9.99821e-01,4.20199e-01,9.99999e-01
7.688012511e-01,4.27404e-01,9.99999e-01,9.99875e-01,4.27457e-01,9.99999e-01
7.726452574e-01,4.34649e-01,9.99999e-01,9.99897e-01,4.34693e-01,9.99999e-01
7.765084837e-01,4.41842e-01,9.99999e-01,9.99856e-01,4.41906e-01,9.99999e-01
7.803910261e-01,4.32850e-01,9.64409e-01,9.99380e-01,4.49092e-01,9.99999e-01
7.842929812e-01,3.84310e-01,8.44048e-01,9.97839e-01,4.56250e-01,9.99999e-01
7.882144461e-01,3.85344e-01,8.35187e-01,9.95510e-01,4.63377e-01,9.99999e-01
7.921555184e-01,4.22421e-01,9.00040e-01,9.97522e-01,4.70471e-01,9.99999e-01
7.961162960e-01,4.42839e-01,9.31335e-01,9.95677e-01,4.77530e-01,9.99999e-01
8.000968774e-01,4.63923e-01,9.62240e-01,9.94976e-01,4.84553e-01,9.99999e-01
8.040973618e-01,4.79378e-01,9.80168e-01,9.94983e-01,4.91538e-01,9.99999e-01
8.081178486e-01,4.88419e-01,9.90891e-01,9.88800e-01,4.98482e-01,9.99999e-01
8.121584379e-01,4.80770e-01,9.97152e-01,9.53981e-01,5.05384e-01,9.99998e-01
8.162192301e-01,4.83771e-01,9.99370e-01,9.44999e-01,5.12243e-01,9.99998e-01
8.203003262e-01,5.04905e-01,9.99988e-01,9.72746e-01,5.19056e-01,9.99998e-01
8.244018279e-01,5.05344e-01,9.99999e-01,9.61053e-01,5.25823e-01,9.99998e-01
8.285238370e-01,5.14997e-01,9.99999e-01,9.67054e-01,5.32542e-01,9.99998e-01
8.326664562e-01,5.21173e-01,9.99999e-01,9.66547e-01,5.39211e-01,9.99999e-01
8.368297885e-01,5.32705e-01,9.99999e-01,9.75955e-01,5.45830e-01,9.99999e-01
8.410139374e-01,5.44465e-01,9.99999e-01,9.85641e-01,5.52397e-01,9.99999e-01
8.452190071e-01,5.54958e-01,9.99999e-01,9.92927e-01,5.58910e-01,9.99999e-01
8.494451021e-01,5.63057e-01,9.99999e-01,9.95908e-01,5.65370e-01,9.99999e-01
8.536923276e-01,5.70385e-01,9.99999e-01,9.97569e-01,5.71775e-01,9.99999e-01
8.579607893e-01,5.77261e-01,9.99999e-01,9.98508e-01,5.78123e-01,9.99999e-01
8.622505932e-01,5.83859e-01,9.99999e-01,9.99049e-01,5.84414e-01,9.99999e-01
8.665618462e-01,5.45075e-01,9.23360e-01,9.99414e-01,5.90648e-01,9.99999e-01
8.708946554e-01,3.89173e-01,6.52493e-01,9.99331e-01,5.96823e-01,9.99999e-01
8.752491287e-01,4.26048e-01,7.07231e-01,9.99104e-01,6.02939e-01,9.99999e-01
8.796253743e-01,5.02529e-01,8.26165e-01,9.98764e-01,6.08994e-01,9.99999e-01
8.840235012e-01,5.56215e-01,9.05687e-01,9.98587e-01,6.14989e-01,9.99999e-01
8.884436187e-01,5.94048e-01,9.61515e-01,9.94955e-01,6.20923e-01,9.99999e-01
8.928858368e-01,5.84517e-01,9.84282e-01,9.47296e-01,6.26796e-01,9.99998e-01
8.973502660e-01,5.72054e-01,9.96132e-01,9.07713e-01,6.32606e-01,9.99998e-01
9.018370173e-01,6.07077e-01,9.99571e-01,9.51397e-01,6.38354e-01,9.99998e-01
9.063462024e-01,6.10624e-01,9.89488e-01,9.57836e-01,6.44039e-01,9.99997e-01
9.108779334e-01,5.92445e-01,9.75362e-01,9.34648e-01,6.49660e-01,9.99997e-01
9.154323231e-01,6.03194e-01,9.94100e-01,9.25934e-01,6.55219e-01,9.99997e-01
9.200094847e-01,5.74464e-01,9.20418e-01,9.41355e-01,6.60713e-01,9.99997e-01
9.246095321e-01,5.38954e-01,8.85216e-01,9.11837e-01,6.66144e-01,9.99995e-01
9.292325798e-01,3.31434e-01,9.09964e-01,5.36667e-01,6.71511e-01,9.99990e-01
9.338787427e-01,2.77327e-01,9.11854e-01,4.44597e-01,6.76814e-01,9.99987e-01
9.385481364e-01,4.61284e-01,9.34428e-01,7.20646e-01,6.82053e-01,9.99987e-01
9.432408771e-01,4.21847e-01,9.59161e-01,6.38391e-01,6.87227e-01,9.99986e-01
9.479570815e-01,3.66280e-01,9.78910e-01,5.39787e-01,6.92338e-01,9.99987e-01
9.526968669e-01,4.32404e-01,9.89756e-01,6.25832e-01,6.97384e-01,9.99990e-01
9.574603512e-01,4.53631e-01,9.95604e-01,6.48506e-01,7.02367e-01,9.99992e-01
9.622476530e-01,4.95692e-01,9.98625e-01,7.01741e-01,7.07286e-01,9.99995e-01
9.670588912e-01,5.80515e-01,9.99586e-01,8.15489e-01,7.12140e-01,9.99996e-01
9.718941857e-01,6.31064e-01,9.99969e-01,8.80253e-01,7.16932e-01,9.99997e-01
9.767536566e-01,6.49183e-01,9.99999e-01,8.99569e-01,7.21660e-01,9.99998e-01
9.816374249e-01,6.71380e-01,9.99999e-01,9.24352e-01,7.26325e-01,9.99998e-01
9.865456120e-01,6.95859e-01,9.99999e-01,9.52023e-01,7.30927e-01,9.99999e-01
9.914783401e-01,7.13469e-01,9.99999e-01,9.70090e-01,7.35466e-01,9.99999e-01
9.964357318e-01,7.27805e-01,9.99999e-01,9.83595e-01,7.39943e-01,9.99999e-01
1.001417910e+00,7.37015e-01,9.99999e-01,9.90134e-01,7.44358e-01,9.99999e-01
1.006425000e+00,7.44503e-01,9.99999e-01,9.94378e-01,7.48712e-01,9.99999e-01
1.011457125e+00,7.50366e-01,9.99999e-01,9.96496e-01,7.53004e-01,9.99999e-01
1.016514411e+00,7.55437e-01,9.99999e-01,9.97625e-01,7.57235e-01,9.99999e-01
1.021596983e+00,7.59928e-01,9.99949e-01,9.98108e-01,7.61406e-01,9.99999e-01
1.026704968e+00,7.61257e-01,9.95901e-01,9.98525e-01,7.65517e-01,9.99999e-01
1.031838492e+00,7.34826e-01,9.55851e-01,9.98925e-01,7.69568e-01,9.99999e-01
1.036997685e+00,1.08102e-01,1.39816e-01,9.99363e-01,7.73559e-01,9.99999e-01
1.042182673e+00,7.34274e-02,9.45039e-02,9.99243e-01,7.77492e-01,9.99999e-01
1.047393587e+00,9.43126e-02,1.20809e-01,9.98995e-01,7.81367e-01,9.99999e-01
1.052630555e+00,1.82464e-03,2.32615e-03,9.98623e-01,7.85184e-01,9.99999e-01
1.057893707e+00,4.81002e-03,6.10593e-03,9.97706e-01,7.88944e-01,9.99999e-01
1.063183176e+00,1.82665e-02,2.31060e-02,9.96223e-01,7.92647e-01,9.99999e-01
1.068499092e+00,5.69727e-02,7.19235e-02,9.93674e-01,7.96293e-01,9.99999e-01
1.073841587e+00,1.49600e-01,1.88193e-01,9.92615e-01,7.99884e-01,9.99999e-01
1.079210795e+00,2.76614e-01,3.47267e-01,9.90510e-01,8.03420e-01,9.99999e-01
1.084606849e+00,4.43656e-01,5.57390e-01,9.85694e-01,8.06901e-01,9.99999e-01
1.090029883e+00,5.86505e-01,7.38370e-01,9.79639e-01,8.10328e-01,9.99998e-01
1.095480033e+00,6.62735e-01,8.60953e-01,9.45368e-01,8.13701e-01,9.99998e-01
1.100957433e+00,6.59652e-01,9.30403e-01,8.67064e-01,8.17021e-01,9.99997e-01
1.106462220e+00,5.55873e-01,9.70571e-01,6.97390e-01,8.20289e-01,9.99994e-01
1.111994531e+00,3.81675e-01,9.88990e-01,4.68236e-01,8.23505e-01,9.99988e-01
1.117554504e+00,2.42753e-01,9.97287e-01,2.94292e-01,8.26670e-01,9.99984e-01
1.123142276e+00,3.40081e-01,9.99820e-01,4.09882e-01,8.29784e-01,9.99981e-01
1.128757988e+00,4.68466e-01,9.99999e-01,5.62498e-01,8.32848e-01,9.99980e-01
1.134401778e+00,2.53997e-01,9.99999e-01,3.03881e-01,8.35862e-01,9.99977e-01
1.140073787e+00,5.93766e-01,9.99999e-01,7.07865e-01,8.38828e-01,9.99981e-01
1.145774156e+00,4.11018e-01,9.99999e-01,4.88299e-01,8.41745e-01,9.99984e-01
1.151503026e+00,3.81486e-01,9.99999e-01,4.51675e-01,8.44614e-01,9.99986e-01
1.157260541e+00,4.32937e-01,9.99999e-01,5.10883e-01,8.47436e-01,9.99989e-01
1.163046844e+00,5.16419e-01,9.99999e-01,6.07404e-01,8.50212e-01,9.99993e-01
1.168862078e+00,6.02386e-01,9.99999e-01,7.06248e-01,8.52941e-01,9.99996e-01
1.174706389e+00,6.90379e-01,9.99999e-01,8.06872e-01,8.55625e-01,9.99997e-01
1.180579921e+00,7.53009e-01,9.99999e-01,8.77362e-01,8.58264e-01,9.99998e-01
1.186482820e+00,7.99546e-01,9.99994e-01,9.28781e-01,8.60859e-01,9.99998e-01
1.192415234e+00,8.15226e-01,9.85570e-01,9.57839e-01,8.63411e-01,9.99998e-01
1.198377311e+00,4.69995e-01,5.59465e-01,9.64422e-01,8.65919e-01,9.99998e-01
1.204369197e+00,2.58924e-12,3.04132e-12,9.66272e-01,8.68385e-01,9.99998e-01
1.210391043e+00,1.86347e-45,2.17925e-45,9.67712e-01,8.70809e-01,9.99999e-01
1.216442998e+00,1.57417e-39,1.83415e-39,9.72401e-01,8.73192e-01,9.99999e-01
1.222525213e+00,5.91238e-39,6.82880e-39,9.78469e-01,8.75533e-01,9.99999e-01
1.228637839e+00,3.56230e-30,4.10049e-30,9.85013e-01,8.77835e-01,9.99999e-01
1.234781029e+00,1.93159e-19,2.20537e-19,9.88837e-01,8.80097e-01,9.99999e-01
1.240954934e+00,3.93365e-13,4.47861e-13,9.92935e-01,8.82320e-01,9.99999e-01
1.247159708e+00,1.32003e-08,1.49818e-08,9.94490e-01,8.84505e-01,9.99999e-01
1.253395507e+00,1.12455e-04,1.27291e-04,9.95114e-01,8.86652e-01,9.99999e-01
1.259662485e+00,3.53067e-03,3.98695e-03,9.95406e-01,8.88761e-01,9.99999e-01
1.265960797e+00,4.47043e-02,5.04694e-02,9.92624e-01,8.90834e-01,9.99999e-01
1.272290601e+00,2.24909e-01,2.54346e-01,9.89166e-01,8.92870e-01,9.99999e-01
1.278652054e+00,2.13780e-01,2.43230e-01,9.77219e-01,8.94871e-01,9.99999e-01
1.285045314e+00,4.79459e-03,5.44534e-03,9.64451e-01,8.96836e-01,9.99998e-01
1.291470541e+00,5.05527e-06,5.88842e-06,9.29636e-01,8.98767e-01,9.99998e-01
1.297927893e+00,2.54618e-03,2.96092e-03,9.09079e-01,9.00664e-01,9.99996e-01
1.304417533e+00,8.02099e-02,9.90535e-02,8.84217e-01,9.02527e-01,9.99994e-01
1.310939621e+00,2.05243e-02,2.46802e-02,8.69268e-01,9.04357e-01,9.99991e-01
1.317494319e+00,4.15035e-16,5.00010e-16,8.57993e-01,9.06155e-01,9.99986e-01
1.324081790e+00,4.16716e-11,5.10790e-11,7.96067e-01,9.07921e-01,9.99977e-01
1.330702199e+00,1.00910e-06,1.69035e-06,4.24534e-01,9.09655e-01,9.99963e-01
1.337355710e+00,5.24233e-07,2.52989e-06,1.04133e-01,9.11358e-01,9.99929e-01
1.344042489e+00,8.33686e-08,8.16649e-07,5.52819e-03,9.13030e-01,9.99850e-01
1.350762701e+00,5.29808e-11,9.92937e-07,1.28434e-05,9.14672e-01,9.99761e-01
1.357516515e+00,8.31141e-11,1.49441e-04,1.10845e-07,9.16285e-01,9.99704e-01
1.364304097e+00,2.29839e-07,3.05593e-03,3.54696e-05,9.17869e-01,9.99683e-01
1.371125618e+00,8.20453e-05,4.90232e-02,1.03213e-03,9.19424e-01,9.99680e-01
1.377981246e+00,2.94786e-04,8.34959e-02,2.83164e-03,9.20951e-01,9.99656e-01
1.384871152e+00,1.76531e-05,2.35626e-01,6.21977e-05,9.22450e-01,9.99660e-01
1.391795508e+00,1.50659e-05,2.62616e-01,4.74345e-05,9.23922e-01,9.99709e-01
1.398754485e+00,1.17417e-04,4.37813e-01,2.66204e-04,9.25367e-01,9.99757e-01
1.405748258e+00,1.44841e-04,5.44262e-01,2.57246e-04,9.26786e-01,9.99782e-01
1.412776999e+00,1.69686e-04,6.80588e-01,2.46091e-04,9.28179e-01,9.99824e-01
1.419840884e+00,3.18822e-04,6.16105e-01,4.49569e-04,9.29546e-01,9.99869e-01
1.426940089e+00,7.46444e-04,5.30725e-02,2.33936e-03,9.30889e-01,9.99918e-01
1.434074789e+00,0.00000e+00,0.00000e+00,9.80347e-03,9.32206e-01,9.99949e-01
1.441245163e+00,0.00000e+00,0.00000e+00,2.69008e-02,9.33500e-01,9.99960e-01
1.448451389e+00,0.00000e+00,0.00000e+00,7.78959e-02,9.34770e-01,9.99967e-01
1.455693646e+00,0.00000e+00,0.00000e+00,1.79380e-01,9.36016e-01,9.99972e-01
1.462972114e+00,5.50182e-178,1.45241e-177,2.27331e-01,9.37239e-01,9.99976e-01
1.470286975e+00,7.99190e-75,2.26391e-74,1.78007e-01,9.38440e-01,9.99978e-01
