#,Wave/freq,Total,CO2,H2O,Rayleigh,CIA
4.000000000e-01,3.45931e-04,9.99999e-01,9.99983e-01,3.45936e-04,9.99999e-01
4.020000000e-01,4.04973e-04,9.99999e-01,9.99989e-01,4.04977e-04,9.99999e-01
4.040100000e-01,4.72542e-04,9.99999e-01,9.99995e-01,4.72544e-04,9.99999e-01
4.060300500e-01,5.49705e-04,9.99999e-01,9.99998e-01,5.49706e-04,9.99999e-01
4.080602003e-01,6.37559e-04,9.99999e-01,9.99999e-01,6.37560e-04,9.99999e-01
4.101005013e-01,7.37292e-04,9.99999e-01,9.99999e-01,7.37292e-04,9.99999e-01
4.121510038e-01,8.50180e-04,9.99999e-01,9.99998e-01,8.50181e-04,9.99999e-01
4.142117588e-01,9.77596e-04,9.99999e-01,9.99995e-01,9.77600e-04,9.99999e-01
4.162828176e-01,1.12100e-03,9.99999e-01,9.99980e-01,1.12102e-03,9.99999e-01
4.183642317e-01,1.28199e-03,9.99999e-01,9.99988e-01,1.28201e-03,9.99999e-01
4.204560528e-01,1.46222e-03,9.99999e-01,9.99992e-01,1.46223e-03,9.99999e-01
4.225583331e-01,1.66346e-03,9.99999e-01,9.99996e-01,1.66347e-03,9.99999e-01
4.246711247e-01,1.88758e-03,9.99999e-01,9.99997e-01,1.88758e-03,9.99999e-01
4.267944804e-01,2.13655e-03,9.99999e-01,9.99996e-01,2.13655e-03,9.99999e-01
4.289284528e-01,2.41245e-03,9.99999e-01,9.99997e-01,2.41245e-03,9.99999e-01
4.310730950e-01,2.71745e-03,9.99999e-01,9.99998e-01,2.71745e-03,9.99999e-01
4.332284605e-01,3.05382e-03,9.99999e-01,9.99999e-01,3.05382e-03,9.99999e-01
4.353946028e-01,3.42392e-03,9.99999e-01,9.99999e-01,3.42392e-03,9.99999e-01
4.375715758e-01,3.83021e-03,9.99999e-01,9.99997e-01,3.83021e-03,9.99999e-01
4.397594337e-01,4.27517e-03,9.99999e-01,9.99982e-01,4.27524e-03,9.99999e-01
4.419582309e-01,4.76121e-03,9.99999e-01,9.99914e-01,4.76162e-03,9.99999e-01
4.441680220e-01,5.29171e-03,9.99999e-01,9.99932e-01,5.29206e-03,9.99999e-01
4.463888621e-01,5.86893e-03,9.99999e-01,9.99929e-01,5.86934e-03,9.99999e-01
4.486208064e-01,6.49600e-03,9.99999e-01,9.99955e-01,6.49628e-03,9.99999e-01
4.508639105e-01,7.17565e-03,9.99999e-01,9.99979e-01,7.17580e-03,9.99999e-01
4.531182300e-01,7.91077e-03,9.99999e-01,9.99991e-01,7.91083e-03,9.99999e-01
4.553838212e-01,8.70432e-03,9.99999e-01,9.99994e-01,8.70437e-03,9.99999e-01
4.576607403e-01,9.55942e-03,9.99999e-01,9.99996e-01,9.55944e-03,9.99999e-01
4.599490440e-01,1.04791e-02,9.99999e-01,9.99997e-01,1.04791e-02,9.99999e-01
4.622487892e-01,1.14664e-02,9.99999e-01,9.99999e-01,1.14664e-02,9.99999e-01
4.645600332e-01,1.25244e-02,9.99999e-01,9.99998e-01,1.25245e-02,9.99999e-01
4.668828333e-01,1.36560e-02,9.99999e-01,9.99979e-01,1.36563e-02,9.99999e-01
4.692172475e-01,1.48643e-02,9.99999e-01,9.99955e-01,1.48650e-02,9.99999e-01
4.715633337e-01,1.61531e-02,9.99999e-01,9.99970e-01,1.61536e-02,9.99999e-01
4.739211504e-01,1.75246e-02,9.99999e-01,9.99972e-01,1.75251e-02,9.99999e-01
4.762907561e-01,1.89822e-02,9.99999e-01,9.99985e-01,1.89824e-02,9.99999e-01
4.786722099e-01,2.05285e-02,9.99999e-01,9.99993e-01,2.05286e-02,9.99999e-01
4.810655710e-01,2.21663e-02,9.99999e-01,9.99997e-01,2.21663e-02,9.99999e-01
4.834708988e-01,2.38981e-02,9.99999e-01,9.99982e-01,2.38985e-02,9.99999e-01
4.858882533e-01,2.57269e-02,9.99999e-01,9.99968e-01,2.57277e-02,9.99999e-01
4.883176946e-01,2.76560e-02,9.99999e-01,9.99973e-01,2.76567e-02,9.99999e-01
4.907592831e-01,2.96871e-02,9.99999e-01,9.99975e-01,2.96878e-02,9.99999e-01
4.932130795e-01,3.18230e-02,9.99999e-01,9.99982e-01,3.18236e-02,9.99999e-01
4.956791449e-01,3.40659e-02,9.99999e-01,9.99990e-01,3.40662e-02,9.99999e-01
4.981575406e-01,3.64162e-02,9.99999e-01,9.99955e-01,3.64178e-02,9.99999e-01
5.006483283e-01,3.88760e-02,9.99999e-01,9.99885e-01,3.88804e-02,9.99999e-01
5.031515699e-01,4.14320e-02,9.99999e-01,9.99420e-01,4.14560e-02,9.99999e-01
5.056673278e-01,4.41327e-02,9.99999e-01,9.99693e-01,4.41462e-02,9.99999e-01
5.081956644e-01,4.69345e-02,9.99999e-01,9.99613e-01,4.69527e-02,9.99999e-01
5.107366428e-01,4.98637e-02,9.99999e-01,9.99738e-01,4.98767e-02,9.99999e-01
5.132903260e-01,5.29119e-02,9.99999e-01,9.99850e-01,5.29198e-02,9.99999e-01
5.158567776e-01,5.60792e-02,9.99999e-01,9.99936e-01,5.60828e-02,9.99999e-01
5.184360615e-01,5.93653e-02,9.99999e-01,9.99974e-01,5.93667e-02,9.99999e-01
5.210282418e-01,6.27718e-02,9.99999e-01,9.99990e-01,6.27724e-02,9.99999e-01
5.236333830e-01,6.62979e-02,9.99999e-01,9.99961e-01,6.63004e-02,9.99999e-01
5.262515499e-01,6.99493e-02,9.99999e-01,9.99975e-01,6.99510e-02,9.99999e-01
5.288828077e-01,7.37229e-02,9.99999e-01,9.99977e-01,7.37245e-02,9.99999e-01
5.315272217e-01,7.76196e-02,9.99999e-01,9.99980e-01,7.76210e-02,9.99999e-01
5.341848578e-01,8.16394e-02,9.99999e-01,9.99987e-01,8.16404e-02,9.99999e-01
5.368557821e-01,8.57785e-02,9.99999e-01,9.99955e-01,8.57823e-02,9.99999e-01
5.395400610e-01,9.00321e-02,9.99999e-01,9.99841e-01,9.00463e-02,9.99999e-01
5.422377613e-01,9.44122e-02,9.99999e-01,9.99793e-01,9.44317e-02,9.99999e-01
5.449489501e-01,9.89188e-02,9.99999e-01,9.99809e-01,9.89376e-02,9.99999e-01
5.476736949e-01,1.03546e-01,9.99999e-01,9.99830e-01,1.03563e-01,9.99999e-01
5.504120634e-01,1.08294e-01,9.99999e-01,9.99876e-01,1.08307e-01,9.99999e-01
5.531641237e-01,1.13162e-01,9.99999e-01,9.99937e-01,1.13169e-01,9.99999e-01
5.559299443e-01,1.18142e-01,9.99999e-01,9.99969e-01,1.18145e-01,9.99999e-01
5.587095940e-01,1.23234e-01,9.99999e-01,9.99980e-01,1.23236e-01,9.99999e-01
5.615031420e-01,1.28437e-01,9.99999e-01,9.99978e-01,1.28440e-01,9.99999e-01
5.643106577e-01,1.33750e-01,9.99999e-01,9.99976e-01,1.33753e-01,9.99999e-01
5.671322110e-01,1.39136e-01,9.99999e-01,9.99715e-01,1.39175e-01,9.99999e-01
5.699678720e-01,1.44659e-01,9.99999e-01,9.99693e-01,1.44703e-01,9.99999e-01
5.728177114e-01,1.50288e-01,9.99999e-01,9.99682e-01,1.50335e-01,9.99999e-01
5.756818000e-01,1.56023e-01,9.99999e-01,9.99708e-01,1.56069e-01,9.99999e-01
5.785602090e-01,1.61860e-01,9.99999e-01,9.99745e-01,1.61901e-01,9.99999e-01
5.814530100e-01,1.67787e-01,9.99999e-01,9.99744e-01,1.67830e-01,9.99999e-01
5.843602750e-01,1.73800e-01,9.99999e-01,9.99696e-01,1.73852e-01,9.99999e-01
5.872820764e-01,1.79495e-01,9.99999e-01,9.97387e-01,1.79965e-01,9.99999e-01
5.902184868e-01,1.85574e-01,9.99999e-01,9.96819e-01,1.86166e-01,9.99999e-01
5.931695792e-01,1.92020e-01,9.99999e-01,9.97756e-01,1.92452e-01,9.99999e-01
5.961354271e-01,1.98330e-01,9.99999e-01,9.97537e-01,1.98819e-01,9.99999e-01
5.991161043e-01,2.04897e-01,9.99999e-01,9.98202e-01,2.05265e-01,9.99999e-01
6.021116848e-01,2.11571e-01,9.99999e-01,9.98979e-01,2.11787e-01,9.99999e-01
6.051222432e-01,2.18268e-01,9.99999e-01,9.99483e-01,2.18381e-01,9.99999e-01
6.081478544e-01,2.24993e-01,9.99999e-01,9.99776e-01,2.25043e-01,9.99999e-01
6.111885937e-01,2.31750e-01,9.99999e-01,9.99905e-01,2.31772e-01,9.99999e-01
6.142445367e-01,2.38553e-01,9.99999e-01,9.99957e-01,2.38563e-01,9.99999e-01
6.173157594e-01,2.45407e-01,9.99999e-01,9.99976e-01,2.45412e-01,9.99999e-01
6.204023382e-01,2.52312e-01,9.99999e-01,9.99979e-01,2.52317e-01,9.99999e-01
6.235043498e-01,2.59253e-01,9.99999e-01,9.99914e-01,2.59275e-01,9.99999e-01
6.266218716e-01,2.66159e-01,9.99999e-01,9.99542e-01,2.66281e-01,9.99999e-01
6.297549810e-01,2.73286e-01,9.99999e-01,9.99832e-01,2.73332e-01,9.99999e-01
6.329037559e-01,2.80333e-01,9.99999e-01,9.99667e-01,2.80426e-01,9.99999e-01
6.360682746e-01,2.87476e-01,9.99999e-01,9.99717e-01,2.87557e-01,9.99999e-01
6.392486160e-01,2.94617e-01,9.99999e-01,9.99634e-01,2.94724e-01,9.99999e-01
6.424448591e-01,3.01776e-01,9.99999e-01,9.99512e-01,3.01923e-01,9.99999e-01
6.456570834e-01,3.08451e-01,9.99999e-01,9.97737e-01,3.09150e-01,9.99999e-01
6.488853688e-01,3.15876e-01,9.99999e-01,9.98333e-01,3.16403e-01,9.99999e-01
6.521297956e-01,3.23127e-01,9.99999e-01,9.98300e-01,3.23677e-01,9.99999e-01
6.553904446e-01,3.30414e-01,9.99999e-01,9.98321e-01,3.30970e-01,9.99999e-01
6.586673968e-01,3.37788e-01,9.99999e-01,9.98551e-01,3.38278e-01,9.99999e-01
6.619607338e-01,3.45309e-01,9.99999e-01,9.99162e-01,3.45598e-01,9.99999e-01
6.652705375e-01,3.52757e-01,9.99999e-01,9.99514e-01,3.52928e-01,9.99999e-01
6.685968902e-01,3.60182e-01,9.99999e-01,9.99774e-01,3.60263e-01,9.99999e-01
6.719398746e-01,3.67564e-01,9.99999e-01,9.99895e-01,3.67602e-01,9.99999e-01
6.752995740e-01,3.74920e-01,9.99999e-01,9.99943e-01,3.74941e-01,9.99999e-01
6.786760719e-01,3.82246e-01,9.99999e-01,9.99918e-01,3.82277e-01,9.99999e-01
6.820694522e-01,3.89553e-01,9.99999e-01,9.99860e-01,3.89607e-01,9.99999e-01
6.854797995e-01,3.96858e-01,9.99999e-01,9.99820e-01,3.96929e-01,9.99999e-01
6.889071985e-01,4.04066e-01,9.99999e-01,9.99568e-01,4.04240e-01,9.99999e-01
6.923517345e-01,4.08626e-01,9.99999e-01,9.92924e-01,4.11538e-01,9.99999e-01
6.958134932e-01,4.17259e-01,9.99999e-01,9.96275e-01,4.18819e-01,9.99999e-01
6.992925606e-01,4.24590e-01,9.99999e-01,9.96500e-01,4.26081e-01,9.99999e-01
7.027890234e-01,4.31442e-01,9.99999e-01,9.95661e-01,4.33322e-01,9.99999e-01
7.063029686e-01,4.38933e-01,9.99999e-01,9.96353e-01,4.40539e-01,9.99999e-01
7.098344834e-01,4.46164e-01,9.99999e-01,9.96501e-01,4.47730e-01,9.99999e-01
7.133836558e-01,4.52787e-01,9.99999e-01,9.95368e-01,4.54893e-01,9.99999e-01
7.169505741e-01,4.44976e-01,9.99999e-01,9.63096e-01,4.62026e-01,9.99999e-01
7.205353270e-01,4.60500e-01,9.99999e-01,9.81611e-01,4.69127e-01,9.99999e-01
7.241380036e-01,4.65193e-01,9.99999e-01,9.76898e-01,4.76193e-01,9.99998e-01
7.277586936e-01,4.73133e-01,9.99999e-01,9.79119e-01,4.83223e-01,9.99999e-01
7.313974871e-01,4.79307e-01,9.99999e-01,9.77747e-01,4.90215e-01,9.99999e-01
7.350544745e-01,4.91104e-01,9.99999e-01,9.87805e-01,4.97167e-01,9.99999e-01
7.387297469e-01,4.99548e-01,9.99999e-01,9.91013e-01,5.04077e-01,9.99999e-01
7.424233956e-01,5.08691e-01,9.99999e-01,9.95590e-01,5.10944e-01,9.99999e-01
7.461355126e-01,5.16383e-01,9.99999e-01,9.97328e-01,5.17766e-01,9.99999e-01
7.498661902e-01,5.23889e-01,9.99999e-01,9.98753e-01,5.24542e-01,9.99999e-01
7.536155211e-01,5.30946e-01,9.99999e-01,9.99389e-01,5.31270e-01,9.99999e-01
7.573835987e-01,5.37780e-01,9.99999e-01,9.99685e-01,5.37949e-01,9.99999e-01
7.611705167e-01,5.44471e-01,9.99999e-01,9.99804e-01,5.44577e-01,9.99999e-01
7.649763693e-01,5.51087e-01,9.99999e-01,9.99877e-01,5.51154e-01,9.99999e-01
7.688012511e-01,5.57631e-01,9.99999e-01,9.99914e-01,5.57678e-01,9.99999e-01
7.726452574e-01,5.64109e-01,9.99999e-01,9.99929e-01,5.64148e-01,9.99999e-01
7.765084837e-01,5.70507e-01,9.99999e-01,9.99900e-01,5.70563e-01,9.99999e-01
7.803910261e-01,5.61692e-01,9.74005e-01,9.99572e-01,5.76922e-01,9.99999e-01
7.842929812e-01,5.17862e-01,8.89205e-01,9.98507e-01,5.83225e-01,9.99999e-01
7.882144461e-01,5.18383e-01,8.82045e-01,9.96912e-01,5.89469e-01,9.99999e-01
7.921555184e-01,5.52983e-01,9.29911e-01,9.98301e-01,5.95655e-01,9.99999e-01
7.961162960e-01,5.71437e-01,9.52393e-01,9.97016e-01,6.01782e-01,9.99999e-01
8.000968774e-01,5.89969e-01,9.73940e-01,9.96544e-01,6.07850e-01,9.99999e-01
8.040973618e-01,6.03414e-01,9.86390e-01,9.96546e-01,6.13856e-01,9.99999e-01
8.081178486e-01,6.11158e-01,9.93745e-01,9.92250e-01,6.19802e-01,9.99999e-01
8.121584379e-01,6.04489e-01,9.98055e-01,9.67989e-01,6.25686e-01,9.99999e-01
8.162192301e-01,6.07183e-01,9.99570e-01,9.61888e-01,6.31508e-01,9.99998e-01
8.203003262e-01,6.25128e-01,9.99992e-01,9.80956e-01,6.37268e-01,9.99998e-01
8.244018279e-01,6.25654e-01,9.99999e-01,9.73076e-01,6.42964e-01,9.99998e-01
8.285238370e-01,6.33802e-01,9.99999e-01,9.77186e-01,6.48598e-01,9.99999e-01
8.326664562e-01,6.39046e-01,9.99999e-01,9.76881e-01,6.54169e-01,9.99999e-01
8.368297885e-01,6.48750e-01,9.99999e-01,9.83437e-01,6.59675e-01,9.99999e-01
8.410139374e-01,6.58554e-01,9.99999e-01,9.90129e-01,6.65118e-01,9.99999e-01
8.452190071e-01,6.67244e-01,9.99999e-01,9.95147e-01,6.70497e-01,9.99999e-01
8.494451021e-01,6.73913e-01,9.99999e-01,9.97188e-01,6.75812e-01,9.99999e-01
8.536923276e-01,6.79929e-01,9.99999e-01,9.98333e-01,6.81063e-01,9.99999e-01
8.579607893e-01,6.85547e-01,9.99999e-01,9.98975e-01,6.86250e-01,9.99999e-01
8.622505932e-01,6.90923e-01,9.99999e-01,9.99348e-01,6.91373e-01,9.99999e-01
8.665618462e-01,6.52929e-01,9.37899e-01,9.99597e-01,6.96432e-01,9.99999e-01
8.708946554e-01,5.19725e-01,7.41285e-01,9.99539e-01,7.01426e-01,9.99999e-01
8.752491287e-01,5.55095e-01,7.86328e-01,9.99384e-01,7.06357e-01,9.99999e-01
8.796253743e-01,6.23052e-01,8.76757e-01,9.99148e-01,7.11224e-01,9.99999e-01
8.840235012e-01,6.68298e-01,9.34239e-01,9.99027e-01,7.16027e-01,9.99999e-01
8.884436187e-01,6.99232e-01,9.73519e-01,9.96482e-01,7.20767e-01,9.99999e-01
8.928858368e-01,6.91274e-01,9.89208e-01,9.63223e-01,7.25444e-01,9.99999e-01
8.973502660e-01,6.81177e-01,9.97360e-01,9.35475e-01,7.30058e-01,9.99998e-01
9.018370173e-01,7.09719e-01,9.99708e-01,9.66393e-01,7.34609e-01,9.99998e-01
9.063462024e-01,7.12253e-01,9.92655e-01,9.70637e-01,7.39098e-01,9.99998e-01
9.108779334e-01,6.97731e-01,9.83038e-01,9.54447e-01,7.43525e-01,9.99998e-01
9.154323231e-01,7.06479e-01,9.95974e-01,9.48384e-01,7.47890e-01,9.99998e-01
9.200094847e-01,6.81536e-01,9.42919e-01,9.59270e-01,7.52194e-01,9.99997e-01
9.246095321e-01,6.52872e-01,9.19654e-01,9.37382e-01,7.56437e-01,9.99996e-01
9.292325798e-01,4.62878e-01,9.36673e-01,6.46086e-01,7.60619e-01,9.99993e-01
9.338787427e-01,4.09373e-01,9.38487e-01,5.67243e-01,7.64741e-01,9.99991e-01
9.385481364e-01,5.85135e-01,9.54478e-01,7.95683e-01,7.68803e-01,9.99991e-01
9.432408771e-01,5.47310e-01,9.71855e-01,7.27805e-01,7.72806e-01,9.99990e-01
9.479570815e-01,4.93691e-01,9.85484e-01,6.44537e-01,7.76750e-01,9.99991e-01
9.526968669e-01,5.57843e-01,9.92968e-01,7.19295e-01,7.80636e-01,9.99993e-01
9.574603512e-01,5.78963e-01,9.96987e-01,7.40153e-01,7.84464e-01,9.99995e-01
9.622476530e-01,6.16491e-01,9.99058e-01,7.82821e-01,7.88235e-01,9.99996e-01
9.670588912e-01,6.87697e-01,9.99717e-01,8.68597e-01,7.91948e-01,9.99997e-01
9.718941857e-01,7.28713e-01,9.99979e-01,9.15940e-01,7.95606e-01,9.99998e-01
9.767536566e-01,7.43052e-01,9.99999e-01,9.29737e-01,7.99207e-01,9.99998e-01
9.816374249e-01,7.60532e-01,9.99999e-01,9.47405e-01,8.02753e-01,9.99998e-01
9.865456120e-01,7.79492e-01,9.99999e-01,9.66817e-01,8.06244e-01,9.99999e-01
9.914783401e-01,7.92981e-01,9.99999e-01,9.79373e-01,8.09681e-01,9.99999e-01
9.964357318e-01,8.03890e-01,9.99999e-01,9.88714e-01,8.13065e-01,9.99999e-01
1.001417910e+00,8.10862e-01,9.99999e-01,9.93221e-01,8.16395e-01,9.99999e-01
1.006425000e+00,8.16506e-01,9.99999e-01,9.96135e-01,8.19673e-01,9.99999e-01
1.011457125e+00,8.20922e-01,9.99999e-01,9.97596e-01,8.22899e-01,9.99999e-01
1.016514411e+00,8.24727e-01,9.99999e-01,9.98369e-01,8.26073e-01,9.99999e-01
1.021596983e+00,8.28090e-01,9.99962e-01,9.98700e-01,8.29197e-01,9.99999e-01
1.026704968e+00,8.29052e-01,9.97141e-01,9.98987e-01,8.32270e-01,9.99999e-01
1.031838492e+00,8.05137e-01,9.64588e-01,9.99262e-01,8.35294e-01,9.99999e-01
1.036997685e+00,1.63062e-01,1.94591e-01,9.99562e-01,8.38269e-01,9.99999e-01
1.042182673e+00,1.58650e-01,1.88689e-01,9.99479e-01,8.41195e-01,9.99999e-01
1.047393587e+00,1.69567e-01,2.01015e-01,9.99309e-01,8.44073e-01,9.99999e-01
1.052630555e+00,9.69192e-03,1.14521e-02,9.99052e-01,8.46904e-01,9.99999e-01
1.057893707e+00,2.17274e-02,2.55999e-02,9.98420e-01,8.49688e-01,9.99999e-01
1.063183176e+00,5.80814e-02,6.82699e-02,9.97399e-01,8.52426e-01,9.99999e-01
1.068499092e+00,1.36067e-01,1.59725e-01,9.95645e-01,8.55119e-01,9.99999e-01
1.073841587e+00,2.67771e-01,3.13568e-01,9.94908e-01,8.57767e-01,9.99999e-01
1.079210795e+00,4.10718e-01,4.80290e-01,9.93468e-01,8.60370e-01,9.99999e-01
1.084606849e+00,5.71491e-01,6.68623e-01,9.90135e-01,8.62930e-01,9.99999e-01
1.090029883e+00,6.92800e-01,8.11721e-01,9.85894e-01,8.65446e-01,9.99998e-01
1.095480033e+00,7.53591e-01,9.02295e-01,9.61981e-01,8.67920e-01,9.99998e-01
1.100957433e+00,7.50856e-01,9.51714e-01,9.06116e-01,8.70352e-01,9.99997e-01
1.106462220e+00,6.65780e-01,9.79734e-01,7.78197e-01,8.72742e-01,9.99995e-01
1.111994531e+00,5.11762e-01,9.92442e-01,5.89014e-01,8.75092e-01,9.99992e-01
1.117554504e+00,3.71583e-01,9.98145e-01,4.24176e-01,8.77401e-01,9.99989e-01
1.123142276e+00,4.66746e-01,9.99877e-01,5.30635e-01,8.79671e-01,9.99987e-01
1.128757988e+00,5.88819e-01,9.99999e-01,6.67678e-01,8.81901e-01,9.99986e-01
1.134401778e+00,3.59269e-01,9.99999e-01,4.06375e-01,8.84093e-01,9.99984e-01
1.140073787e+00,6.96941e-01,9.99999e-01,7.86404e-01,8.86247e-01,9.99987e-01
1.145774156e+00,5.37191e-01,9.99999e-01,6.04703e-01,8.88364e-01,9.99989e-01
1.151503026e+00,5.08261e-01,9.99999e-01,5.70800e-01,8.90443e-01,9.99990e-01
1.157260541e+00,5.59762e-01,9.99999e-01,6.27197e-01,8.92487e-01,9.99992e-01
1.163046844e+00,6.33487e-01,9.99999e-01,7.08209e-01,8.94494e-01,9.99995e-01
1.168862078e+00,7.05634e-01,9.99999e-01,7.87129e-01,8.96466e-01,9.99997e-01
1.174706389e+00,7.75063e-01,9.99999e-01,8.62712e-01,8.98404e-01,9.99998e-01
1.180579921e+00,8.22886e-01,9.99999e-01,9.14006e-01,9.00307e-01,9.99998e-01
1.186482820e+00,8.57528e-01,9.99995e-01,9.50514e-01,9.02176e-01,9.99998e-01
1.192415234e+00,8.68797e-01,9.89819e-01,9.70843e-01,9.04013e-01,9.99999e-01
1.198377311e+00,5.04919e-01,5.69168e-01,9.75393e-01,9.05816e-01,9.99999e-01
1.204369197e+00,3.64040e-09,4.06604e-09,9.76682e-01,9.07588e-01,9.99999e-01
1.210391043e+00,6.10146e-32,6.79434e-32,9.77692e-01,9.09328e-01,9.99999e-01
1.216442998e+00,7.21704e-28,8.01627e-28,9.80970e-01,9.11037e-01,9.99999e-01
1.222525213e+00,1.79906e-27,1.98633e-27,9.85165e-01,9.12715e-01,9.99999e-01
1.228637839e+00,2.97840e-21,3.28106e-21,9.89681e-01,9.14363e-01,9.99999e-01
1.234781029e+00,4.61816e-14,5.05856e-14,9.92323e-01,9.15981e-01,9.99999e-01
1.240954934e+00,1.53145e-09,1.67435e-09,9.95142e-01,9.17570e-01,9.99999e-01
1.247159708e+00,1.55587e-05,1.69680e-05,9.96214e-01,9.19131e-01,9.99999e-01
1.253395507e+00,1.59902e-03,1.74132e-03,9.96641e-01,9.20663e-01,9.99999e-01
1.259662485e+00,2.43106e-02,2.64323e-02,9.96813e-01,9.22168e-01,9.99999e-01
1.265960797e+00,1.11412e-01,1.21139e-01,9.94904e-01,9.23645e-01,9.99999e-01
1.272290601e+00,3.55401e-01,3.86843e-01,9.92518e-01,9.25095e-01,9.99999e-01
1.278652054e+00,3.29032e-01,3.59799e-01,9.84234e-01,9.26519e-01,9.99999e-01
1.285045314e+00,1.37299e-02,1.49929e-02,9.75286e-01,9.27916e-01,9.99998e-01
1.291470541e+00,1.83167e-04,2.03902e-04,9.50897e-01,9.29289e-01,9.99998e-01
1.297927893e+00,1.08546e-02,1.20772e-02,9.36334e-01,9.30636e-01,9.99997e-01
1.304417533e+00,1.74326e-01,2.02130e-01,9.18678e-01,9.31958e-01,9.99996e-01
1.310939621e+00,4.59625e-02,5.22569e-02,9.07623e-01,9.33256e-01,9.99994e-01
1.317494319e+00,1.75727e-11,2.00327e-11,8.99888e-01,9.34530e-01,9.99990e-01
1.324081790e+00,3.79307e-08,4.37799e-08,8.54022e-01,9.35781e-01,9.99984e-01
1.330702199e+00,6.13970e-05,9.16588e-05,5.29836e-01,9.37009e-01,9.99974e-01
1.337355710e+00,2.92049e-05,8.83458e-05,1.98083e-01,9.38214e-01,9.99951e-01
1.344042489e+00,4.75055e-06,2.65388e-05,1.70933e-02,9.39396e-01,9.99897e-01
1.350762701e+00,4.70340e-08,6.07812e-05,2.55975e-04,9.40557e-01,9.99835e-01
1.357516515e+00,6.30591e-08,1.83508e-03,1.12704e-05,9.41696e-01,9.99796e-01
1.364304097e+00,1.67759e-05,1.78583e-02,5.67851e-04,9.42814e-01,9.99782e-01
1.371125618e+00,1.07699e-03,1.20898e-01,6.43275e-03,9.43912e-01,9.99780e-01
1.377981246e+00,2.85308e-03,1.80493e-01,1.39688e-02,9.44988e-01,9.99764e-01
1.384871152e+00,2.47573e-04,3.69071e-01,5.94864e-04,9.46045e-01,9.99766e-01
1.391795508e+00,3.48895e-04,3.98088e-01,7.87145e-04,9.47082e-01,9.99799e-01
1.398754485e+00,1.36197e-03,5.67007e-01,2.40525e-03,9.48100e-01,9.99832e-01
1.405748258e+00,1.50005e-03,6.58075e-01,2.23601e-03,9.49098e-01,9.99850e-01
1.412776999e+00,1.79862e-03,7.67843e-01,2.34832e-03,9.50078e-01,9.99879e-01
1.419840884e+00,2.81530e-03,6.99125e-01,3.57709e-03,9.51040e-01,9.99909e-01
1.426940089e+00,3.40381e-03,7.61526e-02,1.18372e-02,9.51983e-01,9.99944e-01
1.434074789e+00,0.00000e+00,0.00000e+00,3.39285e-02,9.52909e-01,9.99964e-01
1.441245163e+00,0.00000e+00,0.00000e+00,7.59066e-02,9.53817e-01,9.99972e-01
1.448451389e+00,0.00000e+00,0.00000e+00,1.59219e-01,9.54709e-01,9.99977e-01
1.455693646e+00,4.73038e-253,9.22570e-253,2.97622e-01,9.55583e-01,9.99981e-01
1.462972114e+00,5.12105e-123,9.97864e-123,3.53987e-01,9.56441e-01,9.99983e-01
1.470286975e+00,4.01129e-52,8.20437e-52,2.97289e-01,9.57283e-01,9.99985e-01
