#,Wave/freq,Total,CO2,H2O,Rayleigh,CIA
4.000000000e-01,8.11947e-03,9.99999e-01,9.99990e-01,8.11955e-03,9.99999e-01
4.020000000e-01,8.93026e-03,9.99999e-01,9.99993e-01,8.93031e-03,9.99999e-01
4.040100000e-01,9.80259e-03,9.99999e-01,9.99997e-01,9.80261e-03,9.99999e-01
4.060300500e-01,1.07403e-02,9.99999e-01,9.99998e-01,1.07403e-02,9.99999e-01
4.080602003e-01,1.17465e-02,9.99999e-01,9.99999e-01,1.17465e-02,9.99999e-01
4.101005013e-01,1.28243e-02,9.99999e-01,9.99999e-01,1.28243e-02,9.99999e-01
4.121510038e-01,1.39767e-02,9.99999e-01,9.99999e-01,1.39767e-02,9.99999e-01
4.142117588e-01,1.52068e-02,9.99999e-01,9.99996e-01,1.52068e-02,9.99999e-01
4.162828176e-01,1.65174e-02,9.99999e-01,9.99987e-01,1.65176e-02,9.99999e-01
4.183642317e-01,1.79120e-02,9.99999e-01,9.99992e-01,1.79121e-02,9.99999e-01
4.204560528e-01,1.93932e-02,9.99999e-01,9.99995e-01,1.93933e-02,9.99999e-01
4.225583331e-01,2.09640e-02,9.99999e-01,9.99997e-01,2.09640e-02,9.99999e-01
4.246711247e-01,2.26271e-02,9.99999e-01,9.99998e-01,2.26272e-02,9.99999e-01
4.267944804e-01,2.43854e-02,9.99999e-01,9.99997e-01,2.43854e-02,9.99999e-01
4.289284528e-01,2.62414e-02,9.99999e-01,9.99998e-01,2.62415e-02,9.99999e-01
4.310730950e-01,2.81979e-02,9.99999e-01,9.99998e-01,2.81979e-02,9.99999e-01
4.332284605e-01,3.02572e-02,9.99999e-01,9.99999e-01,3.02572e-02,9.99999e-01
4.353946028e-01,3.24218e-02,9.99999e-01,9.99999e-01,3.24218e-02,9.99999e-01
4.375715758e-01,3.46937e-02,9.99999e-01,9.99998e-01,3.46938e-02,9.99999e-01
4.397594337e-01,3.70749e-02,9.99999e-01,9.99989e-01,3.70753e-02,9.99999e-01
4.419582309e-01,3.95664e-02,9.99999e-01,9.99947e-01,3.95684e-02,9.99999e-01
4.441680220e-01,4.21733e-02,9.99999e-01,9.99958e-01,4.21750e-02,9.99999e-01
4.463888621e-01,4.48947e-02,9.99999e-01,9.99957e-01,4.48966e-02,9.99999e-01
4.486208064e-01,4.77336e-02,9.99999e-01,9.99973e-01,4.77348e-02,9.99999e-01
4.508639105e-01,5.06905e-02,9.99999e-01,9.99987e-01,5.06911e-02,9.99999e-01
4.531182300e-01,5.37663e-02,9.99999e-01,9.99994e-01,5.37666e-02,9.99999e-01
4.553838212e-01,5.69622e-02,9.99999e-01,9.99996e-01,5.69624e-02,9.99999e-01
4.576607403e-01,6.02792e-02,9.99999e-01,9.99997e-01,6.02793e-02,9.99999e-01
4.599490440e-01,6.37181e-02,9.99999e-01,9.99998e-01,6.37181e-02,9.99999e-01
4.622487892e-01,6.72793e-02,9.99999e-01,9.99999e-01,6.72793e-02,9.99999e-01
4.645600332e-01,7.09633e-02,9.99999e-01,9.99998e-01,7.09633e-02,9.99999e-01
4.668828333e-01,7.47693e-02,9.99999e-01,9.99987e-01,7.47703e-02,9.99999e-01
4.692172475e-01,7.86981e-02,9.99999e-01,9.99972e-01,7.87002e-02,9.99999e-01
4.715633337e-01,8.27514e-02,9.99999e-01,9.99982e-01,8.27528e-02,9.99999e-01
4.739211504e-01,8.69265e-02,9.99999e-01,9.99982e-01,8.69279e-02,9.99999e-01
4.762907561e-01,9.12241e-02,9.99999e-01,9.99990e-01,9.12249e-02,9.99999e-01
4.786722099e-01,9.56428e-02,9.99999e-01,9.99995e-01,9.56431e-02,9.99999e-01
4.810655710e-01,1.00182e-01,9.99999e-01,9.99998e-01,1.00182e-01,9.99999e-01
4.834708988e-01,1.04839e-01,9.99999e-01,9.99989e-01,1.04840e-01,9.99999e-01
4.858882533e-01,1.09614e-01,9.99999e-01,9.99980e-01,1.09616e-01,9.99999e-01
4.883176946e-01,1.14507e-01,9.99999e-01,9.99983e-01,1.14508e-01,9.99999e-01
4.907592831e-01,1.19515e-01,9.99999e-01,9.99985e-01,1.19516e-01,9.99999e-01
4.932130795e-01,1.24637e-01,9.99999e-01,9.99989e-01,1.24638e-01,9.99999e-01
4.956791449e-01,1.29871e-01,9.99999e-01,9.99994e-01,1.29871e-01,9.99999e-01
4.981575406e-01,1.35211e-01,9.99999e-01,9.99972e-01,1.35215e-01,9.99999e-01
5.006483283e-01,1.40656e-01,9.99999e-01,9.99930e-01,1.40666e-01,9.99999e-01
5.031515699e-01,1.46171e-01,9.99999e-01,9.99649e-01,1.46222e-01,9.99999e-01
5.056673278e-01,1.51854e-01,9.99999e-01,9.99814e-01,1.51882e-01,9.99999e-01
5.081956644e-01,1.57606e-01,9.99999e-01,9.99766e-01,1.57643e-01,9.99999e-01
5.107366428e-01,1.63476e-01,9.99999e-01,9.99841e-01,1.63502e-01,9.99999e-01
5.132903260e-01,1.69441e-01,9.99999e-01,9.99909e-01,1.69456e-01,9.99999e-01
5.158567776e-01,1.75496e-01,9.99999e-01,9.99961e-01,1.75503e-01,9.99999e-01
5.184360615e-01,1.81638e-01,9.99999e-01,9.99984e-01,1.81640e-01,9.99999e-01
5.210282418e-01,1.87863e-01,9.99999e-01,9.99993e-01,1.87864e-01,9.99999e-01
5.236333830e-01,1.94168e-01,9.99999e-01,9.99976e-01,1.94173e-01,9.99999e-01
5.262515499e-01,2.00559e-01,9.99999e-01,9.99985e-01,2.00562e-01,9.99999e-01
5.288828077e-01,2.07026e-01,9.99999e-01,9.99986e-01,2.07029e-01,9.99999e-01
5.315272217e-01,2.13568e-01,9.99999e-01,9.99987e-01,2.13570e-01,9.99999e-01
5.341848578e-01,2.20181e-01,9.99999e-01,9.99991e-01,2.20183e-01,9.99999e-01
5.368557821e-01,2.26858e-01,9.99999e-01,9.99972e-01,2.26864e-01,9.99999e-01
5.395400610e-01,2.33587e-01,9.99999e-01,9.99903e-01,2.33609e-01,9.99999e-01
5.422377613e-01,2.40387e-01,9.99999e-01,9.99875e-01,2.40417e-01,9.99999e-01
5.449489501e-01,2.47253e-01,9.99999e-01,9.99884e-01,2.47282e-01,9.99999e-01
5.476736949e-01,2.54175e-01,9.99999e-01,9.99897e-01,2.54201e-01,9.99999e-01
5.504120634e-01,2.61153e-01,9.99999e-01,9.99925e-01,2.61172e-01,9.99999e-01
5.531641237e-01,2.68181e-01,9.99999e-01,9.99962e-01,2.68191e-01,9.99999e-01
5.559299443e-01,2.75249e-01,9.99999e-01,9.99981e-01,2.75254e-01,9.99999e-01
5.587095940e-01,2.82355e-01,9.99999e-01,9.99988e-01,2.82358e-01,9.99999e-01
5.615031420e-01,2.89496e-01,9.99999e-01,9.99986e-01,2.89500e-01,9.99999e-01
5.643106577e-01,2.96672e-01,9.99999e-01,9.99985e-01,2.96676e-01,9.99999e-01
5.671322110e-01,3.03830e-01,9.99999e-01,9.99827e-01,3.03883e-01,9.99999e-01
5.699678720e-01,3.11060e-01,9.99999e-01,9.99814e-01,3.11117e-01,9.99999e-01
5.728177114e-01,3.18315e-01,9.99999e-01,9.99807e-01,3.18376e-01,9.99999e-01
5.756818000e-01,3.25598e-01,9.99999e-01,9.99823e-01,3.25655e-01,9.99999e-01
5.785602090e-01,3.32901e-01,9.99999e-01,9.99845e-01,3.32952e-01,9.99999e-01
5.814530100e-01,3.40212e-01,9.99999e-01,9.99845e-01,3.40264e-01,9.99999e-01
5.843602750e-01,3.47524e-01,9.99999e-01,9.99816e-01,3.47587e-01,9.99999e-01
5.872820764e-01,3.54358e-01,9.99999e-01,9.98418e-01,3.54919e-01,9.99999e-01
5.902184868e-01,3.61560e-01,9.99999e-01,9.98078e-01,3.62256e-01,9.99999e-01
5.931695792e-01,3.69093e-01,9.99999e-01,9.98643e-01,3.69595e-01,9.99999e-01
5.961354271e-01,3.76372e-01,9.99999e-01,9.98511e-01,3.76933e-01,9.99999e-01
5.991161043e-01,3.83851e-01,9.99999e-01,9.98914e-01,3.84268e-01,9.99999e-01
6.021116848e-01,3.91355e-01,9.99999e-01,9.99383e-01,3.91596e-01,9.99999e-01
6.051222432e-01,3.98791e-01,9.99999e-01,9.99687e-01,3.98916e-01,9.99999e-01
6.081478544e-01,4.06168e-01,9.99999e-01,9.99865e-01,4.06223e-01,9.99999e-01
6.111885937e-01,4.13493e-01,9.99999e-01,9.99942e-01,4.13516e-01,9.99999e-01
6.142445367e-01,4.20782e-01,9.99999e-01,9.99974e-01,4.20792e-01,9.99999e-01
6.173157594e-01,4.28043e-01,9.99999e-01,9.99985e-01,4.28049e-01,9.99999e-01
6.204023382e-01,4.35278e-01,9.99999e-01,9.99987e-01,4.35283e-01,9.99999e-01
6.235043498e-01,4.42471e-01,9.99999e-01,9.99947e-01,4.42494e-01,9.99999e-01
6.266218716e-01,4.49554e-01,9.99999e-01,9.99723e-01,4.49678e-01,9.99999e-01
6.297549810e-01,4.56787e-01,9.99999e-01,9.99898e-01,4.56833e-01,9.99999e-01
6.329037559e-01,4.63865e-01,9.99999e-01,9.99799e-01,4.63957e-01,9.99999e-01
6.360682746e-01,4.70969e-01,9.99999e-01,9.99829e-01,4.71049e-01,9.99999e-01
6.392486160e-01,4.78000e-01,9.99999e-01,9.99778e-01,4.78106e-01,9.99999e-01
6.424448591e-01,4.84982e-01,9.99999e-01,9.99704e-01,4.85125e-01,9.99999e-01
6.456570834e-01,4.91433e-01,9.99999e-01,9.98630e-01,4.92107e-01,9.99999e-01
6.488853688e-01,4.98545e-01,9.99999e-01,9.98993e-01,4.99047e-01,9.99999e-01
6.521297956e-01,5.05427e-01,9.99999e-01,9.98973e-01,5.05946e-01,9.99999e-01
6.553904446e-01,5.12281e-01,9.99999e-01,9.98985e-01,5.12801e-01,9.99999e-01
6.586673968e-01,5.19156e-01,9.99999e-01,9.99125e-01,5.19611e-01,9.99999e-01
6.619607338e-01,5.26108e-01,9.99999e-01,9.99494e-01,5.26374e-01,9.99999e-01
6.652705375e-01,5.32932e-01,9.99999e-01,9.99706e-01,5.33088e-01,9.99999e-01
6.685968902e-01,5.39680e-01,9.99999e-01,9.99863e-01,5.39754e-01,9.99999e-01
6.719398746e-01,5.46334e-01,9.99999e-01,9.99936e-01,5.46368e-01,9.99999e-01
6.752995740e-01,5.52912e-01,9.99999e-01,9.99965e-01,5.52931e-01,9.99999e-01
6.786760719e-01,5.59413e-01,9.99999e-01,9.99950e-01,5.59440e-01,9.99999e-01
6.820694522e-01,5.65848e-01,9.99999e-01,9.99915e-01,5.65895e-01,9.99999e-01
6.854797995e-01,5.72233e-01,9.99999e-01,9.99891e-01,5.72295e-01,9.99999e-01
6.889071985e-01,5.78488e-01,9.99999e-01,9.99738e-01,5.78639e-01,9.99999e-01
6.923517345e-01,5.82419e-01,9.99999e-01,9.95713e-01,5.84926e-01,9.99999e-01
6.958134932e-01,5.89827e-01,9.99999e-01,9.97753e-01,5.91155e-01,9.99999e-01
6.992925606e-01,5.96060e-01,9.99999e-01,9.97881e-01,5.97325e-01,9.99999e-01
7.027890234e-01,6.01853e-01,9.99999e-01,9.97377e-01,6.03436e-01,9.99999e-01
7.063029686e-01,6.08143e-01,9.99999e-01,9.97796e-01,6.09486e-01,9.99999e-01
7.098344834e-01,6.14175e-01,9.99999e-01,9.97885e-01,6.15477e-01,9.99999e-01
7.133836558e-01,6.19661e-01,9.99999e-01,9.97192e-01,6.21405e-01,9.99999e-01
7.169505741e-01,6.13143e-01,9.99999e-01,9.77474e-01,6.27273e-01,9.99999e-01
7.205353270e-01,6.26027e-01,9.99999e-01,9.88862e-01,6.33078e-01,9.99999e-01
7.241380036e-01,6.29850e-01,9.99999e-01,9.85956e-01,6.38821e-01,9.99999e-01
7.277586936e-01,6.36324e-01,9.99999e-01,9.87314e-01,6.44500e-01,9.99999e-01
7.313974871e-01,6.41340e-01,9.99999e-01,9.86500e-01,6.50117e-01,9.99999e-01
7.350544745e-01,6.50829e-01,9.99999e-01,9.92616e-01,6.55670e-01,9.99999e-01
7.387297469e-01,6.57566e-01,9.99999e-01,9.94564e-01,6.61159e-01,9.99999e-01
7.424233956e-01,6.64810e-01,9.99999e-01,9.97336e-01,6.66585e-01,9.99999e-01
7.461355126e-01,6.70863e-01,9.99999e-01,9.98386e-01,6.71947e-01,9.99999e-01
7.498661902e-01,6.76735e-01,9.99999e-01,9.99247e-01,6.77244e-01,9.99999e-01
7.536155211e-01,6.82227e-01,9.99999e-01,9.99631e-01,6.82478e-01,9.99999e-01
7.573835987e-01,6.87517e-01,9.99999e-01,9.99809e-01,6.87647e-01,9.99999e-01
7.611705167e-01,6.92671e-01,9.99999e-01,9.99881e-01,6.92753e-01,9.99999e-01
7.649763693e-01,6.97742e-01,9.99999e-01,9.99925e-01,6.97794e-01,9.99999e-01
7.688012511e-01,7.02735e-01,9.99999e-01,9.99948e-01,7.02771e-01,9.99999e-01
7.726452574e-01,7.07655e-01,9.99999e-01,9.99957e-01,7.07685e-01,9.99999e-01
7.765084837e-01,7.12492e-01,9.99999e-01,9.99939e-01,7.12534e-01,9.99999e-01
7.803910261e-01,7.05392e-01,9.83621e-01,9.99740e-01,7.17320e-01,9.99999e-01
7.842929812e-01,6.71579e-01,9.30929e-01,9.99096e-01,7.22043e-01,9.99999e-01
7.882144461e-01,6.71780e-01,9.26116e-01,9.98133e-01,7.26703e-01,9.99999e-01
7.921555184e-01,6.99093e-01,9.56928e-01,9.98974e-01,7.31300e-01,9.99999e-01
7.961162960e-01,7.13191e-01,9.70972e-01,9.98194e-01,7.35834e-01,9.99999e-01
8.000968774e-01,7.27075e-01,9.84180e-01,9.97911e-01,7.40306e-01,9.99999e-01
8.040973618e-01,7.37045e-01,9.91767e-01,9.97911e-01,7.44716e-01,9.99999e-01
8.081178486e-01,7.42730e-01,9.96219e-01,9.95302e-01,7.49065e-01,9.99999e-01
8.121584379e-01,7.37794e-01,9.98827e-01,9.80492e-01,7.53352e-01,9.99999e-01
8.162192301e-01,7.39799e-01,9.99740e-01,9.76781e-01,7.57578e-01,9.99999e-01
8.203003262e-01,7.52885e-01,9.99995e-01,9.88373e-01,7.61744e-01,9.99999e-01
8.244018279e-01,7.53286e-01,9.99999e-01,9.83595e-01,7.65850e-01,9.99999e-01
8.285238370e-01,7.59223e-01,9.99999e-01,9.86137e-01,7.69896e-01,9.99999e-01
8.326664562e-01,7.63017e-01,9.99999e-01,9.85958e-01,7.73883e-01,9.99999e-01
8.368297885e-01,7.70006e-01,9.99999e-01,9.89964e-01,7.77811e-01,9.99999e-01
8.410139374e-01,7.77014e-01,9.99999e-01,9.94029e-01,7.81681e-01,9.99999e-01
8.452190071e-01,7.83191e-01,9.99999e-01,9.97068e-01,7.85493e-01,9.99999e-01
8.494451021e-01,7.87908e-01,9.99999e-01,9.98301e-01,7.89249e-01,9.99999e-01
8.536923276e-01,7.92149e-01,9.99999e-01,9.98994e-01,7.92947e-01,9.99999e-01
8.579607893e-01,7.96096e-01,9.99999e-01,9.99381e-01,7.96589e-01,9.99999e-01
8.622505932e-01,7.99861e-01,9.99999e-01,9.99606e-01,8.00175e-01,9.99999e-01
8.665618462e-01,7.68292e-01,9.56162e-01,9.99756e-01,8.03706e-01,9.99999e-01
8.708946554e-01,6.71032e-01,8.31552e-01,9.99721e-01,8.07183e-01,9.99999e-01
8.752491287e-01,6.99702e-01,8.63500e-01,9.99627e-01,8.10605e-01,9.99999e-01
8.796253743e-01,7.51204e-01,9.23351e-01,9.99485e-01,8.13974e-01,9.99999e-01
8.840235012e-01,7.83908e-01,9.59715e-01,9.99411e-01,8.17290e-01,9.99999e-01
8.884436187e-01,8.05658e-01,9.83937e-01,9.97864e-01,8.20554e-01,9.99999e-01
8.928858368e-01,8.00031e-01,9.93474e-01,9.77540e-01,8.23766e-01,9.99999e-01
8.973502660e-01,7.92939e-01,9.98408e-01,9.60413e-01,8.26926e-01,9.99999e-01
9.018370173e-01,8.12912e-01,9.99824e-01,9.79538e-01,8.30036e-01,9.99998e-01
9.063462024e-01,8.14573e-01,9.95527e-01,9.82094e-01,8.33096e-01,9.99998e-01
9.108779334e-01,8.04519e-01,9.89723e-01,9.72154e-01,8.36106e-01,9.99998e-01
9.154323231e-01,8.10630e-01,9.97571e-01,9.68435e-01,8.39068e-01,9.99998e-01
9.200094847e-01,7.92257e-01,9.64299e-01,9.75148e-01,8.41981e-01,9.99998e-01
9.246095321e-01,7.72358e-01,9.50623e-01,9.61246e-01,8.44846e-01,9.99997e-01
9.292325798e-01,6.24262e-01,9.61030e-01,7.64610e-01,8.47664e-01,9.99995e-01
9.338787427e-01,5.78701e-01,9.62304e-01,7.05565e-01,8.50436e-01,9.99994e-01
9.385481364e-01,7.21559e-01,9.72232e-01,8.69184e-01,8.53162e-01,9.99994e-01
9.432408771e-01,6.91093e-01,9.82919e-01,8.21132e-01,8.55842e-01,9.99993e-01
9.479570815e-01,6.46296e-01,9.91211e-01,7.59321e-01,8.58478e-01,9.99994e-01
9.526968669e-01,6.99294e-01,9.95749e-01,8.15424e-01,8.61069e-01,9.99995e-01
9.574603512e-01,7.17470e-01,9.98180e-01,8.32239e-01,8.63617e-01,9.99996e-01
9.622476530e-01,7.45917e-01,9.99431e-01,8.61691e-01,8.66122e-01,9.99997e-01
9.670588912e-01,7.97244e-01,9.99829e-01,9.18019e-01,8.68584e-01,9.99998e-01
9.718941857e-01,8.25924e-01,9.99987e-01,9.48253e-01,8.71005e-01,9.99998e-01
9.767536566e-01,8.35724e-01,9.99999e-01,9.56880e-01,8.73384e-01,9.99999e-01
9.816374249e-01,8.47592e-01,9.99999e-01,9.67877e-01,8.75723e-01,9.99999e-01
9.865456120e-01,8.60307e-01,9.99999e-01,9.79824e-01,8.78021e-01,9.99999e-01
9.914783401e-01,8.69271e-01,9.99999e-01,9.87492e-01,8.80280e-01,9.99999e-01
9.964357318e-01,8.76474e-01,9.99999e-01,9.93170e-01,8.82500e-01,9.99999e-01
1.001417910e+00,8.81057e-01,9.99999e-01,9.95902e-01,8.84682e-01,9.99999e-01
1.006425000e+00,8.84755e-01,9.99999e-01,9.97664e-01,8.86826e-01,9.99999e-01
1.011457125e+00,8.87642e-01,9.99999e-01,9.98548e-01,8.88932e-01,9.99999e-01
1.016514411e+00,8.90124e-01,9.99999e-01,9.99014e-01,8.91002e-01,9.99999e-01
1.021596983e+00,8.92314e-01,9.99976e-01,9.99215e-01,8.93035e-01,9.99999e-01
1.026704968e+00,8.92933e-01,9.98263e-01,9.99387e-01,8.95033e-01,9.99999e-01
1.031838492e+00,8.73974e-01,9.74759e-01,9.99554e-01,8.96996e-01,9.99999e-01
1.036997685e+00,2.66852e-01,2.96924e-01,9.99735e-01,8.98924e-01,9.99999e-01
1.042182673e+00,3.19661e-01,3.54961e-01,9.99685e-01,9.00818e-01,9.99999e-01
1.047393587e+00,2.96324e-01,3.28397e-01,9.99582e-01,9.02678e-01,9.99999e-01
1.052630555e+00,4.74669e-02,5.25022e-02,9.99427e-01,9.04505e-01,9.99999e-01
1.057893707e+00,8.79479e-02,9.71140e-02,9.99044e-01,9.06300e-01,9.99999e-01
1.063183176e+00,1.67796e-01,1.85022e-01,9.98427e-01,9.08063e-01,9.99999e-01
1.068499092e+00,2.95177e-01,3.25225e-01,9.97366e-01,9.09795e-01,9.99999e-01
1.073841587e+00,4.47334e-01,4.92154e-01,9.96918e-01,9.11495e-01,9.99999e-01
1.079210795e+00,5.81878e-01,6.39625e-01,9.96049e-01,9.13165e-01,9.99999e-01
1.084606849e+00,7.12612e-01,7.83551e-01,9.94026e-01,9.14805e-01,9.99999e-01
1.090029883e+00,8.00940e-01,8.81440e-01,9.91438e-01,9.16416e-01,9.99999e-01
1.095480033e+00,8.42788e-01,9.39746e-01,9.76819e-01,9.17997e-01,9.99998e-01
1.100957433e+00,8.40836e-01,9.70552e-01,9.42006e-01,9.19550e-01,9.99998e-01
1.106462220e+00,7.80977e-01,9.87717e-01,8.58259e-01,9.21074e-01,9.99997e-01
1.111994531e+00,6.64284e-01,9.95431e-01,7.23224e-01,9.22571e-01,9.99995e-01
1.117554504e+00,5.44624e-01,9.98881e-01,5.89992e-01,9.24041e-01,9.99993e-01
1.123142276e+00,6.22910e-01,9.99925e-01,6.73103e-01,9.25484e-01,9.99992e-01
1.128757988e+00,7.22326e-01,9.99999e-01,7.79297e-01,9.26901e-01,9.99991e-01
1.134401778e+00,5.09071e-01,9.99999e-01,5.48400e-01,9.28291e-01,9.99990e-01
1.140073787e+00,8.02800e-01,9.99999e-01,8.63550e-01,9.29657e-01,9.99992e-01
1.145774156e+00,6.82853e-01,9.99999e-01,7.33468e-01,9.30997e-01,9.99993e-01
1.151503026e+00,6.58608e-01,9.99999e-01,7.06427e-01,9.32313e-01,9.99994e-01
1.157260541e+00,7.02340e-01,9.99999e-01,7.52291e-01,9.33604e-01,9.99995e-01
1.163046844e+00,7.57873e-01,9.99999e-01,8.10671e-01,9.34872e-01,9.99996e-01
1.168862078e+00,8.09845e-01,9.99999e-01,8.65111e-01,9.36117e-01,9.99998e-01
1.174706389e+00,8.57198e-01,9.99999e-01,9.14502e-01,9.37338e-01,9.99998e-01
1.180579921e+00,8.88871e-01,9.99999e-01,9.47081e-01,9.38537e-01,9.99999e-01
1.186482820e+00,9.11333e-01,9.99996e-01,9.69801e-01,9.39714e-01,9.99999e-01
1.192415234e+00,9.18472e-01,9.93767e-01,9.82284e-01,9.40869e-01,9.99999e-01
1.198377311e+00,5.47122e-01,5.88217e-01,9.85056e-01,9.42002e-01,9.99999e-01
1.204369197e+00,2.00405e-06,2.14247e-06,9.85840e-01,9.43114e-01,9.99999e-01
1.210391043e+00,3.48663e-20,3.72067e-20,9.86460e-01,9.44206e-01,9.99999e-01
1.216442998e+00,1.02027e-17,1.08710e-17,9.88462e-01,9.45277e-01,9.99999e-01
1.222525213e+00,1.85602e-17,1.97059e-17,9.91013e-01,9.46329e-01,9.99999e-01
1.228637839e+00,2.02581e-13,2.14796e-13,9.93754e-01,9.47360e-01,9.99999e-01
1.234781029e+00,2.32985e-09,2.46179e-09,9.95357e-01,9.48373e-01,9.99999e-01
1.240954934e+00,2.28213e-06,2.40860e-06,9.97063e-01,9.49366e-01,9.99999e-01
1.247159708e+00,6.77366e-04,7.13937e-04,9.97712e-01,9.50341e-01,9.99999e-01
1.253395507e+00,1.76591e-02,1.85941e-02,9.97969e-01,9.51298e-01,9.99999e-01
1.259662485e+00,9.92318e-02,1.04386e-01,9.98073e-01,9.52236e-01,9.99999e-01
1.265960797e+00,2.56217e-01,2.69552e-01,9.96919e-01,9.53157e-01,9.99999e-01
1.272290601e+00,5.55355e-01,5.84797e-01,9.95168e-01,9.54061e-01,9.99999e-01
1.278652054e+00,4.92765e-01,5.20376e-01,9.90405e-01,9.54948e-01,9.99999e-01
1.285045314e+00,4.34385e-02,4.58560e-02,9.84957e-01,9.55817e-01,9.99999e-01
1.291470541e+00,4.61592e-03,4.93571e-03,9.69983e-01,9.56671e-01,9.99998e-01
1.297927893e+00,4.66216e-02,4.99272e-02,9.60946e-01,9.57508e-01,9.99998e-01
1.304417533e+00,3.45399e-01,3.78351e-01,9.49931e-01,9.58330e-01,9.99997e-01
1.310939621e+00,1.01299e-01,1.09626e-01,9.42930e-01,9.59136e-01,9.99996e-01
1.317494319e+00,2.19903e-07,2.38695e-07,9.38119e-01,9.59927e-01,9.99993e-01
1.324081790e+00,1.67608e-05,1.83468e-05,9.08602e-01,9.60702e-01,9.99990e-01
1.330702199e+00,2.38398e-03,3.16308e-03,6.61103e-01,9.61464e-01,9.99984e-01
1.337355710e+00,1.09173e-03,2.21153e-03,3.60567e-01,9.62210e-01,9.99970e-01
1.344042489e+00,1.95226e-04,7.92679e-04,6.20268e-02,9.62943e-01,9.99937e-01
1.350762701e+00,2.05780e-05,2.45199e-03,4.26219e-03,9.63661e-01,9.99900e-01
1.357516515e+00,2.60640e-05,1.89240e-02,7.35686e-04,9.64366e-01,9.99877e-01
1.364304097e+00,8.24188e-04,8.53802e-02,7.32211e-03,9.65057e-01,9.99868e-01
1.371125618e+00,1.21266e-02,2.71583e-01,3.75610e-02,9.65735e-01,9.99867e-01
1.377981246e+00,2.28485e-02,3.54290e-01,6.11730e-02,9.66401e-01,9.99857e-01
1.384871152e+00,3.55595e-03,5.46442e-01,6.13690e-03,9.67053e-01,9.99858e-01
1.391795508e+00,5.99969e-03,5.72361e-01,1.00230e-02,9.67693e-01,9.99878e-01
1.398754485e+00,1.28245e-02,7.09777e-01,1.81648e-02,9.68321e-01,9.99898e-01
1.405748258e+00,1.35752e-02,7.76295e-01,1.73579e-02,9.68937e-01,9.99909e-01
1.412776999e+00,1.65750e-02,8.52470e-01,1.96163e-02,9.69541e-01,9.99926e-01
1.419840884e+00,2.12612e-02,7.92798e-01,2.47097e-02,9.70134e-01,9.99945e-01
1.426940089e+00,1.49439e-02,1.08264e-01,5.62794e-02,9.70715e-01,9.99965e-01
1.434074789e+00,2.22875e-283,8.18336e-283,1.09663e-01,9.71285e-01,9.99978e-01
1.441245163e+00,0.00000e+00,0.00000e+00,1.96813e-01,9.71844e-01,9.99983e-01
1.448451389e+00,0.00000e+00,0.00000e+00,3.10422e-01,9.72393e-01,9.99986e-01
1.455693646e+00,9.64430e-154,1.44378e-153,4.71771e-01,9.72930e-01,9.99988e-01
1.462972114e+00,3.38406e-75,5.06335e-75,5.27771e-01,9.73458e-01,9.99989e-01
1.470286975e+00,2.25682e-32,3.47839e-32,4.72830e-01,9.73975e-01,9.99990e-01
