#,Wave/freq,Total,CO2,H2O,Rayleigh,CIA
4.000000000e-01,6.96497e-08,9.99999e-01,9.99967e-01,6.96520e-08,9.99999e-01
4.020000000e-01,9.64813e-08,9.99999e-01,9.99979e-01,9.64832e-08,9.99999e-01
4.040100000e-01,1.32746e-07,9.99999e-01,9.99990e-01,1.32747e-07,9.99999e-01
4.060300500e-01,1.81494e-07,9.99999e-01,9.99997e-01,1.81495e-07,9.99999e-01
4.080602003e-01,2.46614e-07,9.99999e-01,9.99998e-01,2.46614e-07,9.99999e-01
4.101005013e-01,3.33075e-07,9.99999e-01,9.99999e-01,3.33075e-07,9.99999e-01
4.121510038e-01,4.47185e-07,9.99999e-01,9.99998e-01,4.47185e-07,9.99999e-01
4.142117588e-01,5.96901e-07,9.99999e-01,9.99990e-01,5.96906e-07,9.99999e-01
4.162828176e-01,7.92191e-07,9.99999e-01,9.99959e-01,7.92223e-07,9.99999e-01
4.183642317e-01,1.04556e-06,9.99999e-01,9.99975e-01,1.04559e-06,9.99999e-01
4.204560528e-01,1.37242e-06,9.99999e-01,9.99984e-01,1.37244e-06,9.99999e-01
4.225583331e-01,1.79180e-06,9.99999e-01,9.99994e-01,1.79181e-06,9.99999e-01
4.246711247e-01,2.32703e-06,9.99999e-01,9.99995e-01,2.32704e-06,9.99999e-01
4.267944804e-01,3.00656e-06,9.99999e-01,9.99993e-01,3.00658e-06,9.99999e-01
4.289284528e-01,3.86494e-06,9.99999e-01,9.99994e-01,3.86496e-06,9.99999e-01
4.310730950e-01,4.94380e-06,9.99999e-01,9.99997e-01,4.94381e-06,9.99999e-01
4.332284605e-01,6.29314e-06,9.99999e-01,9.99998e-01,6.29314e-06,9.99999e-01
4.353946028e-01,7.97265e-06,9.99999e-01,9.99999e-01,7.97265e-06,9.99999e-01
4.375715758e-01,1.00533e-05,9.99999e-01,9.99995e-01,1.00533e-05,9.99999e-01
4.397594337e-01,1.26186e-05,9.99999e-01,9.99964e-01,1.26190e-05,9.99999e-01
4.419582309e-01,1.57658e-05,9.99999e-01,9.99823e-01,1.57686e-05,9.99999e-01
4.441680220e-01,1.96149e-05,9.99999e-01,9.99859e-01,1.96177e-05,9.99999e-01
4.463888621e-01,2.42978e-05,9.99999e-01,9.99854e-01,2.43013e-05,9.99999e-01
4.486208064e-01,2.99734e-05,9.99999e-01,9.99909e-01,2.99761e-05,9.99999e-01
4.508639105e-01,3.68215e-05,9.99999e-01,9.99957e-01,3.68231e-05,9.99999e-01
4.531182300e-01,4.50498e-05,9.99999e-01,9.99982e-01,4.50505e-05,9.99999e-01
4.553838212e-01,5.48966e-05,9.99999e-01,9.99988e-01,5.48972e-05,9.99999e-01
4.576607403e-01,6.66350e-05,9.99999e-01,9.99994e-01,6.66353e-05,9.99999e-01
4.599490440e-01,8.05740e-05,9.99999e-01,9.99995e-01,8.05743e-05,9.99999e-01
4.622487892e-01,9.70642e-05,9.99999e-01,9.99998e-01,9.70643e-05,9.99999e-01
4.645600332e-01,1.16499e-04,9.99999e-01,9.99997e-01,1.16500e-04,9.99999e-01
4.668828333e-01,1.39318e-04,9.99999e-01,9.99957e-01,1.39324e-04,9.99999e-01
4.692172475e-01,1.66016e-04,9.99999e-01,9.99908e-01,1.66031e-04,9.99999e-01
4.715633337e-01,1.97163e-04,9.99999e-01,9.99940e-01,1.97174e-04,9.99999e-01
4.739211504e-01,2.33352e-04,9.99999e-01,9.99942e-01,2.33365e-04,9.99999e-01
4.762907561e-01,2.75273e-04,9.99999e-01,9.99969e-01,2.75281e-04,9.99999e-01
4.786722099e-01,3.23664e-04,9.99999e-01,9.99987e-01,3.23668e-04,9.99999e-01
4.810655710e-01,3.79343e-04,9.99999e-01,9.99995e-01,3.79345e-04,9.99999e-01
4.834708988e-01,4.43192e-04,9.99999e-01,9.99965e-01,4.43207e-04,9.99999e-01
4.858882533e-01,5.16198e-04,9.99999e-01,9.99935e-01,5.16231e-04,9.99999e-01
4.883176946e-01,5.99447e-04,9.99999e-01,9.99945e-01,5.99479e-04,9.99999e-01
4.907592831e-01,6.94064e-04,9.99999e-01,9.99950e-01,6.94098e-04,9.99999e-01
4.932130795e-01,8.01301e-04,9.99999e-01,9.99964e-01,8.01329e-04,9.99999e-01
4.956791449e-01,9.22487e-04,9.99999e-01,9.99981e-01,9.22503e-04,9.99999e-01
4.981575406e-01,1.05896e-03,9.99999e-01,9.99908e-01,1.05905e-03,9.99999e-01
5.006483283e-01,1.21222e-03,9.99999e-01,9.99765e-01,1.21250e-03,9.99999e-01
5.031515699e-01,1.38283e-03,9.99999e-01,9.98803e-01,1.38448e-03,9.99999e-01
5.056673278e-01,1.57572e-03,9.99999e-01,9.99366e-01,1.57672e-03,9.99999e-01
5.081956644e-01,1.78961e-03,9.99999e-01,9.99200e-01,1.79104e-03,9.99999e-01
5.107366428e-01,2.02828e-03,9.99999e-01,9.99459e-01,2.02938e-03,9.99999e-01
5.132903260e-01,2.29306e-03,9.99999e-01,9.99690e-01,2.29377e-03,9.99999e-01
5.158567776e-01,2.58600e-03,9.99999e-01,9.99868e-01,2.58634e-03,9.99999e-01
5.184360615e-01,2.90916e-03,9.99999e-01,9.99947e-01,2.90932e-03,9.99999e-01
5.210282418e-01,3.26497e-03,9.99999e-01,9.99980e-01,3.26503e-03,9.99999e-01
5.236333830e-01,3.65561e-03,9.99999e-01,9.99921e-01,3.65590e-03,9.99999e-01
5.262515499e-01,4.08423e-03,9.99999e-01,9.99950e-01,4.08443e-03,9.99999e-01
5.288828077e-01,4.55300e-03,9.99999e-01,9.99954e-01,4.55320e-03,9.99999e-01
5.315272217e-01,5.06470e-03,9.99999e-01,9.99959e-01,5.06490e-03,9.99999e-01
5.341848578e-01,5.62212e-03,9.99999e-01,9.99973e-01,5.62227e-03,9.99999e-01
5.368557821e-01,6.22755e-03,9.99999e-01,9.99909e-01,6.22811e-03,9.99999e-01
5.395400610e-01,6.88307e-03,9.99999e-01,9.99674e-01,6.88531e-03,9.99999e-01
5.422377613e-01,7.59355e-03,9.99999e-01,9.99574e-01,7.59678e-03,9.99999e-01
5.449489501e-01,8.36222e-03,9.99999e-01,9.99606e-01,8.36551e-03,9.99999e-01
5.476736949e-01,9.19128e-03,9.99999e-01,9.99648e-01,9.19451e-03,9.99999e-01
5.504120634e-01,1.00842e-02,9.99999e-01,9.99745e-01,1.00868e-02,9.99999e-01
5.531641237e-01,1.10441e-02,9.99999e-01,9.99871e-01,1.10455e-02,9.99999e-01
5.559299443e-01,1.20728e-02,9.99999e-01,9.99937e-01,1.20736e-02,9.99999e-01
5.587095940e-01,1.31737e-02,9.99999e-01,9.99960e-01,1.31742e-02,9.99999e-01
5.615031420e-01,1.43498e-02,9.99999e-01,9.99956e-01,1.43504e-02,9.99999e-01
5.643106577e-01,1.56045e-02,9.99999e-01,9.99951e-01,1.56053e-02,9.99999e-01
5.671322110e-01,1.69319e-02,9.99999e-01,9.99417e-01,1.69418e-02,9.99999e-01
5.699678720e-01,1.83512e-02,9.99999e-01,9.99363e-01,1.83629e-02,9.99999e-01
5.728177114e-01,1.98586e-02,9.99999e-01,9.99344e-01,1.98716e-02,9.99999e-01
5.756818000e-01,2.14578e-02,9.99999e-01,9.99397e-01,2.14707e-02,9.99999e-01
5.785602090e-01,2.31509e-02,9.99999e-01,9.99473e-01,2.31631e-02,9.99999e-01
5.814530100e-01,2.49383e-02,9.99999e-01,9.99472e-01,2.49515e-02,9.99999e-01
5.843602750e-01,2.68217e-02,9.99999e-01,9.99375e-01,2.68385e-02,9.99999e-01
5.872820764e-01,2.86716e-02,9.99999e-01,9.94623e-01,2.88266e-02,9.99999e-01
5.902184868e-01,3.07153e-02,9.99999e-01,9.93431e-01,3.09184e-02,9.99999e-01
5.931695792e-01,3.29627e-02,9.99999e-01,9.95370e-01,3.31160e-02,9.99999e-01
5.961354271e-01,3.52417e-02,9.99999e-01,9.94914e-01,3.54219e-02,9.99999e-01
5.991161043e-01,3.76973e-02,9.99999e-01,9.96285e-01,3.78379e-02,9.99999e-01
6.021116848e-01,4.02808e-02,9.99999e-01,9.97888e-01,4.03660e-02,9.99999e-01
6.051222432e-01,4.29622e-02,9.99999e-01,9.98930e-01,4.30082e-02,9.99999e-01
6.081478544e-01,4.57448e-02,9.99999e-01,9.99538e-01,4.57659e-02,9.99999e-01
6.111885937e-01,4.86311e-02,9.99999e-01,9.99804e-01,4.86406e-02,9.99999e-01
6.142445367e-01,5.16293e-02,9.99999e-01,9.99912e-01,5.16338e-02,9.99999e-01
6.173157594e-01,5.47440e-02,9.99999e-01,9.99951e-01,5.47466e-02,9.99999e-01
6.204023382e-01,5.79776e-02,9.99999e-01,9.99959e-01,5.79799e-02,9.99999e-01
6.235043498e-01,6.13239e-02,9.99999e-01,9.99824e-01,6.13346e-02,9.99999e-01
6.266218716e-01,6.47503e-02,9.99999e-01,9.99055e-01,6.48114e-02,9.99999e-01
6.297549810e-01,6.83871e-02,9.99999e-01,9.99653e-01,6.84108e-02,9.99999e-01
6.329037559e-01,7.20835e-02,9.99999e-01,9.99313e-01,7.21329e-02,9.99999e-01
6.360682746e-01,7.59339e-02,9.99999e-01,9.99417e-01,7.59781e-02,9.99999e-01
6.392486160e-01,7.98857e-02,9.99999e-01,9.99243e-01,7.99461e-02,9.99999e-01
6.424448591e-01,8.39526e-02,9.99999e-01,9.98995e-01,8.40369e-02,9.99999e-01
6.456570834e-01,8.78391e-02,9.99999e-01,9.95343e-01,8.82499e-02,9.99999e-01
6.488853688e-01,9.22107e-02,9.99999e-01,9.95960e-01,9.25847e-02,9.99999e-01
6.521297956e-01,9.66998e-02,9.99999e-01,9.96490e-01,9.70404e-02,9.99999e-01
6.553904446e-01,1.01264e-01,9.99999e-01,9.96534e-01,1.01616e-01,9.99999e-01
6.586673968e-01,1.05992e-01,9.99999e-01,9.97004e-01,1.06311e-01,9.99999e-01
6.619607338e-01,1.10931e-01,9.99999e-01,9.98267e-01,1.11123e-01,9.99999e-01
6.652705375e-01,1.15935e-01,9.99999e-01,9.98994e-01,1.16052e-01,9.99999e-01
6.685968902e-01,1.21039e-01,9.99999e-01,9.99532e-01,1.21096e-01,9.99999e-01
6.719398746e-01,1.26225e-01,9.99999e-01,9.99783e-01,1.26252e-01,9.99999e-01
6.752995740e-01,1.31505e-01,9.99999e-01,9.99882e-01,1.31520e-01,9.99999e-01
6.786760719e-01,1.36874e-01,9.99999e-01,9.99832e-01,1.36897e-01,9.99999e-01
6.820694522e-01,1.42340e-01,9.99999e-01,9.99711e-01,1.42381e-01,9.99999e-01
6.854797995e-01,1.47915e-01,9.99999e-01,9.99628e-01,1.47970e-01,9.99999e-01
6.889071985e-01,1.53525e-01,9.99999e-01,9.99114e-01,1.53661e-01,9.99999e-01
6.923517345e-01,1.57137e-01,9.99999e-01,9.85474e-01,1.59453e-01,9.99999e-01
6.958134932e-01,1.64065e-01,9.99999e-01,9.92281e-01,1.65341e-01,9.99999e-01
6.992925606e-01,1.70091e-01,9.99999e-01,9.92797e-01,1.71325e-01,9.99999e-01
7.027890234e-01,1.75812e-01,9.99999e-01,9.91047e-01,1.77400e-01,9.99999e-01
7.063029686e-01,1.82184e-01,9.99999e-01,9.92475e-01,1.83565e-01,9.99999e-01
7.098344834e-01,1.88445e-01,9.99999e-01,9.92778e-01,1.89815e-01,9.99999e-01
7.133836558e-01,1.94286e-01,9.99999e-01,9.90502e-01,1.96149e-01,9.99999e-01
7.169505741e-01,1.87524e-01,9.99999e-01,9.25759e-01,2.02563e-01,9.99998e-01
7.205353270e-01,2.01176e-01,9.99999e-01,9.62321e-01,2.09053e-01,9.99998e-01
7.241380036e-01,2.05488e-01,9.99999e-01,9.53023e-01,2.15617e-01,9.99998e-01
7.277586936e-01,2.12801e-01,9.99999e-01,9.57476e-01,2.22251e-01,9.99998e-01
7.313974871e-01,2.18548e-01,9.99999e-01,9.54553e-01,2.28953e-01,9.99998e-01
7.350544745e-01,2.29815e-01,9.99999e-01,9.74956e-01,2.35718e-01,9.99999e-01
7.387297469e-01,2.38056e-01,9.99999e-01,9.81496e-01,2.42543e-01,9.99999e-01
7.424233956e-01,2.47152e-01,9.99999e-01,9.90884e-01,2.49426e-01,9.99999e-01
7.461355126e-01,2.54946e-01,9.99999e-01,9.94476e-01,2.56362e-01,9.99999e-01
7.498661902e-01,2.62668e-01,9.99999e-01,9.97418e-01,2.63348e-01,9.99999e-01
7.536155211e-01,2.70039e-01,9.99999e-01,9.98736e-01,2.70381e-01,9.99999e-01
7.573835987e-01,2.77277e-01,9.99999e-01,9.99348e-01,2.77457e-01,9.99999e-01
7.611705167e-01,2.84458e-01,9.99999e-01,9.99595e-01,2.84573e-01,9.99999e-01
7.649763693e-01,2.91652e-01,9.99999e-01,9.99746e-01,2.91726e-01,9.99999e-01
7.688012511e-01,2.98859e-01,9.99999e-01,9.99823e-01,2.98912e-01,9.99999e-01
7.726452574e-01,3.06083e-01,9.99999e-01,9.99854e-01,3.06128e-01,9.99999e-01
7.765084837e-01,3.13306e-01,9.99999e-01,9.99795e-01,3.13370e-01,9.99999e-01
7.803910261e-01,3.04781e-01,9.51351e-01,9.99118e-01,3.20635e-01,9.99999e-01
7.842929812e-01,2.57906e-01,7.88737e-01,9.96927e-01,3.27921e-01,9.99999e-01
7.882144461e-01,2.59087e-01,7.77544e-01,9.93627e-01,3.35223e-01,9.99999e-01
7.921555184e-01,2.94092e-01,8.61485e-01,9.96485e-01,3.42538e-01,9.99999e-01
7.961162960e-01,3.14398e-01,9.04097e-01,9.93858e-01,3.49865e-01,9.99999e-01
8.000968774e-01,3.35820e-01,9.46869e-01,9.92870e-01,3.57198e-01,9.99999e-01
8.040973618e-01,3.51812e-01,9.71998e-01,9.92877e-01,3.64536e-01,9.99999e-01
8.081178486e-01,3.61257e-01,9.87096e-01,9.84110e-01,3.71875e-01,9.99999e-01
8.121584379e-01,3.53273e-01,9.95966e-01,9.35311e-01,3.79212e-01,9.99998e-01
8.162192301e-01,3.56477e-01,9.99107e-01,9.23012e-01,3.86546e-01,9.99998e-01
8.203003262e-01,3.78755e-01,9.99984e-01,9.61634e-01,3.93871e-01,9.99998e-01
8.244018279e-01,3.79391e-01,9.99999e-01,9.45671e-01,4.01187e-01,9.99998e-01
8.285238370e-01,3.89522e-01,9.99999e-01,9.53563e-01,4.08491e-01,9.99998e-01
8.326664562e-01,3.96198e-01,9.99999e-01,9.52905e-01,4.15779e-01,9.99998e-01
8.368297885e-01,4.08689e-01,9.99999e-01,9.66055e-01,4.23049e-01,9.99999e-01
8.410139374e-01,4.21557e-01,9.99999e-01,9.79683e-01,4.30299e-01,9.99999e-01
8.452190071e-01,4.33141e-01,9.99999e-01,9.89977e-01,4.37526e-01,9.99999e-01
8.494451021e-01,4.42147e-01,9.99999e-01,9.94193e-01,4.44729e-01,9.99999e-01
8.536923276e-01,4.50346e-01,9.99999e-01,9.96552e-01,4.51904e-01,9.99999e-01
8.579607893e-01,4.58078e-01,9.99999e-01,9.97881e-01,4.59050e-01,9.99999e-01
8.622505932e-01,4.65536e-01,9.99999e-01,9.98650e-01,4.66164e-01,9.99999e-01
8.665618462e-01,4.28734e-01,9.06661e-01,9.99168e-01,4.73245e-01,9.99999e-01
8.708946554e-01,2.65333e-01,5.52940e-01,9.99049e-01,4.80291e-01,9.99999e-01
8.752491287e-01,2.99774e-01,6.15925e-01,9.98727e-01,4.87299e-01,9.99999e-01
8.796253743e-01,3.77012e-01,7.64050e-01,9.98243e-01,4.94267e-01,9.99999e-01
8.840235012e-01,4.34752e-01,8.69134e-01,9.97992e-01,5.01195e-01,9.99999e-01
8.884436187e-01,4.77204e-01,9.45926e-01,9.92813e-01,5.08081e-01,9.99999e-01
8.928858368e-01,4.66396e-01,9.77777e-01,9.26066e-01,5.14922e-01,9.99998e-01
8.973502660e-01,4.52523e-01,9.94524e-01,8.71997e-01,5.21717e-01,9.99997e-01
9.018370173e-01,4.92267e-01,9.99393e-01,9.32043e-01,5.28465e-01,9.99997e-01
9.063462024e-01,4.96318e-01,9.85102e-01,9.40747e-01,5.35165e-01,9.99997e-01
9.108779334e-01,4.75564e-01,9.65237e-01,9.08725e-01,5.41814e-01,9.99997e-01
9.154323231e-01,4.87803e-01,9.91657e-01,8.96716e-01,5.48413e-01,9.99996e-01
9.200094847e-01,4.57446e-01,8.91932e-01,9.18040e-01,5.54959e-01,9.99996e-01
9.246095321e-01,4.16592e-01,8.41389e-01,8.77976e-01,5.61452e-01,9.99993e-01
9.292325798e-01,2.13404e-01,8.75144e-01,4.21222e-01,5.67890e-01,9.99986e-01
9.338787427e-01,1.67266e-01,8.77635e-01,3.25649e-01,5.74272e-01,9.99983e-01
9.385481364e-01,3.37439e-01,9.08341e-01,6.34658e-01,5.80598e-01,9.99982e-01
9.432408771e-01,2.99709e-01,9.42585e-01,5.39308e-01,5.86867e-01,9.99980e-01
9.479570815e-01,2.47374e-01,9.70194e-01,4.28949e-01,5.93078e-01,9.99983e-01
9.526968669e-01,3.09499e-01,9.85497e-01,5.23155e-01,5.99230e-01,9.99987e-01
9.574603512e-01,3.28327e-01,9.93768e-01,5.45467e-01,6.05322e-01,9.99990e-01
9.622476530e-01,3.71056e-01,9.98050e-01,6.08022e-01,6.11354e-01,9.99993e-01
9.670588912e-01,4.62949e-01,9.99414e-01,7.50335e-01,6.17325e-01,9.99995e-01
9.718941857e-01,5.20212e-01,9.99957e-01,8.34729e-01,6.23235e-01,9.99997e-01
9.767536566e-01,5.41469e-01,9.99999e-01,8.60729e-01,6.29083e-01,9.99997e-01
9.816374249e-01,5.67867e-01,9.99999e-01,8.94463e-01,6.34869e-01,9.99998e-01
9.865456120e-01,5.97432e-01,9.99999e-01,9.32624e-01,6.40592e-01,9.99998e-01
9.914783401e-01,6.18985e-01,9.99999e-01,9.57806e-01,6.46252e-01,9.99999e-01
9.964357318e-01,6.36721e-01,9.99999e-01,9.76792e-01,6.51849e-01,9.99999e-01
1.001417910e+00,6.48194e-01,9.99999e-01,9.86022e-01,6.57382e-01,9.99999e-01
1.006425000e+00,6.57566e-01,9.99999e-01,9.92024e-01,6.62852e-01,9.99999e-01
1.011457125e+00,6.64937e-01,9.99999e-01,9.95030e-01,6.68258e-01,9.99999e-01
1.016514411e+00,6.71329e-01,9.99999e-01,9.96628e-01,6.73600e-01,9.99999e-01
1.021596983e+00,6.77006e-01,9.99926e-01,9.97314e-01,6.78877e-01,9.99999e-01
1.026704968e+00,6.78678e-01,9.94164e-01,9.97906e-01,6.84091e-01,9.99999e-01
1.031838492e+00,6.48898e-01,9.42852e-01,9.98475e-01,6.89240e-01,9.99999e-01
1.036997685e+00,7.03209e-02,1.01350e-01,9.99095e-01,6.94326e-01,9.99999e-01
1.042182673e+00,2.77288e-02,3.96854e-02,9.98925e-01,6.99347e-01,9.99999e-01
1.047393587e+00,4.43496e-02,6.30472e-02,9.98572e-01,7.04305e-01,9.99999e-01
1.052630555e+00,2.27873e-04,3.21744e-04,9.98044e-01,7.09198e-01,9.99999e-01
1.057893707e+00,7.10164e-04,9.96546e-04,9.96741e-01,7.14028e-01,9.99999e-01
1.063183176e+00,4.19294e-03,5.85388e-03,9.94637e-01,7.18795e-01,9.99999e-01
1.068499092e+00,1.81347e-02,2.52420e-02,9.91024e-01,7.23498e-01,9.99999e-01
1.073841587e+00,6.94271e-02,9.61576e-02,9.89522e-01,7.28138e-01,9.99999e-01
1.079210795e+00,1.64447e-01,2.27089e-01,9.86549e-01,7.32715e-01,9.99999e-01
1.084606849e+00,3.16930e-01,4.38150e-01,9.79741e-01,7.37230e-01,9.99998e-01
1.090029883e+00,4.69456e-01,6.50936e-01,9.71182e-01,7.41683e-01,9.99998e-01
1.095480033e+00,5.57968e-01,8.08912e-01,9.23288e-01,7.46074e-01,9.99997e-01
1.100957433e+00,5.54324e-01,9.02748e-01,8.16929e-01,7.50403e-01,9.99995e-01
1.106462220e+00,4.36602e-01,9.58512e-01,6.02208e-01,7.54671e-01,9.99991e-01
1.111994531e+00,2.59182e-01,9.84413e-01,3.46376e-01,7.58879e-01,9.99984e-01
1.117554504e+00,1.39471e-01,9.96156e-01,1.83310e-01,7.63026e-01,9.99978e-01
1.123142276e+00,2.27602e-01,9.99745e-01,2.96732e-01,7.67113e-01,9.99974e-01
1.128757988e+00,3.46870e-01,9.99999e-01,4.49826e-01,7.71141e-01,9.99971e-01
1.134401778e+00,1.70868e-01,9.99999e-01,2.20450e-01,7.75110e-01,9.99968e-01
1.140073787e+00,4.79592e-01,9.99999e-01,6.15650e-01,7.79020e-01,9.99974e-01
1.145774156e+00,2.90306e-01,9.99999e-01,3.70829e-01,7.82872e-01,9.99978e-01
1.151503026e+00,2.62936e-01,9.99999e-01,3.34247e-01,7.86666e-01,9.99981e-01
1.157260541e+00,3.08279e-01,9.99999e-01,3.90032e-01,7.90404e-01,9.99985e-01
1.163046844e+00,3.94130e-01,9.99999e-01,4.96336e-01,7.94084e-01,9.99990e-01
1.168862078e+00,4.87786e-01,9.99999e-01,6.11486e-01,7.97709e-01,9.99995e-01
1.174706389e+00,5.91430e-01,9.99999e-01,7.38109e-01,8.01278e-01,9.99997e-01
1.180579921e+00,6.68635e-01,9.99999e-01,8.30818e-01,8.04792e-01,9.99998e-01
1.186482820e+00,7.27802e-01,9.99991e-01,9.00471e-01,8.08252e-01,9.99998e-01
1.192415234e+00,7.48214e-01,9.79623e-01,9.40664e-01,8.11658e-01,9.99998e-01
1.198377311e+00,4.28594e-01,5.48971e-01,9.49843e-01,8.15010e-01,9.99998e-01
1.204369197e+00,1.50518e-16,1.89188e-16,9.52472e-01,8.18310e-01,9.99998e-01
1.210391043e+00,1.21671e-63,1.51980e-63,9.54470e-01,8.21557e-01,9.99998e-01
1.216442998e+00,3.21012e-55,3.98882e-55,9.61061e-01,8.24753e-01,9.99999e-01
1.222525213e+00,2.10326e-54,2.58116e-54,9.69566e-01,8.27898e-01,9.99999e-01
1.228637839e+00,4.12284e-42,5.03434e-42,9.78782e-01,8.30992e-01,9.99999e-01
1.234781029e+00,1.12306e-26,1.35582e-26,9.84186e-01,8.34037e-01,9.99999e-01
1.240954934e+00,6.64930e-18,7.99455e-18,9.89981e-01,8.37032e-01,9.99999e-01
1.247159708e+00,2.87975e-09,3.44423e-09,9.92184e-01,8.39978e-01,9.99999e-01
1.253395507e+00,3.56327e-06,4.24877e-06,9.93067e-01,8.42876e-01,9.99999e-01
1.259662485e+00,4.35577e-04,5.17585e-04,9.93479e-01,8.45727e-01,9.99999e-01
1.265960797e+00,1.43957e-02,1.70922e-02,9.89535e-01,8.48531e-01,9.99999e-01
1.272290601e+00,1.23911e-01,1.47494e-01,9.84631e-01,8.51288e-01,9.99999e-01
1.278652054e+00,1.21996e-01,1.46334e-01,9.67783e-01,8.54000e-01,9.99998e-01
1.285045314e+00,1.30344e-03,1.56077e-03,9.49859e-01,8.56666e-01,9.99998e-01
1.291470541e+00,4.53716e-08,5.61491e-08,9.01601e-01,8.59288e-01,9.99997e-01
1.297927893e+00,4.41750e-04,5.45891e-04,8.73583e-01,8.61866e-01,9.99995e-01
1.304417533e+00,2.89197e-02,3.87727e-02,8.40133e-01,8.64400e-01,9.99992e-01
1.310939621e+00,7.28409e-03,9.43751e-03,8.19978e-01,8.66892e-01,9.99988e-01
1.317494319e+00,3.07486e-22,3.98835e-22,8.05255e-01,8.69341e-01,9.99980e-01
1.324081790e+00,5.22343e-15,6.94757e-15,7.24985e-01,8.71749e-01,9.99968e-01
1.330702199e+00,4.35614e-09,8.42716e-09,3.22156e-01,8.74115e-01,9.99947e-01
1.337355710e+00,2.63694e-09,2.39155e-08,4.58819e-02,8.76441e-01,9.99900e-01
1.344042489e+00,3.78770e-10,8.96042e-09,1.69505e-03,8.78727e-01,9.99787e-01
1.350762701e+00,6.48828e-15,4.58805e-09,2.63458e-07,8.80974e-01,9.99660e-01
1.357516515e+00,1.42969e-14,6.43054e-06,2.63660e-10,8.83182e-01,9.99580e-01
1.364304097e+00,8.52497e-10,3.03025e-04,9.95095e-07,8.85352e-01,9.99550e-01
1.371125618e+00,3.28561e-06,1.52925e-02,1.12981e-04,8.87484e-01,9.99546e-01
1.377981246e+00,1.55469e-05,3.00018e-02,3.58684e-04,8.89579e-01,9.99512e-01
1.384871152e+00,6.61736e-07,1.29918e-01,3.93253e-06,8.91637e-01,9.99517e-01
1.391795508e+00,2.48838e-07,1.51360e-01,1.20600e-06,8.93660e-01,9.99586e-01
1.398754485e+00,5.06141e-06,3.09838e-01,1.59599e-05,8.95646e-01,9.99655e-01
1.405748258e+00,7.27686e-06,4.22933e-01,1.63451e-05,8.97598e-01,9.99690e-01
1.412776999e+00,9.08691e-06,5.79605e-01,1.50550e-05,8.99516e-01,9.99751e-01
1.419840884e+00,1.92000e-05,5.24511e-01,3.11612e-05,9.01399e-01,9.99814e-01
1.426940089e+00,1.20282e-04,3.40524e-02,3.48545e-04,9.03249e-01,9.99884e-01
1.434074789e+00,0.00000e+00,0.00000e+00,2.07075e-03,9.05067e-01,9.99927e-01
1.441245163e+00,0.00000e+00,0.00000e+00,7.14753e-03,9.06852e-01,9.99943e-01
1.448451389e+00,0.00000e+00,0.00000e+00,3.16519e-02,9.08605e-01,9.99953e-01
1.455693646e+00,0.00000e+00,0.00000e+00,9.51229e-02,9.10326e-01,9.99961e-01
1.462972114e+00,6.01335e-252,2.38854e-251,1.28255e-01,9.12017e-01,9.99966e-01
1.470286975e+00,2.28400e-105,1.00283e-104,9.20327e-02,9.13678e-01,9.99970e-01
