#,Wave/freq,Total,CO2,H2O,Rayleigh,CIA
4.000000000e-01,7.80718e-03,9.99999e-01,9.99990e-01,7.80726e-03,9.99999e-01
4.020000000e-01,8.59343e-03,9.99999e-01,9.99993e-01,8.59348e-03,9.99999e-01
4.040100000e-01,9.44002e-03,9.99999e-01,9.99997e-01,9.44005e-03,9.99999e-01
4.060300500e-01,1.03508e-02,9.99999e-01,9.99998e-01,1.03508e-02,9.99999e-01
4.080602003e-01,1.13288e-02,9.99999e-01,9.99999e-01,1.13288e-02,9.99999e-01
4.101005013e-01,1.23771e-02,9.99999e-01,9.99999e-01,1.23771e-02,9.99999e-01
4.121510038e-01,1.34987e-02,9.99999e-01,9.99999e-01,1.34987e-02,9.99999e-01
4.142117588e-01,1.46968e-02,9.99999e-01,9.99996e-01,1.46968e-02,9.99999e-01
4.162828176e-01,1.59743e-02,9.99999e-01,9.99987e-01,1.59745e-02,9.99999e-01
4.183642317e-01,1.73344e-02,9.99999e-01,9.99992e-01,1.73346e-02,9.99999e-01
4.204560528e-01,1.87801e-02,9.99999e-01,9.99995e-01,1.87801e-02,9.99999e-01
4.225583331e-01,2.03141e-02,9.99999e-01,9.99997e-01,2.03141e-02,9.99999e-01
4.246711247e-01,2.19393e-02,9.99999e-01,9.99998e-01,2.19393e-02,9.99999e-01
4.267944804e-01,2.36585e-02,9.99999e-01,9.99997e-01,2.36585e-02,9.99999e-01
4.289284528e-01,2.54744e-02,9.99999e-01,9.99998e-01,2.54745e-02,9.99999e-01
4.310730950e-01,2.73898e-02,9.99999e-01,9.99998e-01,2.73898e-02,9.99999e-01
4.332284605e-01,2.94070e-02,9.99999e-01,9.99999e-01,2.94070e-02,9.99999e-01
4.353946028e-01,3.15284e-02,9.99999e-01,9.99999e-01,3.15284e-02,9.99999e-01
4.375715758e-01,3.37564e-02,9.99999e-01,9.99998e-01,3.37564e-02,9.99999e-01
4.397594337e-01,3.60928e-02,9.99999e-01,9.99989e-01,3.60932e-02,9.99999e-01
4.419582309e-01,3.85386e-02,9.99999e-01,9.99946e-01,3.85407e-02,9.99999e-01
4.441680220e-01,4.10992e-02,9.99999e-01,9.99958e-01,4.11009e-02,9.99999e-01
4.463888621e-01,4.37736e-02,9.99999e-01,9.99956e-01,4.37755e-02,9.99999e-01
4.486208064e-01,4.65649e-02,9.99999e-01,9.99973e-01,4.65661e-02,9.99999e-01
4.508639105e-01,4.94736e-02,9.99999e-01,9.99987e-01,4.94742e-02,9.99999e-01
4.531182300e-01,5.25008e-02,9.99999e-01,9.99994e-01,5.25011e-02,9.99999e-01
4.553838212e-01,5.56476e-02,9.99999e-01,9.99996e-01,5.56478e-02,9.99999e-01
4.576607403e-01,5.89153e-02,9.99999e-01,9.99997e-01,5.89153e-02,9.99999e-01
4.599490440e-01,6.23044e-02,9.99999e-01,9.99998e-01,6.23045e-02,9.99999e-01
4.622487892e-01,6.58159e-02,9.99999e-01,9.99999e-01,6.58159e-02,9.99999e-01
4.645600332e-01,6.94498e-02,9.99999e-01,9.99998e-01,6.94499e-02,9.99999e-01
4.668828333e-01,7.32059e-02,9.99999e-01,9.99986e-01,7.32068e-02,9.99999e-01
4.692172475e-01,7.70846e-02,9.99999e-01,9.99972e-01,7.70867e-02,9.99999e-01
4.715633337e-01,8.10880e-02,9.99999e-01,9.99982e-01,8.10894e-02,9.99999e-01
4.739211504e-01,8.52134e-02,9.99999e-01,9.99982e-01,8.52148e-02,9.99999e-01
4.762907561e-01,8.94615e-02,9.99999e-01,9.99990e-01,8.94623e-02,9.99999e-01
4.786722099e-01,9.38309e-02,9.99999e-01,9.99995e-01,9.38313e-02,9.99999e-01
4.810655710e-01,9.83209e-02,9.99999e-01,9.99998e-01,9.83210e-02,9.99999e-01
4.834708988e-01,1.02929e-01,9.99999e-01,9.99989e-01,1.02930e-01,9.99999e-01
4.858882533e-01,1.07657e-01,9.99999e-01,9.99980e-01,1.07659e-01,9.99999e-01
4.883176946e-01,1.12502e-01,9.99999e-01,9.99983e-01,1.12504e-01,9.99999e-01
4.907592831e-01,1.17464e-01,9.99999e-01,9.99985e-01,1.17465e-01,9.99999e-01
4.932130795e-01,1.22540e-01,9.99999e-01,9.99989e-01,1.22541e-01,9.99999e-01
4.956791449e-01,1.27729e-01,9.99999e-01,9.99994e-01,1.27729e-01,9.99999e-01
4.981575406e-01,1.33024e-01,9.99999e-01,9.99972e-01,1.33028e-01,9.99999e-01
5.006483283e-01,1.38426e-01,9.99999e-01,9.99929e-01,1.38435e-01,9.99999e-01
5.031515699e-01,1.43898e-01,9.99999e-01,9.99645e-01,1.43949e-01,9.99999e-01
5.056673278e-01,1.49540e-01,9.99999e-01,9.99813e-01,1.49568e-01,9.99999e-01
5.081956644e-01,1.55251e-01,9.99999e-01,9.99764e-01,1.55287e-01,9.99999e-01
5.107366428e-01,1.61081e-01,9.99999e-01,9.99841e-01,1.61107e-01,9.99999e-01
5.132903260e-01,1.67007e-01,9.99999e-01,9.99909e-01,1.67022e-01,9.99999e-01
5.158567776e-01,1.73026e-01,9.99999e-01,9.99961e-01,1.73032e-01,9.99999e-01
5.184360615e-01,1.79130e-01,9.99999e-01,9.99984e-01,1.79133e-01,9.99999e-01
5.210282418e-01,1.85321e-01,9.99999e-01,9.99993e-01,1.85322e-01,9.99999e-01
5.236333830e-01,1.91592e-01,9.99999e-01,9.99976e-01,1.91597e-01,9.99999e-01
5.262515499e-01,1.97950e-01,9.99999e-01,9.99985e-01,1.97953e-01,9.99999e-01
5.288828077e-01,2.04386e-01,9.99999e-01,9.99986e-01,2.04389e-01,9.99999e-01
5.315272217e-01,2.10898e-01,9.99999e-01,9.99987e-01,2.10900e-01,9.99999e-01
5.341848578e-01,2.17483e-01,9.99999e-01,9.99991e-01,2.17484e-01,9.99999e-01
5.368557821e-01,2.24132e-01,9.99999e-01,9.99972e-01,2.24138e-01,9.99999e-01
5.395400610e-01,2.30835e-01,9.99999e-01,9.99901e-01,2.30858e-01,9.99999e-01
5.422377613e-01,2.37611e-01,9.99999e-01,9.99874e-01,2.37640e-01,9.99999e-01
5.449489501e-01,2.44454e-01,9.99999e-01,9.99882e-01,2.44482e-01,9.99999e-01
5.476736949e-01,2.51354e-01,9.99999e-01,9.99896e-01,2.51380e-01,9.99999e-01
5.504120634e-01,2.58311e-01,9.99999e-01,9.99925e-01,2.58331e-01,9.99999e-01
5.531641237e-01,2.65320e-01,9.99999e-01,9.99962e-01,2.65330e-01,9.99999e-01
5.559299443e-01,2.72371e-01,9.99999e-01,9.99981e-01,2.72376e-01,9.99999e-01
5.587095940e-01,2.79460e-01,9.99999e-01,9.99988e-01,2.79464e-01,9.99999e-01
5.615031420e-01,2.86587e-01,9.99999e-01,9.99986e-01,2.86590e-01,9.99999e-01
5.643106577e-01,2.93749e-01,9.99999e-01,9.99984e-01,2.93753e-01,9.99999e-01
5.671322110e-01,3.00894e-01,9.99999e-01,9.99822e-01,3.00947e-01,9.99999e-01
5.699678720e-01,3.08114e-01,9.99999e-01,9.99815e-01,3.08171e-01,9.99999e-01
5.728177114e-01,3.15359e-01,9.99999e-01,9.99805e-01,3.15420e-01,9.99999e-01
5.756818000e-01,3.22634e-01,9.99999e-01,9.99822e-01,3.22692e-01,9.99999e-01
5.785602090e-01,3.29931e-01,9.99999e-01,9.99845e-01,3.29982e-01,9.99999e-01
5.814530100e-01,3.37236e-01,9.99999e-01,9.99844e-01,3.37288e-01,9.99999e-01
5.843602750e-01,3.44543e-01,9.99999e-01,9.99813e-01,3.44607e-01,9.99999e-01
5.872820764e-01,3.51370e-01,9.99999e-01,9.98392e-01,3.51936e-01,9.99999e-01
5.902184868e-01,3.58576e-01,9.99999e-01,9.98067e-01,3.59271e-01,9.99999e-01
5.931695792e-01,3.66107e-01,9.99999e-01,9.98630e-01,3.66609e-01,9.99999e-01
5.961354271e-01,3.73388e-01,9.99999e-01,9.98501e-01,3.73948e-01,9.99999e-01
5.991161043e-01,3.80869e-01,9.99999e-01,9.98908e-01,3.81285e-01,9.99999e-01
6.021116848e-01,3.88376e-01,9.99999e-01,9.99381e-01,3.88616e-01,9.99999e-01
6.051222432e-01,3.95816e-01,9.99999e-01,9.99686e-01,3.95939e-01,9.99999e-01
6.081478544e-01,4.03198e-01,9.99999e-01,9.99864e-01,4.03252e-01,9.99999e-01
6.111885937e-01,4.10528e-01,9.99999e-01,9.99942e-01,4.10551e-01,9.99999e-01
6.142445367e-01,4.17824e-01,9.99999e-01,9.99974e-01,4.17835e-01,9.99999e-01
6.173157594e-01,4.25093e-01,9.99999e-01,9.99985e-01,4.25099e-01,9.99999e-01
6.204023382e-01,4.32338e-01,9.99999e-01,9.99987e-01,4.32343e-01,9.99999e-01
6.235043498e-01,4.39540e-01,9.99999e-01,9.99946e-01,4.39564e-01,9.99999e-01
6.266218716e-01,4.46634e-01,9.99999e-01,9.99721e-01,4.46759e-01,9.99999e-01
6.297549810e-01,4.53880e-01,9.99999e-01,9.99897e-01,4.53926e-01,9.99999e-01
6.329037559e-01,4.60970e-01,9.99999e-01,9.99798e-01,4.61063e-01,9.99999e-01
6.360682746e-01,4.68088e-01,9.99999e-01,9.99827e-01,4.68168e-01,9.99999e-01
6.392486160e-01,4.75134e-01,9.99999e-01,9.99776e-01,4.75239e-01,9.99999e-01
6.424448591e-01,4.82130e-01,9.99999e-01,9.99699e-01,4.82274e-01,9.99999e-01
6.456570834e-01,4.88590e-01,9.99999e-01,9.98606e-01,4.89271e-01,9.99999e-01
6.488853688e-01,4.95727e-01,9.99999e-01,9.98988e-01,4.96229e-01,9.99999e-01
6.521297956e-01,5.02626e-01,9.99999e-01,9.98968e-01,5.03145e-01,9.99999e-01
6.553904446e-01,5.09493e-01,9.99999e-01,9.98970e-01,5.10018e-01,9.99999e-01
6.586673968e-01,5.16392e-01,9.99999e-01,9.99120e-01,5.16846e-01,9.99999e-01
6.619607338e-01,5.23372e-01,9.99999e-01,9.99510e-01,5.23628e-01,9.99999e-01
6.652705375e-01,5.30207e-01,9.99999e-01,9.99705e-01,5.30363e-01,9.99999e-01
6.685968902e-01,5.36981e-01,9.99999e-01,9.99874e-01,5.37048e-01,9.99999e-01
6.719398746e-01,5.43649e-01,9.99999e-01,9.99936e-01,5.43684e-01,9.99999e-01
6.752995740e-01,5.50249e-01,9.99999e-01,9.99966e-01,5.50267e-01,9.99999e-01
6.786760719e-01,5.56771e-01,9.99999e-01,9.99949e-01,5.56799e-01,9.99999e-01
6.820694522e-01,5.63228e-01,9.99999e-01,9.99914e-01,5.63276e-01,9.99999e-01
6.854797995e-01,5.69636e-01,9.99999e-01,9.99889e-01,5.69699e-01,9.99999e-01
6.889071985e-01,5.75910e-01,9.99999e-01,9.99730e-01,5.76065e-01,9.99999e-01
6.923517345e-01,5.79839e-01,9.99999e-01,9.95644e-01,5.82375e-01,9.99999e-01
6.958134932e-01,5.87316e-01,9.99999e-01,9.97770e-01,5.88628e-01,9.99999e-01
6.992925606e-01,5.93542e-01,9.99999e-01,9.97848e-01,5.94822e-01,9.99999e-01
7.027890234e-01,5.99371e-01,9.99999e-01,9.97360e-01,6.00957e-01,9.99999e-01
7.063029686e-01,6.05685e-01,9.99999e-01,9.97779e-01,6.07032e-01,9.99999e-01
7.098344834e-01,6.11742e-01,9.99999e-01,9.97869e-01,6.13047e-01,9.99999e-01
7.133836558e-01,6.17226e-01,9.99999e-01,9.97131e-01,6.19001e-01,9.99999e-01
7.169505741e-01,6.10615e-01,9.99999e-01,9.77151e-01,6.24893e-01,9.99999e-01
7.205353270e-01,6.23747e-01,9.99999e-01,9.88937e-01,6.30724e-01,9.99999e-01
7.241380036e-01,6.27452e-01,9.99999e-01,9.85796e-01,6.36492e-01,9.99999e-01
7.277586936e-01,6.33967e-01,9.99999e-01,9.87182e-01,6.42197e-01,9.99999e-01
7.313974871e-01,6.39069e-01,9.99999e-01,9.86461e-01,6.47840e-01,9.99999e-01
7.350544745e-01,6.48570e-01,9.99999e-01,9.92579e-01,6.53419e-01,9.99999e-01
7.387297469e-01,6.55338e-01,9.99999e-01,9.94542e-01,6.58934e-01,9.99999e-01
7.424233956e-01,6.62614e-01,9.99999e-01,9.97332e-01,6.64386e-01,9.99999e-01
7.461355126e-01,6.68689e-01,9.99999e-01,9.98381e-01,6.69773e-01,9.99999e-01
7.498661902e-01,6.74590e-01,9.99999e-01,9.99247e-01,6.75097e-01,9.99999e-01
7.536155211e-01,6.80105e-01,9.99999e-01,9.99629e-01,6.80357e-01,9.99999e-01
7.573835987e-01,6.85422e-01,9.99999e-01,9.99809e-01,6.85552e-01,9.99999e-01
7.611705167e-01,6.90602e-01,9.99999e-01,9.99881e-01,6.90684e-01,9.99999e-01
7.649763693e-01,6.95699e-01,9.99999e-01,9.99925e-01,6.95751e-01,9.99999e-01
7.688012511e-01,7.00718e-01,9.99999e-01,9.99947e-01,7.00754e-01,9.99999e-01
7.726452574e-01,7.05664e-01,9.99999e-01,9.99956e-01,7.05694e-01,9.99999e-01
7.765084837e-01,7.10526e-01,9.99999e-01,9.99938e-01,7.10569e-01,9.99999e-01
7.803910261e-01,7.02809e-01,9.82679e-01,9.99736e-01,7.15381e-01,9.99999e-01
7.842929812e-01,6.69716e-01,9.30828e-01,9.99079e-01,7.20130e-01,9.99999e-01
7.882144461e-01,6.69534e-01,9.25437e-01,9.98118e-01,7.24815e-01,9.99999e-01
7.921555184e-01,6.96991e-01,9.56490e-01,9.98972e-01,7.29437e-01,9.99999e-01
7.961162960e-01,7.11365e-01,9.70938e-01,9.98166e-01,7.33997e-01,9.99999e-01
8.000968774e-01,7.25240e-01,9.84122e-01,9.97893e-01,7.38494e-01,9.99999e-01
8.040973618e-01,7.35267e-01,9.91776e-01,9.97889e-01,7.42930e-01,9.99999e-01
8.081178486e-01,7.40912e-01,9.96205e-01,9.95219e-01,7.47303e-01,9.99999e-01
8.121584379e-01,7.35878e-01,9.98836e-01,9.80196e-01,7.51615e-01,9.99999e-01
8.162192301e-01,7.38063e-01,9.99742e-01,9.76695e-01,7.55866e-01,9.99999e-01
8.203003262e-01,7.51001e-01,9.99995e-01,9.88088e-01,7.60057e-01,9.99999e-01
8.244018279e-01,7.51718e-01,9.99999e-01,9.83683e-01,7.64187e-01,9.99999e-01
8.285238370e-01,7.57491e-01,9.99999e-01,9.85985e-01,7.68257e-01,9.99999e-01
8.326664562e-01,7.61358e-01,9.99999e-01,9.85872e-01,7.72268e-01,9.99999e-01
8.368297885e-01,7.68399e-01,9.99999e-01,9.89923e-01,7.76220e-01,9.99999e-01
8.410139374e-01,7.75439e-01,9.99999e-01,9.94007e-01,7.80114e-01,9.99999e-01
8.452190071e-01,7.81647e-01,9.99999e-01,9.97062e-01,7.83950e-01,9.99999e-01
8.494451021e-01,7.86381e-01,9.99999e-01,9.98290e-01,7.87728e-01,9.99999e-01
8.536923276e-01,7.90651e-01,9.99999e-01,9.98991e-01,7.91449e-01,9.99999e-01
8.579607893e-01,7.94619e-01,9.99999e-01,9.99377e-01,7.95114e-01,9.99999e-01
8.622505932e-01,7.98408e-01,9.99999e-01,9.99604e-01,7.98723e-01,9.99999e-01
8.665618462e-01,7.65250e-01,9.54075e-01,9.99754e-01,8.02277e-01,9.99999e-01
8.708946554e-01,6.69002e-01,8.30487e-01,9.99718e-01,8.05775e-01,9.99999e-01
8.752491287e-01,6.98211e-01,8.63138e-01,9.99624e-01,8.09220e-01,9.99999e-01
8.796253743e-01,7.49832e-01,9.23218e-01,9.99478e-01,8.12610e-01,9.99999e-01
8.840235012e-01,7.82545e-01,9.59628e-01,9.99404e-01,8.15948e-01,9.99999e-01
8.884436187e-01,8.04342e-01,9.83982e-01,9.97795e-01,8.19233e-01,9.99999e-01
8.928858368e-01,7.98445e-01,9.93473e-01,9.77145e-01,8.22465e-01,9.99999e-01
8.973502660e-01,7.91502e-01,9.98419e-01,9.60147e-01,8.25647e-01,9.99999e-01
9.018370173e-01,8.11715e-01,9.99825e-01,9.79580e-01,8.28777e-01,9.99998e-01
9.063462024e-01,8.13009e-01,9.95392e-01,9.81799e-01,8.31857e-01,9.99998e-01
9.108779334e-01,8.03084e-01,9.89694e-01,9.71863e-01,8.34888e-01,9.99998e-01
9.154323231e-01,8.09276e-01,9.97593e-01,9.68180e-01,8.37869e-01,9.99998e-01
9.200094847e-01,7.90409e-01,9.63517e-01,9.75019e-01,8.40802e-01,9.99998e-01
9.246095321e-01,7.70219e-01,9.50432e-01,9.60077e-01,8.43686e-01,9.99997e-01
9.292325798e-01,6.20590e-01,9.60399e-01,7.61563e-01,8.46524e-01,9.99995e-01
9.338787427e-01,5.76961e-01,9.62147e-01,7.04489e-01,8.49314e-01,9.99994e-01
9.385481364e-01,7.20307e-01,9.72095e-01,8.68919e-01,8.52059e-01,9.99994e-01
9.432408771e-01,6.88400e-01,9.82886e-01,8.18992e-01,8.54757e-01,9.99993e-01
9.479570815e-01,6.42844e-01,9.91171e-01,7.56226e-01,8.57411e-01,9.99994e-01
9.526968669e-01,6.97965e-01,9.95740e-01,8.14875e-01,8.60021e-01,9.99995e-01
9.574603512e-01,7.15711e-01,9.98178e-01,8.31193e-01,8.62586e-01,9.99996e-01
9.622476530e-01,7.44648e-01,9.99431e-01,8.61233e-01,8.65108e-01,9.99997e-01
9.670588912e-01,7.95954e-01,9.99829e-01,9.17585e-01,8.67588e-01,9.99998e-01
9.718941857e-01,8.24676e-01,9.99987e-01,9.47887e-01,8.70025e-01,9.99998e-01
9.767536566e-01,8.34519e-01,9.99999e-01,9.56555e-01,8.72421e-01,9.99999e-01
9.816374249e-01,8.46544e-01,9.99999e-01,9.67725e-01,8.74777e-01,9.99999e-01
9.865456120e-01,8.59317e-01,9.99999e-01,9.79734e-01,8.77091e-01,9.99999e-01
9.914783401e-01,8.68312e-01,9.99999e-01,9.87428e-01,8.79366e-01,9.99999e-01
9.964357318e-01,8.75552e-01,9.99999e-01,9.93137e-01,8.81602e-01,9.99999e-01
1.001417910e+00,8.80162e-01,9.99999e-01,9.95884e-01,8.83799e-01,9.99999e-01
1.006425000e+00,8.83875e-01,9.99999e-01,9.97648e-01,8.85958e-01,9.99999e-01
1.011457125e+00,8.86786e-01,9.99999e-01,9.98542e-01,8.88080e-01,9.99999e-01
1.016514411e+00,8.89283e-01,9.99999e-01,9.99009e-01,8.90164e-01,9.99999e-01
1.021596983e+00,8.91484e-01,9.99972e-01,9.99210e-01,8.92212e-01,9.99999e-01
1.026704968e+00,8.92068e-01,9.98201e-01,9.99383e-01,8.94224e-01,9.99999e-01
1.031838492e+00,8.70663e-01,9.71928e-01,9.99552e-01,8.96201e-01,9.99999e-01
1.036997685e+00,2.63362e-01,2.93295e-01,9.99733e-01,8.98143e-01,9.99999e-01
1.042182673e+00,3.18147e-01,3.53582e-01,9.99681e-01,9.00051e-01,9.99999e-01
1.047393587e+00,2.91148e-01,3.22930e-01,9.99578e-01,9.01925e-01,9.99999e-01
1.052630555e+00,4.64450e-02,5.14141e-02,9.99421e-01,9.03766e-01,9.99999e-01
1.057893707e+00,8.71691e-02,9.63321e-02,9.99032e-01,9.05574e-01,9.99999e-01
1.063183176e+00,1.66270e-01,1.83486e-01,9.98409e-01,9.07350e-01,9.99999e-01
1.068499092e+00,2.92086e-01,3.22074e-01,9.97341e-01,9.09094e-01,9.99999e-01
1.073841587e+00,4.45607e-01,4.90642e-01,9.96882e-01,9.10807e-01,9.99999e-01
1.079210795e+00,5.80057e-01,6.38115e-01,9.96018e-01,9.12490e-01,9.99999e-01
1.084606849e+00,7.11450e-01,7.82887e-01,9.93967e-01,9.14142e-01,9.99999e-01
1.090029883e+00,7.99764e-01,8.80896e-01,9.91296e-01,9.15764e-01,9.99999e-01
1.095480033e+00,8.41754e-01,9.39565e-01,9.76487e-01,9.17357e-01,9.99998e-01
1.100957433e+00,8.39450e-01,9.70444e-01,9.41199e-01,9.18921e-01,9.99998e-01
1.106462220e+00,7.78358e-01,9.87692e-01,8.55969e-01,9.20457e-01,9.99997e-01
1.111994531e+00,6.61508e-01,9.95422e-01,7.20679e-01,9.21966e-01,9.99995e-01
1.117554504e+00,5.41614e-01,9.98885e-01,5.87107e-01,9.23446e-01,9.99993e-01
1.123142276e+00,6.21449e-01,9.99926e-01,6.71948e-01,9.24900e-01,9.99992e-01
1.128757988e+00,7.19974e-01,9.99999e-01,7.77240e-01,9.26328e-01,9.99991e-01
1.134401778e+00,5.08891e-01,9.99999e-01,5.48539e-01,9.27729e-01,9.99990e-01
1.140073787e+00,8.00918e-01,9.99999e-01,8.62038e-01,9.29104e-01,9.99992e-01
1.145774156e+00,6.80917e-01,9.99999e-01,7.31815e-01,9.30455e-01,9.99993e-01
1.151503026e+00,6.56308e-01,9.99999e-01,7.04362e-01,9.31781e-01,9.99994e-01
1.157260541e+00,7.00387e-01,9.99999e-01,7.50620e-01,9.33082e-01,9.99995e-01
1.163046844e+00,7.56613e-01,9.99999e-01,8.09768e-01,9.34359e-01,9.99996e-01
1.168862078e+00,8.08794e-01,9.99999e-01,8.64454e-01,9.35613e-01,9.99998e-01
1.174706389e+00,8.56321e-01,9.99999e-01,9.14049e-01,9.36844e-01,9.99998e-01
1.180579921e+00,8.88168e-01,9.99999e-01,9.46822e-01,9.38052e-01,9.99999e-01
1.186482820e+00,9.10703e-01,9.99995e-01,9.69623e-01,9.39238e-01,9.99999e-01
1.192415234e+00,9.17667e-01,9.93514e-01,9.82160e-01,9.40401e-01,9.99999e-01
1.198377311e+00,5.44564e-01,5.85808e-01,9.84921e-01,9.41543e-01,9.99999e-01
1.204369197e+00,1.84701e-06,1.97566e-06,9.85726e-01,9.42664e-01,9.99999e-01
1.210391043e+00,2.46814e-20,2.63521e-20,9.86354e-01,9.43764e-01,9.99999e-01
1.216442998e+00,7.57038e-18,8.07044e-18,9.88400e-01,9.44844e-01,9.99999e-01
1.222525213e+00,1.37912e-17,1.46496e-17,9.90956e-01,9.45903e-01,9.99999e-01
1.228637839e+00,1.59869e-13,1.69589e-13,9.93710e-01,9.46943e-01,9.99999e-01
1.234781029e+00,2.02939e-09,2.14528e-09,9.95330e-01,9.47963e-01,9.99999e-01
1.240954934e+00,2.20663e-06,2.32994e-06,9.97043e-01,9.48964e-01,9.99999e-01
1.247159708e+00,6.50192e-04,6.85587e-04,9.97698e-01,9.49947e-01,9.99999e-01
1.253395507e+00,1.73392e-02,1.82650e-02,9.97954e-01,9.50911e-01,9.99999e-01
1.259662485e+00,9.81488e-02,1.03289e-01,9.98053e-01,9.51857e-01,9.99999e-01
1.265960797e+00,2.55413e-01,2.68816e-01,9.96895e-01,9.52785e-01,9.99999e-01
1.272290601e+00,5.53928e-01,5.83550e-01,9.95113e-01,9.53695e-01,9.99999e-01
1.278652054e+00,4.86773e-01,5.14275e-01,9.90301e-01,9.54589e-01,9.99999e-01
1.285045314e+00,3.04488e-02,3.21638e-02,9.82443e-01,9.55466e-01,9.99999e-01
1.291470541e+00,4.44627e-03,4.75782e-03,9.69595e-01,9.56326e-01,9.99998e-01
1.297927893e+00,6.92319e-02,7.45104e-02,9.56982e-01,9.57170e-01,9.99998e-01
1.304417533e+00,3.43398e-01,3.76481e-01,9.49501e-01,9.57998e-01,9.99997e-01
1.310939621e+00,6.64845e-02,7.19599e-02,9.36566e-01,9.58810e-01,9.99996e-01
1.317494319e+00,1.86683e-07,2.02814e-07,9.37725e-01,9.59607e-01,9.99993e-01
1.324081790e+00,1.59574e-05,1.74923e-05,9.07750e-01,9.60389e-01,9.99990e-01
1.330702199e+00,2.26810e-03,3.03180e-03,6.53722e-01,9.61156e-01,9.99984e-01
1.337355710e+00,1.06122e-03,2.16800e-03,3.56492e-01,9.61908e-01,9.99970e-01
1.344042489e+00,1.82547e-04,7.41432e-04,5.95217e-02,9.62646e-01,9.99937e-01
1.350762701e+00,1.89261e-05,2.37379e-03,4.04899e-03,9.63370e-01,9.99899e-01
1.357516515e+00,2.43005e-05,1.87303e-02,6.90207e-04,9.64081e-01,9.99875e-01
1.364304097e+00,7.99253e-04,8.42689e-02,7.21177e-03,9.64778e-01,9.99867e-01
1.371125618e+00,1.19738e-02,2.70780e-01,3.73097e-02,9.65461e-01,9.99866e-01
1.377981246e+00,2.20042e-02,3.51889e-01,5.91779e-02,9.66132e-01,9.99856e-01
1.384871152e+00,3.44503e-03,5.44729e-01,5.97140e-03,9.66789e-01,9.99860e-01
1.391795508e+00,5.81102e-03,5.70725e-01,9.72296e-03,9.67435e-01,9.99881e-01
1.398754485e+00,1.26797e-02,7.08429e-01,1.80090e-02,9.68067e-01,9.99898e-01
1.405748258e+00,1.30025e-02,7.75492e-01,1.66498e-02,9.68688e-01,9.99908e-01
1.412776999e+00,1.62745e-02,8.51981e-01,1.92745e-02,9.69297e-01,9.99926e-01
1.419840884e+00,2.07309e-02,7.87906e-01,2.41313e-02,9.69894e-01,9.99944e-01
1.426940089e+00,1.47646e-02,1.06410e-01,5.58697e-02,9.70480e-01,9.99965e-01
1.434074789e+00,9.91220e-286,3.67928e-285,1.09046e-01,9.71055e-01,9.99978e-01
1.441245163e+00,0.00000e+00,0.00000e+00,1.94438e-01,9.71618e-01,9.99983e-01
1.448451389e+00,0.00000e+00,0.00000e+00,3.08224e-01,9.72171e-01,9.99985e-01
1.455693646e+00,5.21117e-155,7.82764e-155,4.71104e-01,9.72713e-01,9.99988e-01
1.462972114e+00,8.30282e-76,1.24649e-75,5.25070e-01,9.73245e-01,9.99989e-01
1.470286975e+00,1.26852e-32,1.96294e-32,4.70324e-01,9.73766e-01,9.99990e-01
