#,Wave/freq,Total,CO2,H2O,Rayleigh,CIA
4.000000000e-01,2.94738e-09,9.99999e-01,9.99961e-01,2.94750e-09,9.99999e-01
4.020000000e-01,4.34623e-09,9.99999e-01,9.99975e-01,4.34633e-09,9.99999e-01
4.040100000e-01,6.35750e-09,9.99999e-01,9.99989e-01,6.35757e-09,9.99999e-01
4.060300500e-01,9.22986e-09,9.99999e-01,9.99997e-01,9.22988e-09,9.99999e-01
4.080602003e-01,1.33016e-08,9.99999e-01,9.99998e-01,1.33016e-08,9.99999e-01
4.101005013e-01,1.90316e-08,9.99999e-01,9.99999e-01,1.90316e-08,9.99999e-01
4.121510038e-01,2.70380e-08,9.99999e-01,9.99998e-01,2.70381e-08,9.99999e-01
4.142117588e-01,3.81468e-08,9.99999e-01,9.99988e-01,3.81472e-08,9.99999e-01
4.162828176e-01,5.34535e-08,9.99999e-01,9.99951e-01,5.34561e-08,9.99999e-01
4.183642317e-01,7.44089e-08,9.99999e-01,9.99971e-01,7.44110e-08,9.99999e-01
4.204560528e-01,1.02904e-07,9.99999e-01,9.99982e-01,1.02906e-07,9.99999e-01
4.225583331e-01,1.41403e-07,9.99999e-01,9.99993e-01,1.41404e-07,9.99999e-01
4.246711247e-01,1.93088e-07,9.99999e-01,9.99994e-01,1.93089e-07,9.99999e-01
4.267944804e-01,2.62045e-07,9.99999e-01,9.99991e-01,2.62047e-07,9.99999e-01
4.289284528e-01,3.53493e-07,9.99999e-01,9.99993e-01,3.53495e-07,9.99999e-01
4.310730950e-01,4.74043e-07,9.99999e-01,9.99997e-01,4.74044e-07,9.99999e-01
4.332284605e-01,6.32028e-07,9.99999e-01,9.99998e-01,6.32029e-07,9.99999e-01
4.353946028e-01,8.37891e-07,9.99999e-01,9.99999e-01,8.37891e-07,9.99999e-01
4.375715758e-01,1.10463e-06,9.99999e-01,9.99994e-01,1.10464e-06,9.99999e-01
4.397594337e-01,1.44831e-06,9.99999e-01,9.99957e-01,1.44837e-06,9.99999e-01
4.419582309e-01,1.88853e-06,9.99999e-01,9.99784e-01,1.88894e-06,9.99999e-01
4.441680220e-01,2.45022e-06,9.99999e-01,9.99834e-01,2.45063e-06,9.99999e-01
4.463888621e-01,3.16248e-06,9.99999e-01,9.99827e-01,3.16302e-06,9.99999e-01
4.486208064e-01,4.06156e-06,9.99999e-01,9.99892e-01,4.06199e-06,9.99999e-01
4.508639105e-01,5.19049e-06,9.99999e-01,9.99949e-01,5.19075e-06,9.99999e-01
4.531182300e-01,6.60098e-06,9.99999e-01,9.99979e-01,6.60111e-06,9.99999e-01
4.553838212e-01,8.35481e-06,9.99999e-01,9.99986e-01,8.35493e-06,9.99999e-01
4.576607403e-01,1.05255e-05,9.99999e-01,9.99993e-01,1.05256e-05,9.99999e-01
4.599490440e-01,1.31998e-05,9.99999e-01,9.99995e-01,1.31999e-05,9.99999e-01
4.622487892e-01,1.64797e-05,9.99999e-01,9.99998e-01,1.64797e-05,9.99999e-01
4.645600332e-01,2.04845e-05,9.99999e-01,9.99996e-01,2.04846e-05,9.99999e-01
4.668828333e-01,2.53522e-05,9.99999e-01,9.99948e-01,2.53535e-05,9.99999e-01
4.692172475e-01,3.12445e-05,9.99999e-01,9.99891e-01,3.12479e-05,9.99999e-01
4.715633337e-01,3.83511e-05,9.99999e-01,9.99928e-01,3.83538e-05,9.99999e-01
4.739211504e-01,4.68824e-05,9.99999e-01,9.99932e-01,4.68856e-05,9.99999e-01
4.762907561e-01,5.70863e-05,9.99999e-01,9.99964e-01,5.70883e-05,9.99999e-01
4.786722099e-01,6.92404e-05,9.99999e-01,9.99985e-01,6.92414e-05,9.99999e-01
4.810655710e-01,8.36618e-05,9.99999e-01,9.99995e-01,8.36621e-05,9.99999e-01
4.834708988e-01,1.00705e-04,9.99999e-01,9.99957e-01,1.00709e-04,9.99999e-01
4.858882533e-01,1.20777e-04,9.99999e-01,9.99923e-01,1.20786e-04,9.99999e-01
4.883176946e-01,1.44338e-04,9.99999e-01,9.99935e-01,1.44347e-04,9.99999e-01
4.907592831e-01,1.71887e-04,9.99999e-01,9.99941e-01,1.71897e-04,9.99999e-01
4.932130795e-01,2.03993e-04,9.99999e-01,9.99958e-01,2.04001e-04,9.99999e-01
4.956791449e-01,2.41277e-04,9.99999e-01,9.99977e-01,2.41283e-04,9.99999e-01
4.981575406e-01,2.84402e-04,9.99999e-01,9.99890e-01,2.84433e-04,9.99999e-01
5.006483283e-01,3.34118e-04,9.99999e-01,9.99715e-01,3.34213e-04,9.99999e-01
5.031515699e-01,3.90895e-04,9.99999e-01,9.98568e-01,3.91455e-04,9.99999e-01
5.056673278e-01,4.56728e-04,9.99999e-01,9.99246e-01,4.57072e-04,9.99999e-01
5.081956644e-01,5.31552e-04,9.99999e-01,9.99049e-01,5.32057e-04,9.99999e-01
5.107366428e-01,6.17093e-04,9.99999e-01,9.99358e-01,6.17488e-04,9.99999e-01
5.132903260e-01,7.14271e-04,9.99999e-01,9.99633e-01,7.14532e-04,9.99999e-01
5.158567776e-01,8.24320e-04,9.99999e-01,9.99845e-01,8.24447e-04,9.99999e-01
5.184360615e-01,9.48526e-04,9.99999e-01,9.99937e-01,9.48585e-04,9.99999e-01
5.210282418e-01,1.08837e-03,9.99999e-01,9.99976e-01,1.08839e-03,9.99999e-01
5.236333830e-01,1.24531e-03,9.99999e-01,9.99906e-01,1.24542e-03,9.99999e-01
5.262515499e-01,1.42124e-03,9.99999e-01,9.99941e-01,1.42132e-03,9.99999e-01
5.288828077e-01,1.61774e-03,9.99999e-01,9.99945e-01,1.61783e-03,9.99999e-01
5.315272217e-01,1.83672e-03,9.99999e-01,9.99952e-01,1.83681e-03,9.99999e-01
5.341848578e-01,2.08014e-03,9.99999e-01,9.99968e-01,2.08020e-03,9.99999e-01
5.368557821e-01,2.34981e-03,9.99999e-01,9.99890e-01,2.35006e-03,9.99999e-01
5.395400610e-01,2.64750e-03,9.99999e-01,9.99604e-01,2.64854e-03,9.99999e-01
5.422377613e-01,2.97639e-03,9.99999e-01,9.99494e-01,2.97789e-03,9.99999e-01
5.449489501e-01,3.33888e-03,9.99999e-01,9.99527e-01,3.34045e-03,9.99999e-01
5.476736949e-01,3.73711e-03,9.99999e-01,9.99584e-01,3.73866e-03,9.99999e-01
5.504120634e-01,4.17379e-03,9.99999e-01,9.99697e-01,4.17505e-03,9.99999e-01
5.531641237e-01,4.65150e-03,9.99999e-01,9.99847e-01,4.65221e-03,9.99999e-01
5.559299443e-01,5.17246e-03,9.99999e-01,9.99926e-01,5.17284e-03,9.99999e-01
5.587095940e-01,5.73942e-03,9.99999e-01,9.99953e-01,5.73969e-03,9.99999e-01
5.615031420e-01,6.35526e-03,9.99999e-01,9.99948e-01,6.35559e-03,9.99999e-01
5.643106577e-01,7.02301e-03,9.99999e-01,9.99940e-01,7.02342e-03,9.99999e-01
5.671322110e-01,7.74058e-03,9.99999e-01,9.99282e-01,7.74613e-03,9.99999e-01
5.699678720e-01,8.52033e-03,9.99999e-01,9.99252e-01,8.52669e-03,9.99999e-01
5.728177114e-01,9.36078e-03,9.99999e-01,9.99215e-01,9.36813e-03,9.99999e-01
5.756818000e-01,1.02661e-02,9.99999e-01,9.99281e-01,1.02735e-02,9.99999e-01
5.785602090e-01,1.12388e-02,9.99999e-01,9.99374e-01,1.12458e-02,9.99999e-01
5.814530100e-01,1.22805e-02,9.99999e-01,9.99370e-01,1.22882e-02,9.99999e-01
5.843602750e-01,1.33936e-02,9.99999e-01,9.99245e-01,1.34037e-02,9.99999e-01
5.872820764e-01,1.45009e-02,9.99999e-01,9.93519e-01,1.45955e-02,9.99999e-01
5.902184868e-01,1.57427e-02,9.99999e-01,9.92202e-01,1.58664e-02,9.99999e-01
5.931695792e-01,1.71245e-02,9.99999e-01,9.94475e-01,1.72197e-02,9.99999e-01
5.961354271e-01,1.85453e-02,9.99999e-01,9.93953e-01,1.86581e-02,9.99999e-01
5.991161043e-01,2.00957e-02,9.99999e-01,9.95590e-01,2.01847e-02,9.99999e-01
6.021116848e-01,2.17477e-02,9.99999e-01,9.97498e-01,2.18023e-02,9.99999e-01
6.051222432e-01,2.34839e-02,9.99999e-01,9.98733e-01,2.35137e-02,9.99999e-01
6.081478544e-01,2.53078e-02,9.99999e-01,9.99453e-01,2.53216e-02,9.99999e-01
6.111885937e-01,2.72224e-02,9.99999e-01,9.99768e-01,2.72286e-02,9.99999e-01
6.142445367e-01,2.92343e-02,9.99999e-01,9.99896e-01,2.92374e-02,9.99999e-01
6.173157594e-01,3.13484e-02,9.99999e-01,9.99942e-01,3.13502e-02,9.99999e-01
6.204023382e-01,3.35677e-02,9.99999e-01,9.99951e-01,3.35693e-02,9.99999e-01
6.235043498e-01,3.58893e-02,9.99999e-01,9.99784e-01,3.58971e-02,9.99999e-01
6.266218716e-01,3.82922e-02,9.99999e-01,9.98872e-01,3.83354e-02,9.99999e-01
6.297549810e-01,4.08694e-02,9.99999e-01,9.99586e-01,4.08863e-02,9.99999e-01
6.329037559e-01,4.35159e-02,9.99999e-01,9.99184e-01,4.35514e-02,9.99999e-01
6.360682746e-01,4.63002e-02,9.99999e-01,9.99303e-01,4.63325e-02,9.99999e-01
6.392486160e-01,4.91865e-02,9.99999e-01,9.99098e-01,4.92309e-02,9.99999e-01
6.424448591e-01,5.21845e-02,9.99999e-01,9.98786e-01,5.22479e-02,9.99999e-01
6.456570834e-01,5.50734e-02,9.99999e-01,9.94377e-01,5.53848e-02,9.99999e-01
6.488853688e-01,5.84028e-02,9.99999e-01,9.95915e-01,5.86424e-02,9.99999e-01
6.521297956e-01,6.17633e-02,9.99999e-01,9.95836e-01,6.20215e-02,9.99999e-01
6.553904446e-01,6.52503e-02,9.99999e-01,9.95840e-01,6.55228e-02,9.99999e-01
6.586673968e-01,6.89012e-02,9.99999e-01,9.96448e-01,6.91467e-02,9.99999e-01
6.619607338e-01,7.27493e-02,9.99999e-01,9.98020e-01,7.28935e-02,9.99999e-01
6.652705375e-01,7.66721e-02,9.99999e-01,9.98811e-01,7.67633e-02,9.99999e-01
6.685968902e-01,8.07152e-02,9.99999e-01,9.99494e-01,8.07560e-02,9.99999e-01
6.719398746e-01,8.48496e-02,9.99999e-01,9.99744e-01,8.48713e-02,9.99999e-01
6.752995740e-01,8.90967e-02,9.99999e-01,9.99864e-01,8.91088e-02,9.99999e-01
6.786760719e-01,9.34489e-02,9.99999e-01,9.99797e-01,9.34678e-02,9.99999e-01
6.820694522e-01,9.79140e-02,9.99999e-01,9.99655e-01,9.79476e-02,9.99999e-01
6.854797995e-01,1.02502e-01,9.99999e-01,9.99555e-01,1.02547e-01,9.99999e-01
6.889071985e-01,1.07149e-01,9.99999e-01,9.98913e-01,1.07266e-01,9.99999e-01
6.923517345e-01,1.10143e-01,9.99999e-01,9.82524e-01,1.12102e-01,9.99999e-01
6.958134932e-01,1.16002e-01,9.99999e-01,9.91018e-01,1.17053e-01,9.99999e-01
6.992925606e-01,1.21061e-01,9.99999e-01,9.91332e-01,1.22120e-01,9.99999e-01
7.027890234e-01,1.25946e-01,9.99999e-01,9.89369e-01,1.27299e-01,9.99999e-01
7.063029686e-01,1.31402e-01,9.99999e-01,9.91048e-01,1.32589e-01,9.99999e-01
7.098344834e-01,1.36802e-01,9.99999e-01,9.91409e-01,1.37987e-01,9.99999e-01
7.133836558e-01,1.41838e-01,9.99999e-01,9.88468e-01,1.43492e-01,9.99999e-01
7.169505741e-01,1.35912e-01,9.99999e-01,9.11535e-01,1.49102e-01,9.99998e-01
7.205353270e-01,1.48037e-01,9.99999e-01,9.56229e-01,1.54814e-01,9.99998e-01
7.241380036e-01,1.51641e-01,9.99999e-01,9.44068e-01,1.60625e-01,9.99998e-01
7.277586936e-01,1.58111e-01,9.99999e-01,9.49429e-01,1.66533e-01,9.99998e-01
7.313974871e-01,1.63305e-01,9.99999e-01,9.46505e-01,1.72535e-01,9.99998e-01
7.350544745e-01,1.73336e-01,9.99999e-01,9.70369e-01,1.78629e-01,9.99999e-01
7.387297469e-01,1.80766e-01,9.99999e-01,9.78114e-01,1.84811e-01,9.99999e-01
7.424233956e-01,1.89024e-01,9.99999e-01,9.89249e-01,1.91078e-01,9.99999e-01
7.461355126e-01,1.96138e-01,9.99999e-01,9.93465e-01,1.97428e-01,9.99999e-01
7.498661902e-01,2.03237e-01,9.99999e-01,9.96959e-01,2.03857e-01,9.99999e-01
7.536155211e-01,2.10048e-01,9.99999e-01,9.98504e-01,2.10363e-01,9.99999e-01
7.573835987e-01,2.16774e-01,9.99999e-01,9.99229e-01,2.16941e-01,9.99999e-01
7.611705167e-01,2.23482e-01,9.99999e-01,9.99521e-01,2.23589e-01,9.99999e-01
7.649763693e-01,2.30234e-01,9.99999e-01,9.99699e-01,2.30303e-01,9.99999e-01
7.688012511e-01,2.37031e-01,9.99999e-01,9.99790e-01,2.37081e-01,9.99999e-01
7.726452574e-01,2.43876e-01,9.99999e-01,9.99827e-01,2.43918e-01,9.99999e-01
7.765084837e-01,2.50750e-01,9.99999e-01,9.99753e-01,2.50811e-01,9.99999e-01
7.803910261e-01,2.42008e-01,9.39842e-01,9.98935e-01,2.57758e-01,9.99999e-01
7.842929812e-01,1.99799e-01,7.57242e-01,9.96286e-01,2.64753e-01,9.99999e-01
7.882144461e-01,2.00443e-01,7.42729e-01,9.92409e-01,2.71795e-01,9.99999e-01
7.921555184e-01,2.32526e-01,8.37114e-01,9.95847e-01,2.78880e-01,9.99999e-01
7.961162960e-01,2.52085e-01,8.87860e-01,9.92609e-01,2.86004e-01,9.99999e-01
8.000968774e-01,2.72499e-01,9.37435e-01,9.91502e-01,2.93163e-01,9.99999e-01
8.040973618e-01,2.88030e-01,9.67164e-01,9.91491e-01,3.00355e-01,9.99999e-01
8.081178486e-01,2.97095e-01,9.84738e-01,9.80839e-01,3.07577e-01,9.99999e-01
8.121584379e-01,2.89156e-01,9.95297e-01,9.22727e-01,3.14824e-01,9.99998e-01
8.162192301e-01,2.92692e-01,9.98959e-01,9.09631e-01,3.22093e-01,9.99998e-01
8.203003262e-01,3.14107e-01,9.99985e-01,9.53634e-01,3.29382e-01,9.99998e-01
8.244018279e-01,3.15505e-01,9.99999e-01,9.37086e-01,3.36688e-01,9.99998e-01
8.285238370e-01,3.24993e-01,9.99999e-01,9.44731e-01,3.44006e-01,9.99998e-01
8.326664562e-01,3.31778e-01,9.99999e-01,9.44338e-01,3.51333e-01,9.99998e-01
8.368297885e-01,3.44291e-01,9.99999e-01,9.59916e-01,3.58668e-01,9.99999e-01
8.410139374e-01,3.57220e-01,9.99999e-01,9.75992e-01,3.66006e-01,9.99999e-01
8.452190071e-01,3.68927e-01,9.99999e-01,9.88166e-01,3.73345e-01,9.99999e-01
8.494451021e-01,3.78056e-01,9.99999e-01,9.93099e-01,3.80682e-01,9.99999e-01
8.536923276e-01,3.86433e-01,9.99999e-01,9.95924e-01,3.88014e-01,9.99999e-01
8.579607893e-01,3.94343e-01,9.99999e-01,9.97483e-01,3.95338e-01,9.99999e-01
8.622505932e-01,4.02009e-01,9.99999e-01,9.98403e-01,4.02652e-01,9.99999e-01
8.665618462e-01,3.65437e-01,8.92249e-01,9.99009e-01,4.09952e-01,9.99999e-01
8.708946554e-01,2.07520e-01,4.97898e-01,9.98864e-01,4.17237e-01,9.99999e-01
8.752491287e-01,2.39912e-01,5.65975e-01,9.98481e-01,4.24503e-01,9.99999e-01
8.796253743e-01,3.13973e-01,7.28666e-01,9.97892e-01,4.31749e-01,9.99999e-01
8.840235012e-01,3.71143e-01,8.47464e-01,9.97594e-01,4.38972e-01,9.99999e-01
8.884436187e-01,4.14381e-01,9.36899e-01,9.91146e-01,4.46169e-01,9.99999e-01
8.928858368e-01,4.02606e-01,9.73868e-01,9.11526e-01,4.53338e-01,9.99998e-01
8.973502660e-01,3.89009e-01,9.93618e-01,8.50015e-01,4.60478e-01,9.99997e-01
9.018370173e-01,4.30284e-01,9.99296e-01,9.20837e-01,4.67586e-01,9.99997e-01
9.063462024e-01,4.33424e-01,9.81751e-01,9.29113e-01,4.74660e-01,9.99996e-01
9.108779334e-01,4.12494e-01,9.59038e-01,8.92074e-01,4.81698e-01,9.99996e-01
9.154323231e-01,4.25251e-01,9.90306e-01,8.78355e-01,4.88698e-01,9.99996e-01
9.200094847e-01,3.94353e-01,8.72428e-01,9.03681e-01,4.95659e-01,9.99995e-01
9.246095321e-01,3.51846e-01,8.15171e-01,8.53509e-01,5.02578e-01,9.99992e-01
9.292325798e-01,1.59959e-01,8.52070e-01,3.58861e-01,5.09455e-01,9.99983e-01
9.338787427e-01,1.22565e-01,8.56896e-01,2.70324e-01,5.16287e-01,9.99979e-01
9.385481364e-01,2.77643e-01,8.92312e-01,5.88422e-01,5.23073e-01,9.99979e-01
9.432408771e-01,2.40151e-01,9.32605e-01,4.82989e-01,5.29811e-01,9.99976e-01
9.479570815e-01,1.91797e-01,9.64768e-01,3.69390e-01,5.36501e-01,9.99979e-01
9.526968669e-01,2.50517e-01,9.82891e-01,4.68163e-01,5.43141e-01,9.99984e-01
9.574603512e-01,2.67260e-01,9.92650e-01,4.89354e-01,5.49729e-01,9.99988e-01
9.622476530e-01,3.09163e-01,9.97703e-01,5.56931e-01,5.56264e-01,9.99992e-01
9.670588912e-01,4.00585e-01,9.99312e-01,7.12287e-01,5.62746e-01,9.99994e-01
9.718941857e-01,4.59200e-01,9.99951e-01,8.06820e-01,5.69173e-01,9.99996e-01
9.767536566e-01,4.81527e-01,9.99999e-01,8.36647e-01,5.75544e-01,9.99997e-01
9.816374249e-01,5.09814e-01,9.99999e-01,8.76182e-01,5.81859e-01,9.99998e-01
9.865456120e-01,5.41459e-01,9.99999e-01,9.20666e-01,5.88116e-01,9.99998e-01
9.914783401e-01,5.64679e-01,9.99999e-01,9.50133e-01,5.94315e-01,9.99999e-01
9.964357318e-01,5.83964e-01,9.99999e-01,9.72534e-01,6.00455e-01,9.99999e-01
1.001417910e+00,5.96498e-01,9.99999e-01,9.83450e-01,6.06535e-01,9.99999e-01
1.006425000e+00,6.06748e-01,9.99999e-01,9.90518e-01,6.12555e-01,9.99999e-01
1.011457125e+00,6.14876e-01,9.99999e-01,9.94116e-01,6.18514e-01,9.99999e-01
1.016514411e+00,6.21913e-01,9.99999e-01,9.95998e-01,6.24412e-01,9.99999e-01
1.021596983e+00,6.28169e-01,9.99891e-01,9.96808e-01,6.30247e-01,9.99999e-01
1.026704968e+00,6.29864e-01,9.92786e-01,9.97509e-01,6.36021e-01,9.99999e-01
1.031838492e+00,5.94997e-01,9.28778e-01,9.98192e-01,6.41731e-01,9.99999e-01
1.036997685e+00,5.39450e-02,8.33971e-02,9.98924e-01,6.47379e-01,9.99999e-01
1.042182673e+00,1.54541e-02,2.36929e-02,9.98713e-01,6.52963e-01,9.99999e-01
1.047393587e+00,2.70917e-02,4.12027e-02,9.98297e-01,6.58483e-01,9.99999e-01
1.052630555e+00,6.30444e-05,9.51042e-05,9.97661e-01,6.63940e-01,9.99999e-01
1.057893707e+00,2.19043e-04,3.28004e-04,9.96094e-01,6.69333e-01,9.99999e-01
1.063183176e+00,1.70098e-03,2.53155e-03,9.93584e-01,6.74662e-01,9.99999e-01
1.068499092e+00,8.74970e-03,1.29733e-02,9.89291e-01,6.79927e-01,9.99999e-01
1.073841587e+00,4.28083e-02,6.31043e-02,9.87464e-01,6.85128e-01,9.99999e-01
1.079210795e+00,1.18704e-01,1.74343e-01,9.83998e-01,6.90264e-01,9.99999e-01
1.084606849e+00,2.56633e-01,3.77474e-01,9.75849e-01,6.95337e-01,9.99998e-01
1.090029883e+00,4.07367e-01,6.01469e-01,9.65361e-01,7.00346e-01,9.99998e-01
1.095480033e+00,4.99678e-01,7.78286e-01,9.08557e-01,7.05290e-01,9.99997e-01
1.100957433e+00,4.94785e-01,8.85961e-01,7.84544e-01,7.10171e-01,9.99995e-01
1.106462220e+00,3.71755e-01,9.51184e-01,5.44894e-01,7.14988e-01,9.99990e-01
1.111994531e+00,2.01924e-01,9.81610e-01,2.85165e-01,7.19742e-01,9.99981e-01
1.117554504e+00,9.81150e-02,9.95497e-01,1.35872e-01,7.24433e-01,9.99973e-01
1.123142276e+00,1.78646e-01,9.99705e-01,2.45062e-01,7.29060e-01,9.99969e-01
1.128757988e+00,2.86179e-01,9.99999e-01,3.90101e-01,7.33625e-01,9.99966e-01
1.134401778e+00,1.38607e-01,9.99999e-01,1.87789e-01,7.38127e-01,9.99962e-01
1.140073787e+00,4.17284e-01,9.99999e-01,5.61963e-01,7.42568e-01,9.99969e-01
1.145774156e+00,2.33501e-01,9.99999e-01,3.12615e-01,7.46946e-01,9.99974e-01
1.151503026e+00,2.07752e-01,9.99999e-01,2.76542e-01,7.51263e-01,9.99977e-01
1.157260541e+00,2.48194e-01,9.99999e-01,3.28513e-01,7.55519e-01,9.99983e-01
1.163046844e+00,3.32484e-01,9.99999e-01,4.37647e-01,7.59715e-01,9.99989e-01
1.168862078e+00,4.26752e-01,9.99999e-01,5.58689e-01,7.63850e-01,9.99994e-01
1.174706389e+00,5.35883e-01,9.99999e-01,6.97834e-01,7.67925e-01,9.99996e-01
1.180579921e+00,6.19771e-01,9.99999e-01,8.02874e-01,7.71941e-01,9.99997e-01
1.186482820e+00,6.85061e-01,9.99983e-01,8.82939e-01,7.75898e-01,9.99998e-01
1.192415234e+00,7.07144e-01,9.74767e-01,9.29808e-01,7.79796e-01,9.99998e-01
1.198377311e+00,4.02392e-01,5.40456e-01,9.40445e-01,7.83637e-01,9.99998e-01
1.204369197e+00,2.68371e-19,3.52454e-19,9.43655e-01,7.87420e-01,9.99998e-01
1.210391043e+00,1.91715e-75,2.49917e-75,9.46020e-01,7.91146e-01,9.99998e-01
1.216442998e+00,2.10433e-65,2.72610e-65,9.53963e-01,7.94815e-01,9.99999e-01
1.222525213e+00,1.97857e-64,2.52545e-64,9.63931e-01,7.98429e-01,9.99999e-01
1.228637839e+00,7.78837e-50,9.88098e-50,9.74800e-01,8.01987e-01,9.99999e-01
1.234781029e+00,2.26200e-31,2.83132e-31,9.81245e-01,8.05490e-01,9.99999e-01
1.240954934e+00,5.74477e-21,7.15528e-21,9.88093e-01,8.08939e-01,9.99999e-01
1.247159708e+00,1.28384e-10,1.58916e-10,9.90721e-01,8.12334e-01,9.99999e-01
1.253395507e+00,4.09082e-07,5.04506e-07,9.91750e-01,8.15676e-01,9.99999e-01
1.259662485e+00,2.03063e-04,2.49416e-04,9.92149e-01,8.18965e-01,9.99999e-01
1.265960797e+00,7.51735e-03,9.22340e-03,9.87503e-01,8.22202e-01,9.99999e-01
1.272290601e+00,1.00127e-01,1.23386e-01,9.80391e-01,8.25387e-01,9.99999e-01
1.278652054e+00,8.43167e-02,1.04662e-01,9.61423e-01,8.28522e-01,9.99998e-01
1.285045314e+00,4.40519e-04,5.45437e-04,9.31135e-01,8.31606e-01,9.99998e-01
1.291470541e+00,2.23028e-09,2.87421e-09,8.83136e-01,8.34641e-01,9.99997e-01
1.297927893e+00,5.46250e-04,7.04240e-04,8.38168e-01,8.37626e-01,9.99995e-01
1.304417533e+00,1.52245e-02,2.15126e-02,8.12771e-01,8.40563e-01,9.99991e-01
1.310939621e+00,2.62163e-03,3.55658e-03,7.69524e-01,8.43451e-01,9.99986e-01
1.317494319e+00,1.80499e-26,2.46300e-26,7.73517e-01,8.46292e-01,9.99976e-01
1.324081790e+00,1.64738e-17,2.31222e-17,6.82132e-01,8.49087e-01,9.99962e-01
1.330702199e+00,1.29971e-10,2.78258e-10,2.66294e-01,8.51835e-01,9.99937e-01
1.337355710e+00,9.00611e-11,1.23515e-09,2.71839e-02,8.54537e-01,9.99881e-01
1.344042489e+00,1.14715e-11,4.92371e-10,8.71170e-04,8.57195e-01,9.99746e-01
1.350762701e+00,1.94543e-17,1.52824e-10,2.17141e-08,8.59808e-01,9.99595e-01
1.357516515e+00,5.57705e-17,9.52319e-07,5.59134e-12,8.62377e-01,9.99499e-01
1.364304097e+00,2.45267e-11,7.14322e-05,1.06072e-07,8.64903e-01,9.99463e-01
1.371125618e+00,4.57077e-07,7.47179e-03,3.03615e-05,8.67386e-01,9.99459e-01
1.377981246e+00,2.40104e-06,1.57061e-02,9.55660e-05,8.69827e-01,9.99419e-01
1.384871152e+00,8.24276e-08,8.90776e-02,6.89126e-07,8.72226e-01,9.99435e-01
1.391795508e+00,1.85130e-08,1.07350e-01,1.17481e-07,8.74585e-01,9.99521e-01
1.398754485e+00,7.45180e-07,2.48799e-01,2.91022e-06,8.76903e-01,9.99588e-01
1.405748258e+00,1.06682e-06,3.61432e-01,2.78850e-06,8.79181e-01,9.99631e-01
1.412776999e+00,1.53607e-06,5.24555e-01,2.77022e-06,8.81420e-01,9.99703e-01
1.419840884e+00,3.25213e-06,4.68748e-01,5.78409e-06,8.83620e-01,9.99778e-01
1.426940089e+00,3.94448e-05,2.55379e-02,1.18964e-04,8.85782e-01,9.99862e-01
1.434074789e+00,0.00000e+00,0.00000e+00,8.04493e-04,8.87907e-01,9.99914e-01
1.441245163e+00,0.00000e+00,0.00000e+00,3.14118e-03,8.89994e-01,9.99933e-01
1.448451389e+00,0.00000e+00,0.00000e+00,1.82816e-02,8.92045e-01,9.99944e-01
1.455693646e+00,0.00000e+00,0.00000e+00,6.55466e-02,8.94060e-01,9.99954e-01
1.462972114e+00,6.00393e-300,3.10879e-299,8.94480e-02,8.96040e-01,9.99960e-01
1.470286975e+00,3.43434e-125,2.00393e-124,6.11608e-02,8.97985e-01,9.99964e-01
