#,Wave/freq,Total,CO2,H2O,Rayleigh,CIA
4.000000000e-01,2.98992e-11,9.99999e-01,9.99952e-01,2.99007e-11,9.99999e-01
4.020000000e-01,4.82792e-11,9.99999e-01,9.99970e-01,4.82806e-11,9.99999e-01
4.040100000e-01,7.71859e-11,9.99999e-01,9.99987e-01,7.71869e-11,9.99999e-01
4.060300500e-01,1.22261e-10,9.99999e-01,9.99996e-01,1.22261e-10,9.99999e-01
4.080602003e-01,1.91907e-10,9.99999e-01,9.99998e-01,1.91907e-10,9.99999e-01
4.101005013e-01,2.98554e-10,9.99999e-01,9.99999e-01,2.98554e-10,9.99999e-01
4.121510038e-01,4.60431e-10,9.99999e-01,9.99997e-01,4.60432e-10,9.99999e-01
4.142117588e-01,7.04020e-10,9.99999e-01,9.99986e-01,7.04029e-10,9.99999e-01
4.162828176e-01,1.06745e-09,9.99999e-01,9.99940e-01,1.06751e-09,9.99999e-01
4.183642317e-01,1.60535e-09,9.99999e-01,9.99964e-01,1.60541e-09,9.99999e-01
4.204560528e-01,2.39490e-09,9.99999e-01,9.99978e-01,2.39495e-09,9.99999e-01
4.225583331e-01,3.54465e-09,9.99999e-01,9.99991e-01,3.54468e-09,9.99999e-01
4.246711247e-01,5.20584e-09,9.99999e-01,9.99993e-01,5.20588e-09,9.99999e-01
4.267944804e-01,7.58769e-09,9.99999e-01,9.99990e-01,7.58776e-09,9.99999e-01
4.289284528e-01,1.09774e-08,9.99999e-01,9.99992e-01,1.09775e-08,9.99999e-01
4.310730950e-01,1.57659e-08,9.99999e-01,9.99996e-01,1.57660e-08,9.99999e-01
4.332284605e-01,2.24820e-08,9.99999e-01,9.99998e-01,2.24820e-08,9.99999e-01
4.353946028e-01,3.18351e-08,9.99999e-01,9.99999e-01,3.18351e-08,9.99999e-01
4.375715758e-01,4.47702e-08,9.99999e-01,9.99993e-01,4.47705e-08,9.99999e-01
4.397594337e-01,6.25361e-08,9.99999e-01,9.99947e-01,6.25393e-08,9.99999e-01
4.419582309e-01,8.67625e-08,9.99999e-01,9.99734e-01,8.67855e-08,9.99999e-01
4.441680220e-01,1.19630e-07,9.99999e-01,9.99796e-01,1.19655e-07,9.99999e-01
4.463888621e-01,1.63895e-07,9.99999e-01,9.99786e-01,1.63930e-07,9.99999e-01
4.486208064e-01,2.23166e-07,9.99999e-01,9.99867e-01,2.23196e-07,9.99999e-01
4.508639105e-01,3.02022e-07,9.99999e-01,9.99937e-01,3.02041e-07,9.99999e-01
4.531182300e-01,4.06293e-07,9.99999e-01,9.99975e-01,4.06303e-07,9.99999e-01
4.553838212e-01,5.43356e-07,9.99999e-01,9.99982e-01,5.43365e-07,9.99999e-01
4.576607403e-01,7.22496e-07,9.99999e-01,9.99991e-01,7.22502e-07,9.99999e-01
4.599490440e-01,9.55300e-07,9.99999e-01,9.99994e-01,9.55305e-07,9.99999e-01
4.622487892e-01,1.25617e-06,9.99999e-01,9.99998e-01,1.25617e-06,9.99999e-01
4.645600332e-01,1.64288e-06,9.99999e-01,9.99995e-01,1.64289e-06,9.99999e-01
4.668828333e-01,2.13716e-06,9.99999e-01,9.99936e-01,2.13729e-06,9.99999e-01
4.692172475e-01,2.76570e-06,9.99999e-01,9.99866e-01,2.76607e-06,9.99999e-01
4.715633337e-01,3.56133e-06,9.99999e-01,9.99912e-01,3.56164e-06,9.99999e-01
4.739211504e-01,4.56281e-06,9.99999e-01,9.99916e-01,4.56319e-06,9.99999e-01
4.762907561e-01,5.81758e-06,9.99999e-01,9.99956e-01,5.81783e-06,9.99999e-01
4.786722099e-01,7.38180e-06,9.99999e-01,9.99981e-01,7.38193e-06,9.99999e-01
4.810655710e-01,9.32253e-06,9.99999e-01,9.99994e-01,9.32258e-06,9.99999e-01
4.834708988e-01,1.17187e-05,9.99999e-01,9.99947e-01,1.17193e-05,9.99999e-01
4.858882533e-01,1.46643e-05,9.99999e-01,9.99905e-01,1.46657e-05,9.99999e-01
4.883176946e-01,1.82703e-05,9.99999e-01,9.99920e-01,1.82717e-05,9.99999e-01
4.907592831e-01,2.26642e-05,9.99999e-01,9.99928e-01,2.26658e-05,9.99999e-01
4.932130795e-01,2.79957e-05,9.99999e-01,9.99948e-01,2.79971e-05,9.99999e-01
4.956791449e-01,3.44376e-05,9.99999e-01,9.99972e-01,3.44385e-05,9.99999e-01
4.981575406e-01,4.21833e-05,9.99999e-01,9.99864e-01,4.21890e-05,9.99999e-01
5.006483283e-01,5.14588e-05,9.99999e-01,9.99649e-01,5.14769e-05,9.99999e-01
5.031515699e-01,6.24527e-05,9.99999e-01,9.98234e-01,6.25631e-05,9.99999e-01
5.056673278e-01,7.56742e-05,9.99999e-01,9.99070e-01,7.57446e-05,9.99999e-01
5.081956644e-01,9.12505e-05,9.99999e-01,9.98827e-01,9.13576e-05,9.99999e-01
5.107366428e-01,1.09695e-04,9.99999e-01,9.99208e-01,1.09782e-04,9.99999e-01
5.132903260e-01,1.31384e-04,9.99999e-01,9.99548e-01,1.31443e-04,9.99999e-01
5.158567776e-01,1.56791e-04,9.99999e-01,9.99809e-01,1.56821e-04,9.99999e-01
5.184360615e-01,1.86432e-04,9.99999e-01,9.99923e-01,1.86446e-04,9.99999e-01
5.210282418e-01,2.20906e-04,9.99999e-01,9.99970e-01,2.20912e-04,9.99999e-01
5.236333830e-01,2.60844e-04,9.99999e-01,9.99884e-01,2.60874e-04,9.99999e-01
5.262515499e-01,3.07032e-04,9.99999e-01,9.99927e-01,3.07054e-04,9.99999e-01
5.288828077e-01,3.60224e-04,9.99999e-01,9.99933e-01,3.60247e-04,9.99999e-01
5.315272217e-01,4.21300e-04,9.99999e-01,9.99941e-01,4.21324e-04,9.99999e-01
5.341848578e-01,4.91216e-04,9.99999e-01,9.99961e-01,4.91234e-04,9.99999e-01
5.368557821e-01,5.70934e-04,9.99999e-01,9.99865e-01,5.71010e-04,9.99999e-01
5.395400610e-01,6.61450e-04,9.99999e-01,9.99512e-01,6.61772e-04,9.99999e-01
5.422377613e-01,7.64252e-04,9.99999e-01,9.99376e-01,7.64728e-04,9.99999e-01
5.449489501e-01,8.80669e-04,9.99999e-01,9.99417e-01,8.81182e-04,9.99999e-01
5.476736949e-01,1.01201e-03,9.99999e-01,9.99487e-01,1.01253e-03,9.99999e-01
5.504120634e-01,1.15984e-03,9.99999e-01,9.99627e-01,1.16027e-03,9.99999e-01
5.531641237e-01,1.32574e-03,9.99999e-01,9.99812e-01,1.32599e-03,9.99999e-01
5.559299443e-01,1.51126e-03,9.99999e-01,9.99909e-01,1.51139e-03,9.99999e-01
5.587095940e-01,1.71818e-03,9.99999e-01,9.99942e-01,1.71827e-03,9.99999e-01
5.615031420e-01,1.94840e-03,9.99999e-01,9.99936e-01,1.94852e-03,9.99999e-01
5.643106577e-01,2.20399e-03,9.99999e-01,9.99927e-01,2.20415e-03,9.99999e-01
5.671322110e-01,2.48505e-03,9.99999e-01,9.99115e-01,2.48724e-03,9.99999e-01
5.699678720e-01,2.79743e-03,9.99999e-01,9.99078e-01,2.80001e-03,9.99999e-01
5.728177114e-01,3.14170e-03,9.99999e-01,9.99032e-01,3.14474e-03,9.99999e-01
5.756818000e-01,3.52070e-03,9.99999e-01,9.99113e-01,3.52382e-03,9.99999e-01
5.785602090e-01,3.93669e-03,9.99999e-01,9.99228e-01,3.93973e-03,9.99999e-01
5.814530100e-01,4.39162e-03,9.99999e-01,9.99223e-01,4.39503e-03,9.99999e-01
5.843602750e-01,4.88781e-03,9.99999e-01,9.99069e-01,4.89236e-03,9.99999e-01
5.872820764e-01,5.39107e-03,9.99999e-01,9.92014e-01,5.43446e-03,9.99999e-01
5.902184868e-01,5.96622e-03,9.99999e-01,9.90389e-01,6.02411e-03,9.99999e-01
5.931695792e-01,6.61878e-03,9.99999e-01,9.93190e-01,6.66416e-03,9.99999e-01
5.961354271e-01,7.30269e-03,9.99999e-01,9.92547e-01,7.35753e-03,9.99999e-01
5.991161043e-01,8.06310e-03,9.99999e-01,9.94563e-01,8.10717e-03,9.99999e-01
6.021116848e-01,8.88858e-03,9.99999e-01,9.96914e-01,8.91608e-03,9.99999e-01
6.051222432e-01,9.77203e-03,9.99999e-01,9.98438e-01,9.78731e-03,9.99999e-01
6.081478544e-01,1.07167e-02,9.99999e-01,9.99325e-01,1.07239e-02,9.99999e-01
6.111885937e-01,1.17256e-02,9.99999e-01,9.99715e-01,1.17289e-02,9.99999e-01
6.142445367e-01,1.28038e-02,9.99999e-01,9.99872e-01,1.28055e-02,9.99999e-01
6.173157594e-01,1.39556e-02,9.99999e-01,9.99929e-01,1.39566e-02,9.99999e-01
6.204023382e-01,1.51844e-02,9.99999e-01,9.99939e-01,1.51853e-02,9.99999e-01
6.235043498e-01,1.64903e-02,9.99999e-01,9.99733e-01,1.64947e-02,9.99999e-01
6.266218716e-01,1.78629e-02,9.99999e-01,9.98609e-01,1.78878e-02,9.99999e-01
6.297549810e-01,1.93576e-02,9.99999e-01,9.99489e-01,1.93675e-02,9.99999e-01
6.329037559e-01,2.09156e-02,9.99999e-01,9.98994e-01,2.09367e-02,9.99999e-01
6.360682746e-01,2.25788e-02,9.99999e-01,9.99140e-01,2.25982e-02,9.99999e-01
6.392486160e-01,2.43278e-02,9.99999e-01,9.98888e-01,2.43548e-02,9.99999e-01
6.424448591e-01,2.61700e-02,9.99999e-01,9.98503e-01,2.62092e-02,9.99999e-01
6.456570834e-01,2.79688e-02,9.99999e-01,9.93069e-01,2.81640e-02,9.99999e-01
6.488853688e-01,3.00693e-02,9.99999e-01,9.94964e-01,3.02215e-02,9.99999e-01
6.521297956e-01,3.22180e-02,9.99999e-01,9.94868e-01,3.23842e-02,9.99999e-01
6.553904446e-01,3.44767e-02,9.99999e-01,9.94871e-01,3.46544e-02,9.99999e-01
6.586673968e-01,3.68719e-02,9.99999e-01,9.95621e-01,3.70341e-02,9.99999e-01
6.619607338e-01,3.94288e-02,9.99999e-01,9.97558e-01,3.95253e-02,9.99999e-01
6.652705375e-01,4.20681e-02,9.99999e-01,9.98533e-01,4.21299e-02,9.99999e-01
6.685968902e-01,4.48216e-02,9.99999e-01,9.99376e-01,4.48495e-02,9.99999e-01
6.719398746e-01,4.76708e-02,9.99999e-01,9.99684e-01,4.76858e-02,9.99999e-01
6.752995740e-01,5.06316e-02,9.99999e-01,9.99833e-01,5.06401e-02,9.99999e-01
6.786760719e-01,5.37001e-02,9.99999e-01,9.99750e-01,5.37135e-02,9.99999e-01
6.820694522e-01,5.68831e-02,9.99999e-01,9.99575e-01,5.69073e-02,9.99999e-01
6.854797995e-01,6.01892e-02,9.99999e-01,9.99452e-01,6.02221e-02,9.99999e-01
6.889071985e-01,6.35736e-02,9.99999e-01,9.98660e-01,6.36589e-02,9.99999e-01
6.923517345e-01,6.57726e-02,9.99999e-01,9.78495e-01,6.72180e-02,9.99999e-01
6.958134932e-01,7.01157e-02,9.99999e-01,9.88938e-01,7.08999e-02,9.99999e-01
6.992925606e-01,7.39070e-02,9.99999e-01,9.89320e-01,7.47048e-02,9.99999e-01
7.027890234e-01,7.76029e-02,9.99999e-01,9.86904e-01,7.86326e-02,9.99999e-01
7.063029686e-01,8.17712e-02,9.99999e-01,9.88969e-01,8.26832e-02,9.99999e-01
7.098344834e-01,8.59367e-02,9.99999e-01,9.89413e-01,8.68562e-02,9.99999e-01
7.133836558e-01,8.98567e-02,9.99999e-01,9.85799e-01,9.11511e-02,9.99998e-01
7.169505741e-01,8.52766e-02,9.99999e-01,8.92320e-01,9.55673e-02,9.99998e-01
7.205353270e-01,9.47371e-02,9.99999e-01,9.46388e-01,1.00104e-01,9.99998e-01
7.241380036e-01,9.75912e-02,9.99999e-01,9.31573e-01,1.04760e-01,9.99997e-01
7.277586936e-01,1.02753e-01,9.99999e-01,9.38096e-01,1.09534e-01,9.99998e-01
7.313974871e-01,1.06929e-01,9.99999e-01,9.34496e-01,1.14425e-01,9.99998e-01
7.350544745e-01,1.15083e-01,9.99999e-01,9.63598e-01,1.19431e-01,9.99998e-01
7.387297469e-01,1.21197e-01,9.99999e-01,9.73079e-01,1.24550e-01,9.99999e-01
7.424233956e-01,1.28063e-01,9.99999e-01,9.86755e-01,1.29782e-01,9.99999e-01
7.461355126e-01,1.34035e-01,9.99999e-01,9.91944e-01,1.35123e-01,9.99999e-01
7.498661902e-01,1.40046e-01,9.99999e-01,9.96250e-01,1.40573e-01,9.99999e-01
7.536155211e-01,1.45858e-01,9.99999e-01,9.98154e-01,1.46127e-01,9.99999e-01
7.573835987e-01,1.51641e-01,9.99999e-01,9.99050e-01,1.51786e-01,9.99999e-01
7.611705167e-01,1.57451e-01,9.99999e-01,9.99409e-01,1.57544e-01,9.99999e-01
7.649763693e-01,1.63341e-01,9.99999e-01,9.99629e-01,1.63402e-01,9.99999e-01
7.688012511e-01,1.69311e-01,9.99999e-01,9.99741e-01,1.69354e-01,9.99999e-01
7.726452574e-01,1.75363e-01,9.99999e-01,9.99787e-01,1.75400e-01,9.99999e-01
7.765084837e-01,1.81481e-01,9.99999e-01,9.99696e-01,1.81536e-01,9.99999e-01
7.803910261e-01,1.74165e-01,9.28740e-01,9.98686e-01,1.87758e-01,9.99999e-01
7.842929812e-01,1.37679e-01,7.12395e-01,9.95421e-01,1.94065e-01,9.99999e-01
7.882144461e-01,1.38427e-01,6.96559e-01,9.90645e-01,2.00453e-01,9.99999e-01
7.921555184e-01,1.65491e-01,8.03692e-01,9.94880e-01,2.06918e-01,9.99999e-01
7.961162960e-01,1.82712e-01,8.63667e-01,9.90892e-01,2.13459e-01,9.99999e-01
8.000968774e-01,2.01110e-01,9.23450e-01,9.89527e-01,2.20070e-01,9.99999e-01
8.040973618e-01,2.15333e-01,9.59663e-01,9.89514e-01,2.26750e-01,9.99999e-01
8.081178486e-01,2.23724e-01,9.81209e-01,9.76428e-01,2.33495e-01,9.99998e-01
8.121584379e-01,2.16412e-01,9.94203e-01,9.05720e-01,2.40301e-01,9.99998e-01
8.162192301e-01,2.19699e-01,9.98716e-01,8.89970e-01,2.47165e-01,9.99997e-01
8.203003262e-01,2.39710e-01,9.99981e-01,9.43442e-01,2.54084e-01,9.99997e-01
8.244018279e-01,2.41086e-01,9.99999e-01,9.23513e-01,2.61054e-01,9.99997e-01
8.285238370e-01,2.49937e-01,9.99999e-01,9.32353e-01,2.68072e-01,9.99998e-01
8.326664562e-01,2.56396e-01,9.99999e-01,9.31896e-01,2.75134e-01,9.99998e-01
8.368297885e-01,2.68356e-01,9.99999e-01,9.50816e-01,2.82238e-01,9.99998e-01
8.410139374e-01,2.80835e-01,9.99999e-01,9.70477e-01,2.89379e-01,9.99999e-01
8.452190071e-01,2.92231e-01,9.99999e-01,9.85423e-01,2.96554e-01,9.99999e-01
8.494451021e-01,3.01177e-01,9.99999e-01,9.91494e-01,3.03760e-01,9.99999e-01
8.536923276e-01,3.09432e-01,9.99999e-01,9.94974e-01,3.10994e-01,9.99999e-01
8.579607893e-01,3.17265e-01,9.99999e-01,9.96896e-01,3.18253e-01,9.99999e-01
8.622505932e-01,3.24891e-01,9.99999e-01,9.98030e-01,3.25532e-01,9.99999e-01
8.665618462e-01,2.92963e-01,8.81233e-01,9.98778e-01,3.32829e-01,9.99999e-01
8.708946554e-01,1.45911e-01,4.29533e-01,9.98598e-01,3.40140e-01,9.99999e-01
8.752491287e-01,1.73191e-01,4.99326e-01,9.98127e-01,3.47463e-01,9.99999e-01
8.796253743e-01,2.40093e-01,6.78360e-01,9.97401e-01,3.54795e-01,9.99999e-01
8.840235012e-01,2.94550e-01,8.15717e-01,9.97033e-01,3.62131e-01,9.99999e-01
8.884436187e-01,3.37315e-01,9.22806e-01,9.89099e-01,3.69470e-01,9.99998e-01
8.928858368e-01,3.25640e-01,9.67871e-01,8.92306e-01,3.76809e-01,9.99997e-01
8.973502660e-01,3.12247e-01,9.92134e-01,8.18987e-01,3.84144e-01,9.99997e-01
9.018370173e-01,3.53459e-01,9.99131e-01,9.03628e-01,3.91472e-01,9.99996e-01
9.063462024e-01,3.56734e-01,9.77628e-01,9.13553e-01,3.98792e-01,9.99996e-01
9.108779334e-01,3.35637e-01,9.49751e-01,8.68999e-01,4.06099e-01,9.99995e-01
9.154323231e-01,3.48409e-01,9.88061e-01,8.52503e-01,4.13393e-01,9.99995e-01
9.200094847e-01,3.19538e-01,8.49053e-01,8.82913e-01,4.20669e-01,9.99994e-01
9.246095321e-01,2.76676e-01,7.77569e-01,8.24162e-01,4.27926e-01,9.99990e-01
9.292325798e-01,1.07664e-01,8.21747e-01,2.90237e-01,4.35161e-01,9.99980e-01
9.338787427e-01,7.79417e-02,8.27044e-01,2.05964e-01,4.42372e-01,9.99974e-01
9.385481364e-01,2.08848e-01,8.69069e-01,5.26310e-01,4.49556e-01,9.99974e-01
9.432408771e-01,1.76327e-01,9.17559e-01,4.17012e-01,4.56712e-01,9.99971e-01
9.479570815e-01,1.34384e-01,9.56725e-01,3.01477e-01,4.63837e-01,9.99975e-01
9.526968669e-01,1.84471e-01,9.78943e-01,3.98820e-01,4.70929e-01,9.99981e-01
9.574603512e-01,1.98600e-01,9.90942e-01,4.18775e-01,4.77986e-01,9.99985e-01
9.622476530e-01,2.36630e-01,9.97168e-01,4.89105e-01,4.85007e-01,9.99990e-01
9.670588912e-01,3.24522e-01,9.99152e-01,6.60115e-01,4.91989e-01,9.99993e-01
9.718941857e-01,3.83110e-01,9.99940e-01,7.67904e-01,4.98930e-01,9.99996e-01
9.767536566e-01,4.06140e-01,9.99999e-01,8.02921e-01,5.05830e-01,9.99997e-01
9.816374249e-01,4.35643e-01,9.99999e-01,8.49728e-01,5.12685e-01,9.99997e-01
9.865456120e-01,4.69170e-01,9.99999e-01,9.03126e-01,5.19496e-01,9.99998e-01
9.914783401e-01,4.94086e-01,9.99999e-01,9.38863e-01,5.26259e-01,9.99999e-01
9.964357318e-01,5.14979e-01,9.99999e-01,9.66233e-01,5.32975e-01,9.99999e-01
1.001417910e+00,5.28646e-01,9.99999e-01,9.79624e-01,5.39641e-01,9.99999e-01
1.006425000e+00,5.39874e-01,9.99999e-01,9.88316e-01,5.46257e-01,9.99999e-01
1.011457125e+00,5.48811e-01,9.99999e-01,9.92746e-01,5.52820e-01,9.99999e-01
1.016514411e+00,5.56571e-01,9.99999e-01,9.95065e-01,5.59330e-01,9.99999e-01
1.021596983e+00,5.63485e-01,9.99866e-01,9.96064e-01,5.65786e-01,9.99999e-01
1.026704968e+00,5.65370e-01,9.91120e-01,9.96928e-01,5.72187e-01,9.99999e-01
1.031838492e+00,5.30221e-01,9.18439e-01,9.97770e-01,5.78532e-01,9.99999e-01
1.036997685e+00,3.97620e-02,6.80589e-02,9.98672e-01,5.84820e-01,9.99999e-01
1.042182673e+00,6.74943e-03,1.14339e-02,9.98413e-01,5.91050e-01,9.99999e-01
1.047393587e+00,1.39220e-02,2.33528e-02,9.97899e-01,5.97221e-01,9.99999e-01
1.052630555e+00,1.07409e-05,1.78362e-05,9.97115e-01,6.03333e-01,9.99999e-01
1.057893707e+00,3.96774e-05,6.52856e-05,9.95183e-01,6.09384e-01,9.99999e-01
1.063183176e+00,4.67759e-04,7.63811e-04,9.92092e-01,6.15376e-01,9.99999e-01
1.068499092e+00,3.10107e-03,5.03905e-03,9.86807e-01,6.21306e-01,9.99999e-01
1.073841587e+00,2.11254e-02,3.40838e-02,9.84564e-01,6.27174e-01,9.99999e-01
1.079210795e+00,7.39228e-02,1.18717e-01,9.80301e-01,6.32980e-01,9.99998e-01
1.084606849e+00,1.87903e-01,3.02320e-01,9.70305e-01,6.38724e-01,9.99998e-01
1.090029883e+00,3.31016e-01,5.35065e-01,9.57480e-01,6.44405e-01,9.99997e-01
1.095480033e+00,4.25429e-01,7.34461e-01,8.88542e-01,6.50022e-01,9.99996e-01
1.100957433e+00,4.20487e-01,8.61357e-01,7.42001e-01,6.55576e-01,9.99994e-01
1.106462220e+00,2.97482e-01,9.40152e-01,4.76418e-01,6.61067e-01,9.99988e-01
1.111994531e+00,1.42091e-01,9.77367e-01,2.17419e-01,6.66494e-01,9.99977e-01
1.117554504e+00,5.99103e-02,9.94449e-01,8.95031e-02,6.71857e-01,9.99967e-01
1.123142276e+00,1.26075e-01,9.99636e-01,1.86204e-01,6.77155e-01,9.99962e-01
1.128757988e+00,2.17918e-01,9.99999e-01,3.19359e-01,6.82390e-01,9.99958e-01
1.134401778e+00,1.01901e-01,9.99999e-01,1.48213e-01,6.87560e-01,9.99953e-01
1.140073787e+00,3.42618e-01,9.99999e-01,4.94654e-01,6.92667e-01,9.99962e-01
1.145774156e+00,1.71347e-01,9.99999e-01,2.45592e-01,6.97709e-01,9.99968e-01
1.151503026e+00,1.49024e-01,9.99999e-01,2.12082e-01,7.02687e-01,9.99972e-01
1.157260541e+00,1.81859e-01,9.99999e-01,2.57012e-01,7.07602e-01,9.99979e-01
1.163046844e+00,2.59436e-01,9.99999e-01,3.64149e-01,7.12453e-01,9.99986e-01
1.168862078e+00,3.50737e-01,9.99999e-01,4.89011e-01,7.17240e-01,9.99992e-01
1.174706389e+00,4.63868e-01,9.99999e-01,6.42510e-01,7.21964e-01,9.99996e-01
1.180579921e+00,5.54548e-01,9.99999e-01,7.63185e-01,7.26625e-01,9.99997e-01
1.186482820e+00,6.27186e-01,9.99980e-01,8.57738e-01,7.31222e-01,9.99997e-01
1.192415234e+00,6.52417e-01,9.69221e-01,9.14155e-01,7.35758e-01,9.99997e-01
1.198377311e+00,3.69238e-01,5.31280e-01,9.27077e-01,7.40231e-01,9.99998e-01
1.204369197e+00,2.77918e-23,3.88998e-23,9.31019e-01,7.44642e-01,9.99998e-01
1.210391043e+00,1.49563e-92,2.07431e-92,9.33873e-01,7.48991e-01,9.99998e-01
1.216442998e+00,3.64753e-80,5.02001e-80,9.43549e-01,7.53280e-01,9.99998e-01
1.222525213e+00,5.79086e-79,7.82532e-79,9.55703e-01,7.57507e-01,9.99999e-01
1.228637839e+00,5.22574e-61,7.00838e-61,9.69009e-01,7.61674e-01,9.99999e-01
1.234781029e+00,3.52849e-38,4.65448e-38,9.76917e-01,7.65781e-01,9.99999e-01
1.240954934e+00,1.97588e-25,2.59034e-25,9.85332e-01,7.69828e-01,9.99999e-01
1.247159708e+00,1.41880e-12,1.84600e-12,9.88566e-01,7.73816e-01,9.99999e-01
1.253395507e+00,1.72601e-08,2.23534e-08,9.89832e-01,7.77745e-01,9.99999e-01
1.259662485e+00,3.41095e-05,4.39513e-05,9.90323e-01,7.81616e-01,9.99999e-01
1.265960797e+00,2.87201e-03,3.69467e-03,9.84607e-01,7.85429e-01,9.99999e-01
1.272290601e+00,6.00664e-02,7.76790e-02,9.75870e-01,7.89185e-01,9.99998e-01
1.278652054e+00,5.14255e-02,6.70499e-02,9.52658e-01,7.92885e-01,9.99998e-01
1.285045314e+00,1.47758e-04,1.92230e-04,9.15848e-01,7.96528e-01,9.99997e-01
1.291470541e+00,2.95244e-11,4.02713e-11,8.58071e-01,8.00115e-01,9.99996e-01
1.297927893e+00,1.71376e-04,2.33757e-04,8.04722e-01,8.03647e-01,9.99994e-01
1.304417533e+00,5.98799e-03,9.10675e-03,7.75025e-01,8.07124e-01,9.99989e-01
1.310939621e+00,1.07859e-03,1.56887e-03,7.24697e-01,8.10548e-01,9.99983e-01
1.317494319e+00,2.85554e-32,4.17974e-32,7.29391e-01,8.13918e-01,9.99971e-01
1.324081790e+00,3.96069e-21,6.00549e-21,6.25832e-01,8.17235e-01,9.99954e-01
1.330702199e+00,8.42178e-13,2.02792e-12,2.13764e-01,8.20499e-01,9.99923e-01
1.337355710e+00,6.71711e-13,1.65538e-11,1.33352e-02,8.23712e-01,9.99853e-01
1.344042489e+00,7.21795e-14,7.43169e-12,3.60628e-04,8.26873e-01,9.99687e-01
1.350762701e+00,4.49003e-21,1.07322e-12,6.21770e-10,8.29984e-01,9.99501e-01
1.357516515e+00,1.86332e-20,5.93331e-08,2.31375e-14,8.33045e-01,9.99382e-01
1.364304097e+00,1.43217e-13,8.73435e-06,4.10772e-09,8.36056e-01,9.99338e-01
1.371125618e+00,2.67353e-08,2.60621e-03,4.62815e-06,8.39018e-01,9.99333e-01
1.377981246e+00,1.69351e-07,6.12298e-03,1.50084e-05,8.41932e-01,9.99283e-01
1.384871152e+00,4.08832e-09,5.13202e-02,5.61087e-08,8.44798e-01,9.99303e-01
1.391795508e+00,4.35743e-10,6.47285e-02,4.10508e-09,8.47617e-01,9.99409e-01
1.398754485e+00,4.44637e-08,1.80016e-01,2.35284e-07,8.50390e-01,9.99492e-01
1.405748258e+00,7.27535e-08,2.86105e-01,2.37297e-07,8.53116e-01,9.99545e-01
1.412776999e+00,1.22113e-07,4.51693e-01,2.49691e-07,8.55797e-01,9.99634e-01
1.419840884e+00,2.54979e-07,4.08345e-01,5.17400e-07,8.58434e-01,9.99726e-01
1.426940089e+00,7.99501e-06,1.85305e-02,2.58624e-05,8.61026e-01,9.99830e-01
1.434074789e+00,0.00000e+00,0.00000e+00,2.03667e-04,8.63574e-01,9.99894e-01
1.441245163e+00,0.00000e+00,0.00000e+00,9.82812e-04,8.66080e-01,9.99917e-01
1.448451389e+00,0.00000e+00,0.00000e+00,8.38392e-03,8.68543e-01,9.99931e-01
1.455693646e+00,0.00000e+00,0.00000e+00,3.82364e-02,8.70964e-01,9.99943e-01
1.462972114e+00,0.00000e+00,0.00000e+00,5.38479e-02,8.73344e-01,9.99951e-01
1.470286975e+00,6.30996e-154,5.56050e-153,3.42317e-02,8.75684e-01,9.99956e-01
