#,Wave/freq,Total,CO2,H2O,Rayleigh,CIA
4.000000000e-01,1.57689e-09,9.99999e-01,9.99959e-01,1.57696e-09,9.99999e-01
4.020000000e-01,2.35423e-09,9.99999e-01,9.99975e-01,2.35429e-09,9.99999e-01
4.040100000e-01,3.48564e-09,9.99999e-01,9.99989e-01,3.48568e-09,9.99999e-01
4.060300500e-01,5.12091e-09,9.99999e-01,9.99997e-01,5.12092e-09,9.99999e-01
4.080602003e-01,7.46636e-09,9.99999e-01,9.99998e-01,7.46636e-09,9.99999e-01
4.101005013e-01,1.08053e-08,9.99999e-01,9.99999e-01,1.08053e-08,9.99999e-01
4.121510038e-01,1.55235e-08,9.99999e-01,9.99998e-01,1.55235e-08,9.99999e-01
4.142117588e-01,2.21428e-08,9.99999e-01,9.99988e-01,2.21431e-08,9.99999e-01
4.162828176e-01,3.13630e-08,9.99999e-01,9.99950e-01,3.13645e-08,9.99999e-01
4.183642317e-01,4.41204e-08,9.99999e-01,9.99970e-01,4.41217e-08,9.99999e-01
4.204560528e-01,6.16497e-08,9.99999e-01,9.99981e-01,6.16508e-08,9.99999e-01
4.225583331e-01,8.55761e-08,9.99999e-01,9.99992e-01,8.55767e-08,9.99999e-01
4.246711247e-01,1.18020e-07,9.99999e-01,9.99994e-01,1.18021e-07,9.99999e-01
4.267944804e-01,1.61734e-07,9.99999e-01,9.99991e-01,1.61735e-07,9.99999e-01
4.289284528e-01,2.20265e-07,9.99999e-01,9.99993e-01,2.20266e-07,9.99999e-01
4.310730950e-01,2.98154e-07,9.99999e-01,9.99996e-01,2.98154e-07,9.99999e-01
4.332284605e-01,4.01178e-07,9.99999e-01,9.99998e-01,4.01178e-07,9.99999e-01
4.353946028e-01,5.36645e-07,9.99999e-01,9.99999e-01,5.36645e-07,9.99999e-01
4.375715758e-01,7.13738e-07,9.99999e-01,9.99994e-01,7.13742e-07,9.99999e-01
4.397594337e-01,9.43909e-07,9.99999e-01,9.99956e-01,9.43950e-07,9.99999e-01
4.419582309e-01,1.24126e-06,9.99999e-01,9.99777e-01,1.24153e-06,9.99999e-01
4.441680220e-01,1.62384e-06,9.99999e-01,9.99829e-01,1.62412e-06,9.99999e-01
4.463888621e-01,2.11298e-06,9.99999e-01,9.99821e-01,2.11335e-06,9.99999e-01
4.486208064e-01,2.73540e-06,9.99999e-01,9.99889e-01,2.73570e-06,9.99999e-01
4.508639105e-01,3.52312e-06,9.99999e-01,9.99947e-01,3.52330e-06,9.99999e-01
4.531182300e-01,4.51494e-06,9.99999e-01,9.99979e-01,4.51503e-06,9.99999e-01
4.553838212e-01,5.75756e-06,9.99999e-01,9.99985e-01,5.75764e-06,9.99999e-01
4.576607403e-01,7.30702e-06,9.99999e-01,9.99993e-01,7.30706e-06,9.99999e-01
4.599490440e-01,9.22985e-06,9.99999e-01,9.99995e-01,9.22989e-06,9.99999e-01
4.622487892e-01,1.16050e-05,9.99999e-01,9.99998e-01,1.16050e-05,9.99999e-01
4.645600332e-01,1.45255e-05,9.99999e-01,9.99996e-01,1.45255e-05,9.99999e-01
4.668828333e-01,1.80996e-05,9.99999e-01,9.99946e-01,1.81006e-05,9.99999e-01
4.692172475e-01,2.24551e-05,9.99999e-01,9.99888e-01,2.24576e-05,9.99999e-01
4.715633337e-01,2.77431e-05,9.99999e-01,9.99926e-01,2.77451e-05,9.99999e-01
4.739211504e-01,3.41322e-05,9.99999e-01,9.99929e-01,3.41346e-05,9.99999e-01
4.762907561e-01,4.18224e-05,9.99999e-01,9.99963e-01,4.18240e-05,9.99999e-01
4.786722099e-01,5.10395e-05,9.99999e-01,9.99984e-01,5.10402e-05,9.99999e-01
4.810655710e-01,6.20426e-05,9.99999e-01,9.99995e-01,6.20429e-05,9.99999e-01
4.834708988e-01,7.51239e-05,9.99999e-01,9.99956e-01,7.51271e-05,9.99999e-01
4.858882533e-01,9.06204e-05,9.99999e-01,9.99920e-01,9.06275e-05,9.99999e-01
4.883176946e-01,1.08914e-04,9.99999e-01,9.99933e-01,1.08922e-04,9.99999e-01
4.907592831e-01,1.30426e-04,9.99999e-01,9.99939e-01,1.30434e-04,9.99999e-01
4.932130795e-01,1.55634e-04,9.99999e-01,9.99957e-01,1.55640e-04,9.99999e-01
4.956791449e-01,1.85066e-04,9.99999e-01,9.99977e-01,1.85070e-04,9.99999e-01
4.981575406e-01,2.19289e-04,9.99999e-01,9.99886e-01,2.19314e-04,9.99999e-01
5.006483283e-01,2.58947e-04,9.99999e-01,9.99706e-01,2.59023e-04,9.99999e-01
5.031515699e-01,3.04469e-04,9.99999e-01,9.98522e-01,3.04919e-04,9.99999e-01
5.056673278e-01,3.57514e-04,9.99999e-01,9.99222e-01,3.57792e-04,9.99999e-01
5.081956644e-01,4.18099e-04,9.99999e-01,9.99019e-01,4.18509e-04,9.99999e-01
5.107366428e-01,4.87694e-04,9.99999e-01,9.99337e-01,4.88017e-04,9.99999e-01
5.132903260e-01,5.67129e-04,9.99999e-01,9.99621e-01,5.67344e-04,9.99999e-01
5.158567776e-01,6.57501e-04,9.99999e-01,9.99840e-01,6.57606e-04,9.99999e-01
5.184360615e-01,7.59961e-04,9.99999e-01,9.99935e-01,7.60009e-04,9.99999e-01
5.210282418e-01,8.75830e-04,9.99999e-01,9.99975e-01,8.75851e-04,9.99999e-01
5.236333830e-01,1.00643e-03,9.99999e-01,9.99903e-01,1.00653e-03,9.99999e-01
5.262515499e-01,1.15345e-03,9.99999e-01,9.99939e-01,1.15352e-03,9.99999e-01
5.288828077e-01,1.31836e-03,9.99999e-01,9.99944e-01,1.31844e-03,9.99999e-01
5.315272217e-01,1.50288e-03,9.99999e-01,9.99951e-01,1.50295e-03,9.99999e-01
5.341848578e-01,1.70881e-03,9.99999e-01,9.99967e-01,1.70886e-03,9.99999e-01
5.368557821e-01,1.93785e-03,9.99999e-01,9.99887e-01,1.93806e-03,9.99999e-01
5.395400610e-01,2.19166e-03,9.99999e-01,9.99592e-01,2.19255e-03,9.99999e-01
5.422377613e-01,2.47312e-03,9.99999e-01,9.99478e-01,2.47441e-03,9.99999e-01
5.449489501e-01,2.78449e-03,9.99999e-01,9.99512e-01,2.78585e-03,9.99999e-01
5.476736949e-01,3.12780e-03,9.99999e-01,9.99570e-01,3.12915e-03,9.99999e-01
5.504120634e-01,3.50560e-03,9.99999e-01,9.99688e-01,3.50669e-03,9.99999e-01
5.531641237e-01,3.92034e-03,9.99999e-01,9.99843e-01,3.92095e-03,9.99999e-01
5.559299443e-01,4.37417e-03,9.99999e-01,9.99924e-01,4.37450e-03,9.99999e-01
5.587095940e-01,4.86973e-03,9.99999e-01,9.99952e-01,4.86996e-03,9.99999e-01
5.615031420e-01,5.40978e-03,9.99999e-01,9.99946e-01,5.41007e-03,9.99999e-01
5.643106577e-01,5.99724e-03,9.99999e-01,9.99938e-01,5.99760e-03,9.99999e-01
5.671322110e-01,6.63051e-03,9.99999e-01,9.99260e-01,6.63541e-03,9.99999e-01
5.699678720e-01,7.32077e-03,9.99999e-01,9.99229e-01,7.32642e-03,9.99999e-01
5.728177114e-01,8.06703e-03,9.99999e-01,9.99190e-01,8.07356e-03,9.99999e-01
5.756818000e-01,8.87327e-03,9.99999e-01,9.99258e-01,8.87985e-03,9.99999e-01
5.785602090e-01,9.74204e-03,9.99999e-01,9.99354e-01,9.74832e-03,9.99999e-01
5.814530100e-01,1.06751e-02,9.99999e-01,9.99350e-01,1.06820e-02,9.99999e-01
5.843602750e-01,1.16749e-02,9.99999e-01,9.99221e-01,1.16840e-02,9.99999e-01
5.872820764e-01,1.26721e-02,9.99999e-01,9.93314e-01,1.27574e-02,9.99999e-01
5.902184868e-01,1.37934e-02,9.99999e-01,9.91955e-01,1.39052e-02,9.99999e-01
5.931695792e-01,1.50443e-02,9.99999e-01,9.94300e-01,1.51306e-02,9.99999e-01
5.961354271e-01,1.63339e-02,9.99999e-01,9.93762e-01,1.64364e-02,9.99999e-01
5.991161043e-01,1.77447e-02,9.99999e-01,9.95450e-01,1.78258e-02,9.99999e-01
6.021116848e-01,1.92519e-02,9.99999e-01,9.97418e-01,1.93017e-02,9.99999e-01
6.051222432e-01,2.08397e-02,9.99999e-01,9.98693e-01,2.08670e-02,9.99999e-01
6.081478544e-01,2.25118e-02,9.99999e-01,9.99435e-01,2.25245e-02,9.99999e-01
6.111885937e-01,2.42711e-02,9.99999e-01,9.99761e-01,2.42769e-02,9.99999e-01
6.142445367e-01,2.61242e-02,9.99999e-01,9.99893e-01,2.61270e-02,9.99999e-01
6.173157594e-01,2.80757e-02,9.99999e-01,9.99940e-01,2.80774e-02,9.99999e-01
6.204023382e-01,3.01289e-02,9.99999e-01,9.99949e-01,3.01304e-02,9.99999e-01
6.235043498e-01,3.22814e-02,9.99999e-01,9.99777e-01,3.22885e-02,9.99999e-01
6.266218716e-01,3.45138e-02,9.99999e-01,9.98837e-01,3.45540e-02,9.99999e-01
6.297549810e-01,3.69132e-02,9.99999e-01,9.99573e-01,3.69289e-02,9.99999e-01
6.329037559e-01,3.93822e-02,9.99999e-01,9.99158e-01,3.94153e-02,9.99999e-01
6.360682746e-01,4.19848e-02,9.99999e-01,9.99281e-01,4.20149e-02,9.99999e-01
6.392486160e-01,4.46880e-02,9.99999e-01,9.99069e-01,4.47296e-02,9.99999e-01
6.424448591e-01,4.75013e-02,9.99999e-01,9.98747e-01,4.75608e-02,9.99999e-01
6.456570834e-01,5.02170e-02,9.99999e-01,9.94199e-01,5.05099e-02,9.99999e-01
6.488853688e-01,5.33524e-02,9.99999e-01,9.95785e-01,5.35782e-02,9.99999e-01
6.521297956e-01,5.65229e-02,9.99999e-01,9.95704e-01,5.67667e-02,9.99999e-01
6.553904446e-01,5.98186e-02,9.99999e-01,9.95708e-01,6.00764e-02,9.99999e-01
6.586673968e-01,6.32751e-02,9.99999e-01,9.96335e-01,6.35078e-02,9.99999e-01
6.619607338e-01,6.69247e-02,9.99999e-01,9.97957e-01,6.70617e-02,9.99999e-01
6.652705375e-01,7.06515e-02,9.99999e-01,9.98773e-01,7.07383e-02,9.99999e-01
6.685968902e-01,7.44990e-02,9.99999e-01,9.99478e-01,7.45378e-02,9.99999e-01
6.719398746e-01,7.84396e-02,9.99999e-01,9.99735e-01,7.84603e-02,9.99999e-01
6.752995740e-01,8.24941e-02,9.99999e-01,9.99860e-01,8.25056e-02,9.99999e-01
6.786760719e-01,8.66553e-02,9.99999e-01,9.99791e-01,8.66733e-02,9.99999e-01
6.820694522e-01,9.09307e-02,9.99999e-01,9.99644e-01,9.09630e-02,9.99999e-01
6.854797995e-01,9.53303e-02,9.99999e-01,9.99541e-01,9.53739e-02,9.99999e-01
6.889071985e-01,9.97934e-02,9.99999e-01,9.98878e-01,9.99053e-02,9.99999e-01
6.923517345e-01,1.02671e-01,9.99999e-01,9.81974e-01,1.04556e-01,9.99999e-01
6.958134932e-01,1.08312e-01,9.99999e-01,9.90735e-01,1.09325e-01,9.99999e-01
6.992925606e-01,1.13190e-01,9.99999e-01,9.91058e-01,1.14211e-01,9.99999e-01
7.027890234e-01,1.17905e-01,9.99999e-01,9.89033e-01,1.19212e-01,9.99999e-01
7.063029686e-01,1.23179e-01,9.99999e-01,9.90765e-01,1.24327e-01,9.99999e-01
7.098344834e-01,1.28405e-01,9.99999e-01,9.91137e-01,1.29554e-01,9.99999e-01
7.133836558e-01,1.33286e-01,9.99999e-01,9.88103e-01,1.34890e-01,9.99999e-01
7.169505741e-01,1.27548e-01,9.99999e-01,9.08886e-01,1.40335e-01,9.99998e-01
7.205353270e-01,1.39303e-01,9.99999e-01,9.54881e-01,1.45885e-01,9.99998e-01
7.241380036e-01,1.42803e-01,9.99999e-01,9.42355e-01,1.51539e-01,9.99998e-01
7.277586936e-01,1.49095e-01,9.99999e-01,9.47876e-01,1.57293e-01,9.99998e-01
7.313974871e-01,1.54150e-01,9.99999e-01,9.44859e-01,1.63146e-01,9.99998e-01
7.350544745e-01,1.63928e-01,9.99999e-01,9.69443e-01,1.69095e-01,9.99999e-01
7.387297469e-01,1.71183e-01,9.99999e-01,9.77426e-01,1.75137e-01,9.99999e-01
7.424233956e-01,1.79258e-01,9.99999e-01,9.88909e-01,1.81269e-01,9.99999e-01
7.461355126e-01,1.86224e-01,9.99999e-01,9.93257e-01,1.87488e-01,9.99999e-01
7.498661902e-01,1.93183e-01,9.99999e-01,9.96862e-01,1.93791e-01,9.99999e-01
7.536155211e-01,1.99866e-01,9.99999e-01,9.98456e-01,2.00175e-01,9.99999e-01
7.573835987e-01,2.06473e-01,9.99999e-01,9.99205e-01,2.06637e-01,9.99999e-01
7.611705167e-01,2.13069e-01,9.99999e-01,9.99505e-01,2.13175e-01,9.99999e-01
7.649763693e-01,2.19715e-01,9.99999e-01,9.99689e-01,2.19783e-01,9.99999e-01
7.688012511e-01,2.26411e-01,9.99999e-01,9.99783e-01,2.26460e-01,9.99999e-01
7.726452574e-01,2.33161e-01,9.99999e-01,9.99821e-01,2.33202e-01,9.99999e-01
7.765084837e-01,2.39944e-01,9.99999e-01,9.99745e-01,2.40005e-01,9.99999e-01
7.803910261e-01,2.31390e-01,9.38278e-01,9.98901e-01,2.46867e-01,9.99999e-01
7.842929812e-01,1.89902e-01,7.50918e-01,9.96168e-01,2.53784e-01,9.99999e-01
7.882144461e-01,1.90565e-01,7.36189e-01,9.92169e-01,2.60752e-01,9.99999e-01
7.921555184e-01,2.21993e-01,8.32463e-01,9.95716e-01,2.67767e-01,9.99999e-01
7.961162960e-01,2.41268e-01,8.84517e-01,9.92375e-01,2.74828e-01,9.99999e-01
8.000968774e-01,2.61450e-01,9.35513e-01,9.91233e-01,2.81930e-01,9.99999e-01
8.040973618e-01,2.76838e-01,9.66136e-01,9.91222e-01,2.89069e-01,9.99999e-01
8.081178486e-01,2.85832e-01,9.84256e-01,9.80236e-01,2.96243e-01,9.99999e-01
8.121584379e-01,2.77961e-01,9.95148e-01,9.20387e-01,3.03448e-01,9.99998e-01
8.162192301e-01,2.81472e-01,9.98926e-01,9.06924e-01,3.10681e-01,9.99998e-01
8.203003262e-01,3.02748e-01,9.99984e-01,9.52233e-01,3.17938e-01,9.99998e-01
8.244018279e-01,3.04147e-01,9.99999e-01,9.35214e-01,3.25217e-01,9.99998e-01
8.285238370e-01,3.13571e-01,9.99999e-01,9.43034e-01,3.32513e-01,9.99998e-01
8.326664562e-01,3.20329e-01,9.99999e-01,9.42631e-01,3.39824e-01,9.99998e-01
8.368297885e-01,3.32799e-01,9.99999e-01,9.58670e-01,3.47147e-01,9.99999e-01
8.410139374e-01,3.45700e-01,9.99999e-01,9.75238e-01,3.54478e-01,9.99999e-01
8.452190071e-01,3.57397e-01,9.99999e-01,9.87791e-01,3.61814e-01,9.99999e-01
8.494451021e-01,3.66525e-01,9.99999e-01,9.92880e-01,3.69153e-01,9.99999e-01
8.536923276e-01,3.74909e-01,9.99999e-01,9.95795e-01,3.76492e-01,9.99999e-01
8.579607893e-01,3.82830e-01,9.99999e-01,9.97403e-01,3.83827e-01,9.99999e-01
8.622505932e-01,3.90511e-01,9.99999e-01,9.98352e-01,3.91156e-01,9.99999e-01
8.665618462e-01,3.54550e-01,8.90626e-01,9.98977e-01,3.98476e-01,9.99999e-01
8.708946554e-01,1.97747e-01,4.87859e-01,9.98827e-01,4.05784e-01,9.99999e-01
8.752491287e-01,2.29462e-01,5.56320e-01,9.98433e-01,4.13078e-01,9.99999e-01
8.796253743e-01,3.02684e-01,7.21552e-01,9.97825e-01,4.20355e-01,9.99999e-01
8.840235012e-01,3.59629e-01,8.43049e-01,9.97518e-01,4.27613e-01,9.99999e-01
8.884436187e-01,4.02922e-01,9.34960e-01,9.90866e-01,4.34849e-01,9.99999e-01
8.928858368e-01,3.91129e-01,9.73046e-01,9.08874e-01,4.42061e-01,9.99998e-01
8.973502660e-01,3.77526e-01,9.93415e-01,8.45707e-01,4.49247e-01,9.99997e-01
9.018370173e-01,4.18904e-01,9.99273e-01,9.18467e-01,4.56404e-01,9.99997e-01
9.063462024e-01,4.22071e-01,9.81186e-01,9.26974e-01,4.63530e-01,9.99996e-01
9.108779334e-01,4.01062e-01,9.57767e-01,8.88888e-01,4.70623e-01,9.99996e-01
9.154323231e-01,4.13854e-01,9.90000e-01,8.74779e-01,4.77682e-01,9.99996e-01
9.200094847e-01,3.83160e-01,8.69126e-01,9.00816e-01,4.84704e-01,9.99995e-01
9.246095321e-01,3.40486e-01,8.09934e-01,8.49415e-01,4.91688e-01,9.99992e-01
9.292325798e-01,1.51459e-01,8.47850e-01,3.48428e-01,4.98631e-01,9.99983e-01
9.338787427e-01,1.15159e-01,8.52755e-01,2.60338e-01,5.05532e-01,9.99978e-01
9.385481364e-01,2.67007e-01,8.89102e-01,5.79415e-01,5.12390e-01,9.99978e-01
9.432408771e-01,2.30159e-01,9.30537e-01,4.73238e-01,5.19202e-01,9.99976e-01
9.479570815e-01,1.82652e-01,9.63666e-01,3.59170e-01,5.25968e-01,9.99979e-01
9.526968669e-01,2.40224e-01,9.82351e-01,4.57934e-01,5.32686e-01,9.99984e-01
9.574603512e-01,2.56605e-01,9.92417e-01,4.78971e-01,5.39354e-01,9.99988e-01
9.622476530e-01,2.98058e-01,9.97630e-01,5.47081e-01,5.45972e-01,9.99991e-01
9.670588912e-01,3.89226e-01,9.99290e-01,7.04890e-01,5.52537e-01,9.99994e-01
9.718941857e-01,4.47995e-01,9.99950e-01,8.01387e-01,5.59050e-01,9.99996e-01
9.767536566e-01,4.70479e-01,9.99999e-01,8.31958e-01,5.65509e-01,9.99997e-01
9.816374249e-01,4.99006e-01,9.99999e-01,8.72523e-01,5.71912e-01,9.99998e-01
9.865456120e-01,5.30988e-01,9.99999e-01,9.18252e-01,5.78259e-01,9.99998e-01
9.914783401e-01,5.54496e-01,9.99999e-01,9.48587e-01,5.84549e-01,9.99999e-01
9.964357318e-01,5.74046e-01,9.99999e-01,9.71672e-01,5.90782e-01,9.99999e-01
1.001417910e+00,5.86764e-01,9.99999e-01,9.82927e-01,5.96955e-01,9.99999e-01
1.006425000e+00,5.97171e-01,9.99999e-01,9.90217e-01,6.03070e-01,9.99999e-01
1.011457125e+00,6.05427e-01,9.99999e-01,9.93929e-01,6.09124e-01,9.99999e-01
1.016514411e+00,6.12578e-01,9.99999e-01,9.95870e-01,6.15118e-01,9.99999e-01
1.021596983e+00,6.18937e-01,9.99888e-01,9.96707e-01,6.21051e-01,9.99999e-01
1.026704968e+00,6.20662e-01,9.92558e-01,9.97430e-01,6.26922e-01,9.99999e-01
1.031838492e+00,5.85694e-01,9.27312e-01,9.98134e-01,6.32730e-01,9.99999e-01
1.036997685e+00,5.16373e-02,8.09445e-02,9.98889e-01,6.38477e-01,9.99999e-01
1.042182673e+00,1.37637e-02,2.13901e-02,9.98672e-01,6.44160e-01,9.99999e-01
1.047393587e+00,2.47103e-02,3.80859e-02,9.98242e-01,6.49781e-01,9.99999e-01
1.052630555e+00,4.92843e-05,7.53259e-05,9.97586e-01,6.55338e-01,9.99999e-01
1.057893707e+00,1.73111e-04,2.62574e-04,9.95969e-01,6.60831e-01,9.99999e-01
1.063183176e+00,1.42241e-03,2.14388e-03,9.93381e-01,6.66261e-01,9.99999e-01
1.068499092e+00,7.58576e-03,1.13889e-02,9.88952e-01,6.71626e-01,9.99999e-01
1.073841587e+00,3.88585e-02,5.79913e-02,9.87068e-01,6.76928e-01,9.99999e-01
1.079210795e+00,1.11225e-01,1.65359e-01,9.83493e-01,6.82165e-01,9.99999e-01
1.084606849e+00,2.45916e-01,3.66161e-01,9.75091e-01,6.87338e-01,9.99998e-01
1.090029883e+00,3.95974e-01,5.91912e-01,9.64281e-01,6.92447e-01,9.99998e-01
1.095480033e+00,4.88821e-01,7.72138e-01,9.05798e-01,6.97492e-01,9.99997e-01
1.100957433e+00,4.83909e-01,8.82556e-01,7.78584e-01,7.02474e-01,9.99995e-01
1.106462220e+00,3.60566e-01,9.49668e-01,5.34922e-01,7.07391e-01,9.99990e-01
1.111994531e+00,1.92399e-01,9.81029e-01,2.74700e-01,7.12244e-01,9.99980e-01
1.117554504e+00,9.16549e-02,9.95354e-01,1.28245e-01,7.17034e-01,9.99973e-01
1.123142276e+00,1.70220e-01,9.99695e-01,2.35866e-01,7.21761e-01,9.99968e-01
1.128757988e+00,2.75666e-01,9.99999e-01,3.79496e-01,7.26424e-01,9.99965e-01
1.134401778e+00,1.32709e-01,9.99999e-01,1.81545e-01,7.31025e-01,9.99961e-01
1.140073787e+00,4.06174e-01,9.99999e-01,5.52211e-01,7.35563e-01,9.99968e-01
1.145774156e+00,2.23741e-01,9.99999e-01,3.02344e-01,7.40039e-01,9.99973e-01
1.151503026e+00,1.98449e-01,9.99999e-01,2.66577e-01,7.44453e-01,9.99977e-01
1.157260541e+00,2.37831e-01,9.99999e-01,3.17619e-01,7.48805e-01,9.99982e-01
1.163046844e+00,3.21368e-01,9.99999e-01,4.26734e-01,7.53096e-01,9.99988e-01
1.168862078e+00,4.15462e-01,9.99999e-01,5.48593e-01,7.57326e-01,9.99994e-01
1.174706389e+00,5.25425e-01,9.99999e-01,6.89993e-01,7.61495e-01,9.99996e-01
1.180579921e+00,6.10440e-01,9.99999e-01,7.97331e-01,7.65604e-01,9.99997e-01
1.186482820e+00,6.76868e-01,9.99983e-01,8.79457e-01,7.69654e-01,9.99998e-01
1.192415234e+00,6.99416e-01,9.74003e-01,9.27657e-01,7.73645e-01,9.99998e-01
1.198377311e+00,3.97697e-01,5.39187e-01,9.38610e-01,7.77576e-01,9.99998e-01
1.204369197e+00,7.66353e-20,1.01523e-19,9.41922e-01,7.81450e-01,9.99998e-01
1.210391043e+00,8.86556e-78,1.16550e-77,9.44355e-01,7.85266e-01,9.99998e-01
1.216442998e+00,2.03311e-67,2.65565e-67,9.52536e-01,7.89024e-01,9.99999e-01
1.222525213e+00,2.05414e-66,2.64236e-66,9.62805e-01,7.92726e-01,9.99999e-01
1.228637839e+00,2.31917e-51,2.96464e-51,9.74009e-01,7.96371e-01,9.99999e-01
1.234781029e+00,2.66234e-32,3.35633e-32,9.80653e-01,7.99961e-01,9.99999e-01
1.240954934e+00,1.40927e-21,1.76758e-21,9.87715e-01,8.03495e-01,9.99999e-01
1.247159708e+00,6.93763e-11,8.64603e-11,9.90427e-01,8.06975e-01,9.99999e-01
1.253395507e+00,2.64997e-07,3.28997e-07,9.91488e-01,8.10401e-01,9.99999e-01
1.259662485e+00,1.58742e-04,1.96254e-04,9.91899e-01,8.13773e-01,9.99999e-01
1.265960797e+00,6.57470e-03,8.11904e-03,9.87107e-01,8.17092e-01,9.99999e-01
1.272290601e+00,9.33352e-02,1.15777e-01,9.79772e-01,8.20359e-01,9.99999e-01
1.278652054e+00,7.87395e-02,9.83972e-02,9.60221e-01,8.23574e-01,9.99998e-01
1.285045314e+00,3.78597e-04,4.71939e-04,9.29032e-01,8.26738e-01,9.99998e-01
1.291470541e+00,1.23284e-09,1.60116e-09,8.79669e-01,8.29851e-01,9.99997e-01
1.297927893e+00,4.64036e-04,6.02835e-04,8.33517e-01,8.32913e-01,9.99995e-01
1.304417533e+00,1.33931e-02,1.91175e-02,8.07504e-01,8.35927e-01,9.99991e-01
1.310939621e+00,2.31915e-03,3.17627e-03,7.63236e-01,8.38891e-01,9.99985e-01
1.317494319e+00,2.90993e-27,4.00890e-27,7.67329e-01,8.41807e-01,9.99976e-01
1.324081790e+00,5.26776e-18,7.47178e-18,6.74124e-01,8.44675e-01,9.99961e-01
1.330702199e+00,6.51737e-11,1.41852e-10,2.58115e-01,8.47496e-01,9.99936e-01
1.337355710e+00,4.60549e-11,6.84450e-10,2.46231e-02,8.50271e-01,9.99877e-01
1.344042489e+00,5.74337e-12,2.77714e-10,7.70143e-04,8.52999e-01,9.99738e-01
1.350762701e+00,6.18910e-18,7.75226e-11,1.33390e-08,8.55682e-01,9.99583e-01
1.357516515e+00,1.86555e-17,6.49088e-07,2.63209e-12,8.58321e-01,9.99483e-01
1.364304097e+00,1.21213e-11,5.35043e-05,6.78940e-08,8.60915e-01,9.99446e-01
1.371125618e+00,3.08928e-07,6.46393e-03,2.33819e-05,8.63465e-01,9.99442e-01
1.377981246e+00,1.66747e-06,1.38027e-02,7.40681e-05,8.65973e-01,9.99400e-01
1.384871152e+00,5.46627e-08,8.25985e-02,4.88980e-07,8.68438e-01,9.99417e-01
1.391795508e+00,1.10671e-08,1.00152e-01,7.41425e-08,8.70861e-01,9.99506e-01
1.398754485e+00,5.05389e-07,2.38040e-01,2.05775e-06,8.73242e-01,9.99575e-01
1.405748258e+00,7.37500e-07,3.50049e-01,1.98686e-06,8.75583e-01,9.99619e-01
1.412776999e+00,1.08161e-06,5.13934e-01,1.98415e-06,8.77884e-01,9.99694e-01
1.419840884e+00,2.29207e-06,4.59848e-01,4.15070e-06,8.80146e-01,9.99771e-01
1.426940089e+00,3.16555e-05,2.43723e-02,9.60027e-05,8.82368e-01,9.99858e-01
1.434074789e+00,0.00000e+00,0.00000e+00,6.65522e-04,8.84552e-01,9.99911e-01
1.441245163e+00,0.00000e+00,0.00000e+00,2.67427e-03,8.86698e-01,9.99931e-01
1.448451389e+00,0.00000e+00,0.00000e+00,1.64060e-02,8.88806e-01,9.99942e-01
1.455693646e+00,0.00000e+00,0.00000e+00,6.07977e-02,8.90878e-01,9.99952e-01
1.462972114e+00,1.87656e-309,1.02403e-308,8.33869e-02,8.92914e-01,9.99959e-01
1.470286975e+00,4.07631e-129,2.51624e-128,5.64413e-02,8.94914e-01,9.99963e-01
