#,Wave/freq,Total,CO2,H2O,Rayleigh,CIA
4.000000000e-01,1.22618e-11,9.99999e-01,9.99950e-01,1.22624e-11,9.99999e-01
4.020000000e-01,2.01517e-11,9.99999e-01,9.99969e-01,2.01523e-11,9.99999e-01
4.040100000e-01,3.27782e-11,9.99999e-01,9.99986e-01,3.27786e-11,9.99999e-01
4.060300500e-01,5.28058e-11,9.99999e-01,9.99996e-01,5.28060e-11,9.99999e-01
4.080602003e-01,8.42724e-11,9.99999e-01,9.99998e-01,8.42725e-11,9.99999e-01
4.101005013e-01,1.33253e-10,9.99999e-01,9.99999e-01,1.33253e-10,9.99999e-01
4.121510038e-01,2.08804e-10,9.99999e-01,9.99997e-01,2.08805e-10,9.99999e-01
4.142117588e-01,3.24297e-10,9.99999e-01,9.99985e-01,3.24302e-10,9.99999e-01
4.162828176e-01,4.99293e-10,9.99999e-01,9.99938e-01,4.99323e-10,9.99999e-01
4.183642317e-01,7.62248e-10,9.99999e-01,9.99963e-01,7.62275e-10,9.99999e-01
4.204560528e-01,1.15399e-09,9.99999e-01,9.99977e-01,1.15402e-09,9.99999e-01
4.225583331e-01,1.73282e-09,9.99999e-01,9.99991e-01,1.73283e-09,9.99999e-01
4.246711247e-01,2.58113e-09,9.99999e-01,9.99992e-01,2.58114e-09,9.99999e-01
4.267944804e-01,3.81457e-09,9.99999e-01,9.99989e-01,3.81461e-09,9.99999e-01
4.289284528e-01,5.59415e-09,9.99999e-01,9.99991e-01,5.59419e-09,9.99999e-01
4.310730950e-01,8.14214e-09,9.99999e-01,9.99996e-01,8.14217e-09,9.99999e-01
4.332284605e-01,1.17631e-08,9.99999e-01,9.99998e-01,1.17631e-08,9.99999e-01
4.353946028e-01,1.68713e-08,9.99999e-01,9.99999e-01,1.68714e-08,9.99999e-01
4.375715758e-01,2.40259e-08,9.99999e-01,9.99993e-01,2.40261e-08,9.99999e-01
4.397594337e-01,3.39750e-08,9.99999e-01,9.99945e-01,3.39769e-08,9.99999e-01
4.419582309e-01,4.77082e-08,9.99999e-01,9.99727e-01,4.77212e-08,9.99999e-01
4.441680220e-01,6.65630e-08,9.99999e-01,9.99787e-01,6.65770e-08,9.99999e-01
4.463888621e-01,9.22541e-08,9.99999e-01,9.99778e-01,9.22745e-08,9.99999e-01
4.486208064e-01,1.27051e-07,9.99999e-01,9.99862e-01,1.27069e-07,9.99999e-01
4.508639105e-01,1.73869e-07,9.99999e-01,9.99935e-01,1.73881e-07,9.99999e-01
4.531182300e-01,2.36462e-07,9.99999e-01,9.99974e-01,2.36468e-07,9.99999e-01
4.553838212e-01,3.19632e-07,9.99999e-01,9.99982e-01,3.19637e-07,9.99999e-01
4.576607403e-01,4.29490e-07,9.99999e-01,9.99991e-01,4.29493e-07,9.99999e-01
4.599490440e-01,5.73745e-07,9.99999e-01,9.99993e-01,5.73748e-07,9.99999e-01
4.622487892e-01,7.62082e-07,9.99999e-01,9.99998e-01,7.62082e-07,9.99999e-01
4.645600332e-01,1.00657e-06,9.99999e-01,9.99995e-01,1.00658e-06,9.99999e-01
4.668828333e-01,1.32214e-06,9.99999e-01,9.99934e-01,1.32223e-06,9.99999e-01
4.692172475e-01,1.72729e-06,9.99999e-01,9.99861e-01,1.72753e-06,9.99999e-01
4.715633337e-01,2.24497e-06,9.99999e-01,9.99909e-01,2.24517e-06,9.99999e-01
4.739211504e-01,2.90261e-06,9.99999e-01,9.99913e-01,2.90287e-06,9.99999e-01
4.762907561e-01,3.73405e-06,9.99999e-01,9.99954e-01,3.73422e-06,9.99999e-01
4.786722099e-01,4.77974e-06,9.99999e-01,9.99981e-01,4.77983e-06,9.99999e-01
4.810655710e-01,6.08842e-06,9.99999e-01,9.99994e-01,6.08845e-06,9.99999e-01
4.834708988e-01,7.71797e-06,9.99999e-01,9.99946e-01,7.71838e-06,9.99999e-01
4.858882533e-01,9.73795e-06,9.99999e-01,9.99901e-01,9.73890e-06,9.99999e-01
4.883176946e-01,1.22310e-05,9.99999e-01,9.99917e-01,1.22321e-05,9.99999e-01
4.907592831e-01,1.52933e-05,9.99999e-01,9.99925e-01,1.52944e-05,9.99999e-01
4.932130795e-01,1.90383e-05,9.99999e-01,9.99946e-01,1.90393e-05,9.99999e-01
4.956791449e-01,2.35981e-05,9.99999e-01,9.99971e-01,2.35988e-05,9.99999e-01
4.981575406e-01,2.91223e-05,9.99999e-01,9.99860e-01,2.91264e-05,9.99999e-01
5.006483283e-01,3.57866e-05,9.99999e-01,9.99638e-01,3.57996e-05,9.99999e-01
5.031515699e-01,4.37427e-05,9.99999e-01,9.98171e-01,4.38228e-05,9.99999e-01
5.056673278e-01,5.33787e-05,9.99999e-01,9.99035e-01,5.34302e-05,9.99999e-01
5.081956644e-01,6.48105e-05,9.99999e-01,9.98783e-01,6.48894e-05,9.99999e-01
5.107366428e-01,7.84399e-05,9.99999e-01,9.99178e-01,7.85043e-05,9.99999e-01
5.132903260e-01,9.45749e-05,9.99999e-01,9.99530e-01,9.46193e-05,9.99999e-01
5.158567776e-01,1.13600e-04,9.99999e-01,9.99801e-01,1.13622e-04,9.99999e-01
5.184360615e-01,1.35939e-04,9.99999e-01,9.99920e-01,1.35950e-04,9.99999e-01
5.210282418e-01,1.62084e-04,9.99999e-01,9.99969e-01,1.62089e-04,9.99999e-01
5.236333830e-01,1.92561e-04,9.99999e-01,9.99880e-01,1.92584e-04,9.99999e-01
5.262515499e-01,2.28022e-04,9.99999e-01,9.99925e-01,2.28039e-04,9.99999e-01
5.288828077e-01,2.69102e-04,9.99999e-01,9.99931e-01,2.69121e-04,9.99999e-01
5.315272217e-01,3.16547e-04,9.99999e-01,9.99939e-01,3.16566e-04,9.99999e-01
5.341848578e-01,3.71169e-04,9.99999e-01,9.99960e-01,3.71184e-04,9.99999e-01
5.368557821e-01,4.33798e-04,9.99999e-01,9.99860e-01,4.33858e-04,9.99999e-01
5.395400610e-01,5.05302e-04,9.99999e-01,9.99498e-01,5.05555e-04,9.99999e-01
5.422377613e-01,5.86944e-04,9.99999e-01,9.99352e-01,5.87323e-04,9.99999e-01
5.449489501e-01,6.79890e-04,9.99999e-01,9.99397e-01,6.80299e-04,9.99999e-01
5.476736949e-01,7.85291e-04,9.99999e-01,9.99467e-01,7.85709e-04,9.99999e-01
5.504120634e-01,9.04524e-04,9.99999e-01,9.99613e-01,9.04874e-04,9.99999e-01
5.531641237e-01,1.03901e-03,9.99999e-01,9.99805e-01,1.03921e-03,9.99999e-01
5.559299443e-01,1.19012e-03,9.99999e-01,9.99905e-01,1.19023e-03,9.99999e-01
5.587095940e-01,1.35947e-03,9.99999e-01,9.99940e-01,1.35955e-03,9.99999e-01
5.615031420e-01,1.54877e-03,9.99999e-01,9.99933e-01,1.54888e-03,9.99999e-01
5.643106577e-01,1.75990e-03,9.99999e-01,9.99925e-01,1.76003e-03,9.99999e-01
5.671322110e-01,1.99313e-03,9.99999e-01,9.99092e-01,1.99493e-03,9.99999e-01
5.699678720e-01,2.25343e-03,9.99999e-01,9.99039e-01,2.25560e-03,9.99999e-01
5.728177114e-01,2.54159e-03,9.99999e-01,9.98998e-01,2.54414e-03,9.99999e-01
5.756818000e-01,2.86015e-03,9.99999e-01,9.99081e-01,2.86278e-03,9.99999e-01
5.785602090e-01,3.21126e-03,9.99999e-01,9.99199e-01,3.21383e-03,9.99999e-01
5.814530100e-01,3.59680e-03,9.99999e-01,9.99195e-01,3.59969e-03,9.99999e-01
5.843602750e-01,4.01900e-03,9.99999e-01,9.99039e-01,4.02286e-03,9.99999e-01
5.872820764e-01,4.44894e-03,9.99999e-01,9.91756e-01,4.48592e-03,9.99999e-01
5.902184868e-01,4.94175e-03,9.99999e-01,9.90026e-01,4.99153e-03,9.99999e-01
5.931695792e-01,5.50332e-03,9.99999e-01,9.92945e-01,5.54241e-03,9.99999e-01
5.961354271e-01,6.09391e-03,9.99999e-01,9.92269e-01,6.14139e-03,9.99999e-01
5.991161043e-01,6.75299e-03,9.99999e-01,9.94356e-01,6.79131e-03,9.99999e-01
6.021116848e-01,7.47109e-03,9.99999e-01,9.96794e-01,7.49511e-03,9.99999e-01
6.051222432e-01,8.24235e-03,9.99999e-01,9.98377e-01,8.25575e-03,9.99999e-01
6.081478544e-01,9.06988e-03,9.99999e-01,9.99299e-01,9.07623e-03,9.99999e-01
6.111885937e-01,9.95666e-03,9.99999e-01,9.99703e-01,9.95960e-03,9.99999e-01
6.142445367e-01,1.09075e-02,9.99999e-01,9.99867e-01,1.09089e-02,9.99999e-01
6.173157594e-01,1.19264e-02,9.99999e-01,9.99926e-01,1.19273e-02,9.99999e-01
6.204023382e-01,1.30169e-02,9.99999e-01,9.99937e-01,1.30177e-02,9.99999e-01
6.235043498e-01,1.41794e-02,9.99999e-01,9.99726e-01,1.41833e-02,9.99999e-01
6.266218716e-01,1.54048e-02,9.99999e-01,9.98559e-01,1.54271e-02,9.99999e-01
6.297549810e-01,1.67432e-02,9.99999e-01,9.99471e-01,1.67521e-02,9.99999e-01
6.329037559e-01,1.81424e-02,9.99999e-01,9.98956e-01,1.81613e-02,9.99999e-01
6.360682746e-01,1.96403e-02,9.99999e-01,9.99110e-01,1.96578e-02,9.99999e-01
6.392486160e-01,2.12198e-02,9.99999e-01,9.98847e-01,2.12442e-02,9.99999e-01
6.424448591e-01,2.28882e-02,9.99999e-01,9.98455e-01,2.29236e-02,9.99999e-01
6.456570834e-01,2.45219e-02,9.99999e-01,9.92850e-01,2.46985e-02,9.99999e-01
6.488853688e-01,2.64328e-02,9.99999e-01,9.94771e-01,2.65717e-02,9.99999e-01
6.521297956e-01,2.83936e-02,9.99999e-01,9.94671e-01,2.85457e-02,9.99999e-01
6.553904446e-01,3.04604e-02,9.99999e-01,9.94689e-01,3.06230e-02,9.99999e-01
6.586673968e-01,3.26568e-02,9.99999e-01,9.95453e-01,3.28059e-02,9.99999e-01
6.619607338e-01,3.50077e-02,9.99999e-01,9.97464e-01,3.50967e-02,9.99999e-01
6.652705375e-01,3.74403e-02,9.99999e-01,9.98477e-01,3.74973e-02,9.99999e-01
6.685968902e-01,3.99816e-02,9.99999e-01,9.99292e-01,4.00099e-02,9.99999e-01
6.719398746e-01,4.26222e-02,9.99999e-01,9.99672e-01,4.26362e-02,9.99999e-01
6.752995740e-01,4.53697e-02,9.99999e-01,9.99821e-01,4.53778e-02,9.99999e-01
6.786760719e-01,4.82239e-02,9.99999e-01,9.99742e-01,4.82363e-02,9.99999e-01
6.820694522e-01,5.11905e-02,9.99999e-01,9.99560e-01,5.12130e-02,9.99999e-01
6.854797995e-01,5.42784e-02,9.99999e-01,9.99432e-01,5.43092e-02,9.99999e-01
6.889071985e-01,5.74467e-02,9.99999e-01,9.98624e-01,5.75258e-02,9.99999e-01
6.923517345e-01,5.95128e-02,9.99999e-01,9.77803e-01,6.08637e-02,9.99999e-01
6.958134932e-01,6.35803e-02,9.99999e-01,9.88443e-01,6.43236e-02,9.99999e-01
6.992925606e-01,6.71571e-02,9.99999e-01,9.88971e-01,6.79060e-02,9.99999e-01
7.027890234e-01,7.06383e-02,9.99999e-01,9.86414e-01,7.16112e-02,9.99999e-01
7.063029686e-01,7.45765e-02,9.99999e-01,9.88561e-01,7.54393e-02,9.99999e-01
7.098344834e-01,7.85189e-02,9.99999e-01,9.89021e-01,7.93904e-02,9.99999e-01
7.133836558e-01,8.22438e-02,9.99999e-01,9.85378e-01,8.34642e-02,9.99998e-01
7.169505741e-01,7.79290e-02,9.99999e-01,8.88988e-01,8.76604e-02,9.99998e-01
7.205353270e-01,8.68362e-02,9.99999e-01,9.44094e-01,9.19784e-02,9.99997e-01
7.241380036e-01,8.95993e-02,9.99999e-01,9.29287e-01,9.64174e-02,9.99997e-01
7.277586936e-01,9.45126e-02,9.99999e-01,9.35985e-01,1.00977e-01,9.99998e-01
7.313974871e-01,9.84717e-02,9.99999e-01,9.32012e-01,1.05655e-01,9.99998e-01
7.350544745e-01,1.06280e-01,9.99999e-01,9.62231e-01,1.10451e-01,9.99998e-01
7.387297469e-01,1.12140e-01,9.99999e-01,9.72049e-01,1.15364e-01,9.99999e-01
7.424233956e-01,1.18734e-01,9.99999e-01,9.86228e-01,1.20392e-01,9.99999e-01
7.461355126e-01,1.24482e-01,9.99999e-01,9.91630e-01,1.25533e-01,9.99999e-01
7.498661902e-01,1.30275e-01,9.99999e-01,9.96096e-01,1.30785e-01,9.99999e-01
7.536155211e-01,1.35886e-01,9.99999e-01,9.98082e-01,1.36147e-01,9.99999e-01
7.573835987e-01,1.41477e-01,9.99999e-01,9.99012e-01,1.41617e-01,9.99999e-01
7.611705167e-01,1.47101e-01,9.99999e-01,9.99386e-01,1.47191e-01,9.99999e-01
7.649763693e-01,1.52810e-01,9.99999e-01,9.99615e-01,1.52869e-01,9.99999e-01
7.688012511e-01,1.58604e-01,9.99999e-01,9.99731e-01,1.58646e-01,9.99999e-01
7.726452574e-01,1.64486e-01,9.99999e-01,9.99779e-01,1.64522e-01,9.99999e-01
7.765084837e-01,1.70439e-01,9.99999e-01,9.99686e-01,1.70492e-01,9.99999e-01
7.803910261e-01,1.63684e-01,9.28270e-01,9.98644e-01,1.76555e-01,9.99999e-01
7.842929812e-01,1.27967e-01,7.03379e-01,9.95276e-01,1.82708e-01,9.99999e-01
7.882144461e-01,1.28890e-01,6.88273e-01,9.90303e-01,1.88947e-01,9.99999e-01
7.921555184e-01,1.54955e-01,7.97569e-01,9.94677e-01,1.95269e-01,9.99999e-01
7.961162960e-01,1.71569e-01,8.58638e-01,9.90594e-01,2.01672e-01,9.99999e-01
8.000968774e-01,1.89559e-01,9.20599e-01,9.89147e-01,2.08152e-01,9.99999e-01
8.040973618e-01,2.03472e-01,9.58032e-01,9.89143e-01,2.14706e-01,9.99999e-01
8.081178486e-01,2.11752e-01,9.80484e-01,9.75686e-01,2.21331e-01,9.99998e-01
8.121584379e-01,2.04640e-01,9.93943e-01,9.02793e-01,2.28023e-01,9.99998e-01
8.162192301e-01,2.07741e-01,9.98659e-01,8.85972e-01,2.34779e-01,9.99997e-01
8.203003262e-01,2.27561e-01,9.99979e-01,9.41918e-01,2.41597e-01,9.99997e-01
8.244018279e-01,2.28697e-01,9.99999e-01,9.20418e-01,2.48471e-01,9.99997e-01
8.285238370e-01,2.37540e-01,9.99999e-01,9.30071e-01,2.55400e-01,9.99998e-01
8.326664562e-01,2.43866e-01,9.99999e-01,9.29440e-01,2.62380e-01,9.99998e-01
8.368297885e-01,2.55656e-01,9.99999e-01,9.48962e-01,2.69406e-01,9.99998e-01
8.410139374e-01,2.68001e-01,9.99999e-01,9.69343e-01,2.76477e-01,9.99999e-01
8.452190071e-01,2.79290e-01,9.99999e-01,9.84847e-01,2.83587e-01,9.99999e-01
8.494451021e-01,2.88170e-01,9.99999e-01,9.91176e-01,2.90735e-01,9.99999e-01
8.536923276e-01,2.96361e-01,9.99999e-01,9.94776e-01,2.97917e-01,9.99999e-01
8.579607893e-01,3.04146e-01,9.99999e-01,9.96778e-01,3.05129e-01,9.99999e-01
8.622505932e-01,3.11728e-01,9.99999e-01,9.97953e-01,3.12367e-01,9.99999e-01
8.665618462e-01,2.81461e-01,8.81635e-01,9.98732e-01,3.19630e-01,9.99999e-01
8.708946554e-01,1.36388e-01,4.17763e-01,9.98548e-01,3.26913e-01,9.99999e-01
8.752491287e-01,1.62377e-01,4.86737e-01,9.98059e-01,3.34213e-01,9.99999e-01
8.796253743e-01,2.27657e-01,6.68267e-01,9.97312e-01,3.41527e-01,9.99999e-01
8.840235012e-01,2.81451e-01,8.09190e-01,9.96930e-01,3.48852e-01,9.99999e-01
8.884436187e-01,3.23990e-01,9.19646e-01,9.88837e-01,3.56184e-01,9.99998e-01
8.928858368e-01,3.12634e-01,9.66569e-01,8.89136e-01,3.63522e-01,9.99997e-01
8.973502660e-01,2.99153e-01,9.91786e-01,8.13008e-01,3.70861e-01,9.99996e-01
9.018370173e-01,3.40039e-01,9.99091e-01,8.99862e-01,3.78199e-01,9.99996e-01
9.063462024e-01,3.43724e-01,9.77081e-01,9.10927e-01,3.85532e-01,9.99996e-01
9.108779334e-01,3.22489e-01,9.47824e-01,8.64759e-01,3.92859e-01,9.99995e-01
9.154323231e-01,3.35161e-01,9.87518e-01,8.47594e-01,4.00177e-01,9.99995e-01
9.200094847e-01,3.07177e-01,8.45850e-01,8.78796e-01,4.07482e-01,9.99994e-01
9.246095321e-01,2.64441e-01,7.70098e-01,8.20214e-01,4.14772e-01,9.99990e-01
9.292325798e-01,1.00281e-01,8.16647e-01,2.80033e-01,4.22045e-01,9.99980e-01
9.338787427e-01,7.12036e-02,8.21120e-01,1.94885e-01,4.29298e-01,9.99974e-01
9.385481364e-01,1.97328e-01,8.64446e-01,5.14306e-01,4.36529e-01,9.99973e-01
9.432408771e-01,1.66594e-01,9.14421e-01,4.06685e-01,4.43735e-01,9.99970e-01
9.479570815e-01,1.25767e-01,9.55092e-01,2.90660e-01,4.50914e-01,9.99974e-01
9.526968669e-01,1.73804e-01,9.78113e-01,3.86554e-01,4.58064e-01,9.99980e-01
9.574603512e-01,1.87461e-01,9.90578e-01,4.06280e-01,4.65183e-01,9.99985e-01
9.622476530e-01,2.24348e-01,9.97052e-01,4.76267e-01,4.72269e-01,9.99990e-01
9.670588912e-01,3.11396e-01,9.99116e-01,6.50175e-01,4.79319e-01,9.99993e-01
9.718941857e-01,3.69844e-01,9.99937e-01,7.60517e-01,4.86332e-01,9.99995e-01
9.767536566e-01,3.92927e-01,9.99999e-01,7.96517e-01,4.93307e-01,9.99997e-01
9.816374249e-01,4.22434e-01,9.99999e-01,8.44462e-01,5.00240e-01,9.99997e-01
9.865456120e-01,4.56211e-01,9.99999e-01,8.99591e-01,5.07132e-01,9.99998e-01
9.914783401e-01,4.81393e-01,9.99999e-01,9.36600e-01,5.13979e-01,9.99999e-01
9.964357318e-01,5.02532e-01,9.99999e-01,9.64959e-01,5.20781e-01,9.99999e-01
1.001417910e+00,5.16376e-01,9.99999e-01,9.78846e-01,5.27535e-01,9.99999e-01
1.006425000e+00,5.27768e-01,9.99999e-01,9.87881e-01,5.34242e-01,9.99999e-01
1.011457125e+00,5.36823e-01,9.99999e-01,9.92465e-01,5.40898e-01,9.99999e-01
1.016514411e+00,5.44700e-01,9.99999e-01,9.94877e-01,5.47504e-01,9.99999e-01
1.021596983e+00,5.51726e-01,9.99873e-01,9.95916e-01,5.54057e-01,9.99999e-01
1.026704968e+00,5.53703e-01,9.90919e-01,9.96813e-01,5.60557e-01,9.99999e-01
1.031838492e+00,5.19905e-01,9.18959e-01,9.97684e-01,5.67003e-01,9.99999e-01
1.036997685e+00,3.80804e-02,6.64819e-02,9.98623e-01,5.73394e-01,9.99999e-01
1.042182673e+00,5.74716e-03,9.92654e-03,9.98357e-01,5.79728e-01,9.99999e-01
1.047393587e+00,1.23662e-02,2.11414e-02,9.97823e-01,5.86004e-01,9.99999e-01
1.052630555e+00,7.71812e-06,1.30578e-05,9.97013e-01,5.92223e-01,9.99999e-01
1.057893707e+00,2.83404e-05,4.74918e-05,9.95017e-01,5.98383e-01,9.99999e-01
1.063183176e+00,3.63918e-04,6.05036e-04,9.91816e-01,6.04484e-01,9.99999e-01
1.068499092e+00,2.54295e-03,4.20620e-03,9.86335e-01,6.10524e-01,9.99999e-01
1.073841587e+00,1.83744e-02,3.01681e-02,9.84030e-01,6.16504e-01,9.99999e-01
1.079210795e+00,6.73262e-02,1.10011e-01,9.79583e-01,6.22422e-01,9.99998e-01
1.084606849e+00,1.76477e-01,2.88907e-01,9.69260e-01,6.28279e-01,9.99998e-01
1.090029883e+00,3.17710e-01,5.22566e-01,9.56145e-01,6.34073e-01,9.99997e-01
1.095480033e+00,4.12220e-01,7.25712e-01,8.85067e-01,6.39805e-01,9.99996e-01
1.100957433e+00,4.07689e-01,8.56379e-01,7.34741e-01,6.45474e-01,9.99994e-01
1.106462220e+00,2.85749e-01,9.37843e-01,4.65650e-01,6.51079e-01,9.99988e-01
1.111994531e+00,1.33033e-01,9.76475e-01,2.06766e-01,6.56621e-01,9.99976e-01
1.117554504e+00,5.46065e-02,9.94211e-01,8.27909e-02,6.62100e-01,9.99966e-01
1.123142276e+00,1.17618e-01,9.99619e-01,1.76224e-01,6.67514e-01,9.99960e-01
1.128757988e+00,2.06926e-01,9.99999e-01,3.07542e-01,6.72865e-01,9.99957e-01
1.134401778e+00,9.52707e-02,9.99999e-01,1.40492e-01,6.78152e-01,9.99952e-01
1.140073787e+00,3.30149e-01,9.99999e-01,4.83134e-01,6.83374e-01,9.99961e-01
1.145774156e+00,1.61436e-01,9.99999e-01,2.34471e-01,6.88533e-01,9.99967e-01
1.151503026e+00,1.39945e-01,9.99999e-01,2.01763e-01,6.93627e-01,9.99971e-01
1.157260541e+00,1.71290e-01,9.99999e-01,2.45175e-01,6.98657e-01,9.99978e-01
1.163046844e+00,2.46997e-01,9.99999e-01,3.51040e-01,7.03623e-01,9.99986e-01
1.168862078e+00,3.37291e-01,9.99999e-01,4.76048e-01,7.08526e-01,9.99992e-01
1.174706389e+00,4.50817e-01,9.99999e-01,6.31960e-01,7.13364e-01,9.99996e-01
1.180579921e+00,5.42480e-01,9.99999e-01,7.55398e-01,7.18140e-01,9.99997e-01
1.186482820e+00,6.16429e-01,9.99982e-01,8.52788e-01,7.22851e-01,9.99997e-01
1.192415234e+00,6.42590e-01,9.68646e-01,9.11103e-01,7.27500e-01,9.99997e-01
1.198377311e+00,3.63848e-01,5.30573e-01,9.24539e-01,7.32086e-01,9.99998e-01
1.204369197e+00,4.71078e-24,6.67562e-24,9.28588e-01,7.36610e-01,9.99998e-01
1.210391043e+00,7.32574e-96,1.02831e-95,9.31524e-01,7.41071e-01,9.99998e-01
1.216442998e+00,5.08354e-83,7.07899e-83,9.41463e-01,7.45471e-01,9.99998e-01
1.222525213e+00,8.93022e-82,1.22020e-81,9.54076e-01,7.49808e-01,9.99999e-01
1.228637839e+00,3.61876e-63,4.90583e-63,9.67874e-01,7.54085e-01,9.99999e-01
1.234781029e+00,1.70087e-39,2.26661e-39,9.76052e-01,7.58301e-01,9.99999e-01
1.240954934e+00,2.67293e-26,3.53913e-26,9.84788e-01,7.62456e-01,9.99999e-01
1.247159708e+00,5.93587e-13,7.79828e-13,9.88135e-01,7.66552e-01,9.99999e-01
1.253395507e+00,9.23993e-09,1.20807e-08,9.89458e-01,7.70588e-01,9.99999e-01
1.259662485e+00,2.40205e-05,3.12403e-05,9.89980e-01,7.74565e-01,9.99999e-01
1.265960797e+00,2.34791e-03,3.04828e-03,9.84042e-01,7.78483e-01,9.99999e-01
1.272290601e+00,5.42179e-02,7.07697e-02,9.75037e-01,7.82343e-01,9.99998e-01
1.278652054e+00,4.71238e-02,6.20290e-02,9.51033e-01,7.86145e-01,9.99998e-01
1.285045314e+00,1.21006e-04,1.58954e-04,9.13072e-01,7.89890e-01,9.99997e-01
1.291470541e+00,1.28574e-11,1.77298e-11,8.53550e-01,7.93579e-01,9.99996e-01
1.297927893e+00,2.46938e-05,3.40273e-05,8.13946e-01,7.97211e-01,9.99994e-01
1.304417533e+00,4.99553e-03,7.70411e-03,7.68007e-01,8.00788e-01,9.99989e-01
1.310939621e+00,1.25836e-03,1.85808e-03,7.38995e-01,8.04310e-01,9.99982e-01
1.317494319e+00,6.05612e-33,8.96338e-33,7.21013e-01,8.07777e-01,9.99970e-01
1.324081790e+00,7.90416e-22,1.21643e-21,6.15862e-01,8.11190e-01,9.99952e-01
1.330702199e+00,3.20670e-13,7.84280e-13,2.07692e-01,8.14550e-01,9.99920e-01
1.337355710e+00,2.59476e-13,7.14044e-12,1.17282e-02,8.17857e-01,9.99848e-01
1.344042489e+00,2.70729e-14,3.30309e-12,3.05609e-04,8.21112e-01,9.99676e-01
1.350762701e+00,8.93746e-22,4.06384e-13,3.15745e-10,8.24315e-01,9.99483e-01
1.357516515e+00,3.97146e-21,3.42869e-08,8.09251e-15,8.27466e-01,9.99360e-01
1.364304097e+00,5.26992e-14,5.77418e-06,2.17454e-09,8.30568e-01,9.99314e-01
1.371125618e+00,1.53915e-08,2.11076e-03,3.20653e-06,8.33619e-01,9.99308e-01
1.377981246e+00,1.02047e-07,5.08455e-03,1.06048e-05,8.36621e-01,9.99257e-01
1.384871152e+00,2.28837e-09,4.60447e-02,3.45689e-08,8.39574e-01,9.99278e-01
1.391795508e+00,2.10527e-10,5.84503e-02,2.14321e-09,8.42478e-01,9.99388e-01
1.398754485e+00,2.52953e-08,1.68782e-01,1.41631e-07,8.45336e-01,9.99474e-01
1.405748258e+00,4.41120e-08,2.72792e-01,1.50243e-07,8.48146e-01,9.99528e-01
1.412776999e+00,7.49290e-08,4.38009e-01,1.57025e-07,8.50910e-01,9.99621e-01
1.419840884e+00,1.56113e-07,3.99961e-01,3.24901e-07,8.53628e-01,9.99716e-01
1.426940089e+00,5.88004e-06,1.77089e-02,1.92107e-05,8.56300e-01,9.99824e-01
1.434074789e+00,0.00000e+00,0.00000e+00,1.55236e-04,8.58928e-01,9.99890e-01
1.441245163e+00,0.00000e+00,0.00000e+00,7.86318e-04,8.61512e-01,9.99914e-01
1.448451389e+00,0.00000e+00,0.00000e+00,7.20053e-03,8.64052e-01,9.99929e-01
1.455693646e+00,0.00000e+00,0.00000e+00,3.42898e-02,8.66550e-01,9.99941e-01
1.462972114e+00,0.00000e+00,0.00000e+00,4.89323e-02,8.69005e-01,9.99949e-01
1.470286975e+00,1.74425e-159,1.66472e-158,3.05866e-02,8.71418e-01,9.99954e-01
