#,Wave/freq,Total,CO2,H2O,Rayleigh,CIA
4.000000000e-01,5.12885e-15,9.99999e-01,9.99935e-01,5.12918e-15,9.99999e-01
4.020000000e-01,9.83057e-15,9.99999e-01,9.99959e-01,9.83097e-15,9.99999e-01
4.040100000e-01,1.85896e-14,9.99999e-01,9.99982e-01,1.85899e-14,9.99999e-01
4.060300500e-01,3.47129e-14,9.99999e-01,9.99995e-01,3.47131e-14,9.99999e-01
4.080602003e-01,6.40252e-14,9.99999e-01,9.99998e-01,6.40253e-14,9.99999e-01
4.101005013e-01,1.16670e-13,9.99999e-01,9.99999e-01,1.16670e-13,9.99999e-01
4.121510038e-01,2.10096e-13,9.99999e-01,9.99997e-01,2.10096e-13,9.99999e-01
4.142117588e-01,3.73959e-13,9.99999e-01,9.99981e-01,3.73966e-13,9.99999e-01
4.162828176e-01,6.58059e-13,9.99999e-01,9.99919e-01,6.58111e-13,9.99999e-01
4.183642317e-01,1.14524e-12,9.99999e-01,9.99952e-01,1.14530e-12,9.99999e-01
4.204560528e-01,1.97139e-12,9.99999e-01,9.99970e-01,1.97144e-12,9.99999e-01
4.225583331e-01,3.35727e-12,9.99999e-01,9.99988e-01,3.35731e-12,9.99999e-01
4.246711247e-01,5.65754e-12,9.99999e-01,9.99990e-01,5.65759e-12,9.99999e-01
4.267944804e-01,9.43603e-12,9.99999e-01,9.99986e-01,9.43615e-12,9.99999e-01
4.289284528e-01,1.55799e-11,9.99999e-01,9.99989e-01,1.55801e-11,9.99999e-01
4.310730950e-01,2.54707e-11,9.99999e-01,9.99995e-01,2.54708e-11,9.99999e-01
4.332284605e-01,4.12382e-11,9.99999e-01,9.99998e-01,4.12382e-11,9.99999e-01
4.353946028e-01,6.61338e-11,9.99999e-01,9.99999e-01,6.61338e-11,9.99999e-01
4.375715758e-01,1.05073e-10,9.99999e-01,9.99991e-01,1.05074e-10,9.99999e-01
4.397594337e-01,1.65411e-10,9.99999e-01,9.99929e-01,1.65423e-10,9.99999e-01
4.419582309e-01,2.58016e-10,9.99999e-01,9.99640e-01,2.58109e-10,9.99999e-01
4.441680220e-01,3.99092e-10,9.99999e-01,9.99723e-01,3.99203e-10,9.99999e-01
4.463888621e-01,6.11952e-10,9.99999e-01,9.99710e-01,6.12129e-10,9.99999e-01
4.486208064e-01,9.30568e-10,9.99999e-01,9.99820e-01,9.30734e-10,9.99999e-01
4.508639105e-01,1.40339e-09,9.99999e-01,9.99915e-01,1.40350e-09,9.99999e-01
4.531182300e-01,2.09925e-09,9.99999e-01,9.99966e-01,2.09932e-09,9.99999e-01
4.553838212e-01,3.11515e-09,9.99999e-01,9.99977e-01,3.11522e-09,9.99999e-01
4.576607403e-01,4.58679e-09,9.99999e-01,9.99989e-01,4.58684e-09,9.99999e-01
4.599490440e-01,6.70218e-09,9.99999e-01,9.99992e-01,6.70223e-09,9.99999e-01
4.622487892e-01,9.72011e-09,9.99999e-01,9.99998e-01,9.72012e-09,9.99999e-01
4.645600332e-01,1.39937e-08,9.99999e-01,9.99994e-01,1.39938e-08,9.99999e-01
4.668828333e-01,2.00002e-08,9.99999e-01,9.99914e-01,2.00019e-08,9.99999e-01
4.692172475e-01,2.83835e-08,9.99999e-01,9.99818e-01,2.83887e-08,9.99999e-01
4.715633337e-01,4.00095e-08,9.99999e-01,9.99881e-01,4.00142e-08,9.99999e-01
4.739211504e-01,5.60131e-08,9.99999e-01,9.99886e-01,5.60194e-08,9.99999e-01
4.762907561e-01,7.79025e-08,9.99999e-01,9.99940e-01,7.79071e-08,9.99999e-01
4.786722099e-01,1.07640e-07,9.99999e-01,9.99975e-01,1.07643e-07,9.99999e-01
4.810655710e-01,1.47781e-07,9.99999e-01,9.99992e-01,1.47782e-07,9.99999e-01
4.834708988e-01,2.01608e-07,9.99999e-01,9.99929e-01,2.01622e-07,9.99999e-01
4.858882533e-01,2.73360e-07,9.99999e-01,9.99871e-01,2.73395e-07,9.99999e-01
4.883176946e-01,3.68454e-07,9.99999e-01,9.99892e-01,3.68494e-07,9.99999e-01
4.907592831e-01,4.93704e-07,9.99999e-01,9.99902e-01,4.93752e-07,9.99999e-01
4.932130795e-01,6.57730e-07,9.99999e-01,9.99930e-01,6.57776e-07,9.99999e-01
4.956791449e-01,8.71305e-07,9.99999e-01,9.99963e-01,8.71337e-07,9.99999e-01
4.981575406e-01,1.14763e-06,9.99999e-01,9.99816e-01,1.14784e-06,9.99999e-01
5.006483283e-01,1.50317e-06,9.99999e-01,9.99524e-01,1.50388e-06,9.99999e-01
5.031515699e-01,1.95518e-06,9.99999e-01,9.97604e-01,1.95988e-06,9.99999e-01
5.056673278e-01,2.53760e-06,9.99999e-01,9.98737e-01,2.54081e-06,9.99999e-01
5.081956644e-01,3.27187e-06,9.99999e-01,9.98408e-01,3.27708e-06,9.99999e-01
5.107366428e-01,4.20100e-06,9.99999e-01,9.98925e-01,4.20552e-06,9.99999e-01
5.132903260e-01,5.36718e-06,9.99999e-01,9.99386e-01,5.37048e-06,9.99999e-01
5.158567776e-01,6.82332e-06,9.99999e-01,9.99740e-01,6.82508e-06,9.99999e-01
5.184360615e-01,8.63182e-06,9.99999e-01,9.99895e-01,8.63271e-06,9.99999e-01
5.210282418e-01,1.08681e-05,9.99999e-01,9.99960e-01,1.08685e-05,9.99999e-01
5.236333830e-01,1.36192e-05,9.99999e-01,9.99843e-01,1.36213e-05,9.99999e-01
5.262515499e-01,1.69937e-05,9.99999e-01,9.99901e-01,1.69953e-05,9.99999e-01
5.288828077e-01,2.11108e-05,9.99999e-01,9.99909e-01,2.11127e-05,9.99999e-01
5.315272217e-01,2.61132e-05,9.99999e-01,9.99921e-01,2.61153e-05,9.99999e-01
5.341848578e-01,3.21662e-05,9.99999e-01,9.99947e-01,3.21679e-05,9.99999e-01
5.368557821e-01,3.94532e-05,9.99999e-01,9.99817e-01,3.94604e-05,9.99999e-01
5.395400610e-01,4.81794e-05,9.99999e-01,9.99339e-01,4.82113e-05,9.99999e-01
5.422377613e-01,5.86205e-05,9.99999e-01,9.99153e-01,5.86701e-05,9.99999e-01
5.449489501e-01,7.10654e-05,9.99999e-01,9.99209e-01,7.11216e-05,9.99999e-01
5.476736949e-01,8.58286e-05,9.99999e-01,9.99303e-01,8.58884e-05,9.99999e-01
5.504120634e-01,1.03283e-04,9.99999e-01,9.99494e-01,1.03335e-04,9.99999e-01
5.531641237e-01,1.23842e-04,9.99999e-01,9.99745e-01,1.23873e-04,9.99999e-01
5.559299443e-01,1.47944e-04,9.99999e-01,9.99876e-01,1.47962e-04,9.99999e-01
5.587095940e-01,1.76103e-04,9.99999e-01,9.99922e-01,1.76117e-04,9.99999e-01
5.615031420e-01,2.08890e-04,9.99999e-01,9.99913e-01,2.08908e-04,9.99999e-01
5.643106577e-01,2.46946e-04,9.99999e-01,9.99901e-01,2.46970e-04,9.99999e-01
5.671322110e-01,2.90656e-04,9.99999e-01,9.98802e-01,2.91004e-04,9.99999e-01
5.699678720e-01,3.41352e-04,9.99999e-01,9.98747e-01,3.41779e-04,9.99999e-01
5.728177114e-01,3.99616e-04,9.99999e-01,9.98687e-01,4.00141e-04,9.99999e-01
5.756818000e-01,4.66450e-04,9.99999e-01,9.98796e-01,4.67012e-04,9.99999e-01
5.785602090e-01,5.42827e-04,9.99999e-01,9.98952e-01,5.43396e-04,9.99999e-01
5.814530100e-01,6.29722e-04,9.99999e-01,9.98946e-01,6.30386e-04,9.99999e-01
5.843602750e-01,7.28239e-04,9.99999e-01,9.98738e-01,7.29159e-04,9.99999e-01
5.872820764e-01,8.31895e-04,9.99999e-01,9.89189e-01,8.40986e-04,9.99999e-01
5.902184868e-01,9.54635e-04,9.99999e-01,9.86972e-01,9.67235e-04,9.99999e-01
5.931695792e-01,1.09913e-03,9.99999e-01,9.90771e-01,1.10937e-03,9.99999e-01
5.961354271e-01,1.25612e-03,9.99999e-01,9.89895e-01,1.26894e-03,9.99999e-01
5.991161043e-01,1.43695e-03,9.99999e-01,9.92624e-01,1.44763e-03,9.99999e-01
6.021116848e-01,1.64028e-03,9.99999e-01,9.95811e-01,1.64718e-03,9.99999e-01
6.051222432e-01,1.86550e-03,9.99999e-01,9.97879e-01,1.86946e-03,9.99999e-01
6.081478544e-01,2.11451e-03,9.99999e-01,9.99084e-01,2.11645e-03,9.99999e-01
6.111885937e-01,2.38927e-03,9.99999e-01,9.99612e-01,2.39019e-03,9.99999e-01
6.142445367e-01,2.69241e-03,9.99999e-01,9.99826e-01,2.69287e-03,9.99999e-01
6.173157594e-01,3.02645e-03,9.99999e-01,9.99904e-01,3.02674e-03,9.99999e-01
6.204023382e-01,3.39388e-03,9.99999e-01,9.99918e-01,3.39416e-03,9.99999e-01
6.235043498e-01,3.79621e-03,9.99999e-01,9.99639e-01,3.79757e-03,9.99999e-01
6.266218716e-01,4.23153e-03,9.99999e-01,9.98113e-01,4.23952e-03,9.99999e-01
6.297549810e-01,4.71936e-03,9.99999e-01,9.99307e-01,4.72262e-03,9.99999e-01
6.329037559e-01,5.24241e-03,9.99999e-01,9.98634e-01,5.24957e-03,9.99999e-01
6.360682746e-01,5.81635e-03,9.99999e-01,9.98833e-01,5.82314e-03,9.99999e-01
6.392486160e-01,6.43643e-03,9.99999e-01,9.98491e-01,6.44616e-03,9.99999e-01
6.424448591e-01,7.10707e-03,9.99999e-01,9.97970e-01,7.12152e-03,9.99999e-01
6.456570834e-01,7.77848e-03,9.99999e-01,9.90614e-01,7.85217e-03,9.99999e-01
6.488853688e-01,8.58207e-03,9.99999e-01,9.93169e-01,8.64109e-03,9.99999e-01
6.521297956e-01,9.42526e-03,9.99999e-01,9.93039e-01,9.49132e-03,9.99999e-01
6.553904446e-01,1.03335e-02,9.99999e-01,9.93045e-01,1.04059e-02,9.99999e-01
6.586673968e-01,1.13202e-02,9.99999e-01,9.94058e-01,1.13879e-02,9.99999e-01
6.619607338e-01,1.23991e-02,9.99999e-01,9.96685e-01,1.24404e-02,9.99999e-01
6.652705375e-01,1.35394e-02,9.99999e-01,9.98009e-01,1.35664e-02,9.99999e-01
6.685968902e-01,1.47566e-02,9.99999e-01,9.99153e-01,1.47691e-02,9.99999e-01
6.719398746e-01,1.60445e-02,9.99999e-01,9.99571e-01,1.60514e-02,9.99999e-01
6.752995740e-01,1.74124e-02,9.99999e-01,9.99767e-01,1.74164e-02,9.99999e-01
6.786760719e-01,1.88607e-02,9.99999e-01,9.99662e-01,1.88671e-02,9.99999e-01
6.820694522e-01,2.03945e-02,9.99999e-01,9.99423e-01,2.04062e-02,9.99999e-01
6.854797995e-01,2.20205e-02,9.99999e-01,9.99256e-01,2.20369e-02,9.99999e-01
6.889071985e-01,2.37185e-02,9.99999e-01,9.98185e-01,2.37616e-02,9.99999e-01
6.923517345e-01,2.48406e-02,9.99999e-01,9.70967e-01,2.55833e-02,9.99999e-01
6.958134932e-01,2.70920e-02,9.99999e-01,9.85000e-01,2.75045e-02,9.99999e-01
6.992925606e-01,2.91009e-02,9.99999e-01,9.85546e-01,2.95277e-02,9.99999e-01
7.027890234e-01,3.10939e-02,9.99999e-01,9.82266e-01,3.16553e-02,9.99999e-01
7.063029686e-01,3.33831e-02,9.99999e-01,9.85054e-01,3.38896e-02,9.99999e-01
7.098344834e-01,3.57129e-02,9.99999e-01,9.85653e-01,3.62327e-02,9.99999e-01
7.133836558e-01,3.79444e-02,9.99999e-01,9.80812e-01,3.86867e-02,9.99998e-01
7.169505741e-01,3.53758e-02,9.99999e-01,8.57522e-01,4.12535e-02,9.99997e-01
7.205353270e-01,4.07746e-02,9.99999e-01,9.28071e-01,4.39349e-02,9.99997e-01
7.241380036e-01,4.24595e-02,9.99999e-01,9.08570e-01,4.67323e-02,9.99997e-01
7.277586936e-01,4.55358e-02,9.99999e-01,9.17186e-01,4.96473e-02,9.99997e-01
7.313974871e-01,4.80584e-02,9.99999e-01,9.12252e-01,5.26811e-02,9.99998e-01
7.350544745e-01,5.30960e-02,9.99999e-01,9.50948e-01,5.58348e-02,9.99998e-01
7.387297469e-01,5.69599e-02,9.99999e-01,9.63633e-01,5.91095e-02,9.99999e-01
7.424233956e-01,6.13840e-02,9.99999e-01,9.82053e-01,6.25057e-02,9.99999e-01
7.461355126e-01,6.53029e-02,9.99999e-01,9.89074e-01,6.60242e-02,9.99999e-01
7.498661902e-01,6.93107e-02,9.99999e-01,9.94907e-01,6.96654e-02,9.99999e-01
7.536155211e-01,7.32455e-02,9.99999e-01,9.97494e-01,7.34295e-02,9.99999e-01
7.573835987e-01,7.72168e-02,9.99999e-01,9.98709e-01,7.73165e-02,9.99999e-01
7.611705167e-01,8.12612e-02,9.99999e-01,9.99198e-01,8.13264e-02,9.99999e-01
7.649763693e-01,8.54159e-02,9.99999e-01,9.99496e-01,8.54589e-02,9.99999e-01
7.688012511e-01,8.96820e-02,9.99999e-01,9.99649e-01,8.97135e-02,9.99999e-01
7.726452574e-01,9.40624e-02,9.99999e-01,9.99711e-01,9.40895e-02,9.99999e-01
7.765084837e-01,9.85457e-02,9.99999e-01,9.99587e-01,9.85863e-02,9.99999e-01
7.803910261e-01,9.37900e-02,9.10282e-01,9.98219e-01,1.03203e-01,9.99999e-01
7.842929812e-01,6.83375e-02,6.36588e-01,9.93796e-01,1.07938e-01,9.99999e-01
7.882144461e-01,6.91020e-02,6.19719e-01,9.87322e-01,1.12790e-01,9.99999e-01
7.921555184e-01,8.71354e-02,7.44783e-01,9.93053e-01,1.17758e-01,9.99999e-01
7.961162960e-01,9.94947e-02,8.19790e-01,9.87669e-01,1.22840e-01,9.99999e-01
8.000968774e-01,1.13311e-01,8.97624e-01,9.85809e-01,1.28035e-01,9.99999e-01
8.040973618e-01,1.24310e-01,9.45625e-01,9.85796e-01,1.33340e-01,9.99999e-01
8.081178486e-01,1.30944e-01,9.74571e-01,9.68198e-01,1.38754e-01,9.99998e-01
8.121584379e-01,1.25235e-01,9.92125e-01,8.74714e-01,1.44274e-01,9.99997e-01
8.162192301e-01,1.27826e-01,9.98255e-01,8.54160e-01,1.49898e-01,9.99997e-01
8.203003262e-01,1.43934e-01,9.99975e-01,9.24900e-01,1.55624e-01,9.99997e-01
8.244018279e-01,1.45105e-01,9.99999e-01,8.98768e-01,1.61449e-01,9.99997e-01
8.285238370e-01,1.52229e-01,9.99999e-01,9.09534e-01,1.67370e-01,9.99997e-01
8.326664562e-01,1.57596e-01,9.99999e-01,9.08936e-01,1.73385e-01,9.99998e-01
8.368297885e-01,1.67621e-01,9.99999e-01,9.33869e-01,1.79491e-01,9.99998e-01
8.410139374e-01,1.78284e-01,9.99999e-01,9.60138e-01,1.85685e-01,9.99999e-01
8.452190071e-01,1.88174e-01,9.99999e-01,9.80253e-01,1.91965e-01,9.99999e-01
8.494451021e-01,1.96039e-01,9.99999e-01,9.88468e-01,1.98326e-01,9.99999e-01
8.536923276e-01,2.03370e-01,9.99999e-01,9.93180e-01,2.04766e-01,9.99999e-01
8.579607893e-01,2.10392e-01,9.99999e-01,9.95787e-01,2.11282e-01,9.99999e-01
8.622505932e-01,2.17288e-01,9.99999e-01,9.97325e-01,2.17870e-01,9.99999e-01
8.665618462e-01,1.93940e-01,8.65109e-01,9.98341e-01,2.24528e-01,9.99999e-01
8.708946554e-01,7.58414e-02,3.28532e-01,9.98098e-01,2.31251e-01,9.99999e-01
8.752491287e-01,9.40267e-02,3.95943e-01,9.97458e-01,2.38037e-01,9.99999e-01
8.796253743e-01,1.44928e-01,5.93750e-01,9.96475e-01,2.44883e-01,9.99999e-01
8.840235012e-01,1.90425e-01,7.59221e-01,9.95977e-01,2.51784e-01,9.99999e-01
8.884436187e-01,2.28688e-01,8.96659e-01,9.85293e-01,2.58737e-01,9.99998e-01
8.928858368e-01,2.18261e-01,9.56621e-01,8.57544e-01,2.65740e-01,9.99997e-01
8.973502660e-01,2.06320e-01,9.89322e-01,7.64003e-01,2.72788e-01,9.99996e-01
9.018370173e-01,2.43844e-01,9.98819e-01,8.72191e-01,2.79878e-01,9.99995e-01
9.063462024e-01,2.47163e-01,9.70054e-01,8.85226e-01,2.87007e-01,9.99995e-01
9.108779334e-01,2.27546e-01,9.32457e-01,8.27467e-01,2.94171e-01,9.99994e-01
9.154323231e-01,2.39240e-01,9.83811e-01,8.06082e-01,3.01368e-01,9.99994e-01
9.200094847e-01,2.16068e-01,8.10159e-01,8.45285e-01,3.08593e-01,9.99992e-01
9.246095321e-01,1.76290e-01,7.11476e-01,7.73100e-01,3.15843e-01,9.99987e-01
9.292325798e-01,5.25136e-02,7.68351e-01,1.99705e-01,3.23116e-01,9.99973e-01
9.338787427e-01,3.39950e-02,7.73854e-01,1.26151e-01,3.30407e-01,9.99966e-01
9.385481364e-01,1.23284e-01,8.26953e-01,4.30233e-01,3.37714e-01,9.99965e-01
9.432408771e-01,1.00055e-01,8.89775e-01,3.21104e-01,3.45034e-01,9.99961e-01
9.479570815e-01,6.96570e-02,9.41707e-01,2.08368e-01,3.52363e-01,9.99966e-01
9.526968669e-01,1.04525e-01,9.71521e-01,2.97504e-01,3.59698e-01,9.99974e-01
9.574603512e-01,1.14412e-01,9.87716e-01,3.14926e-01,3.67037e-01,9.99980e-01
9.622476530e-01,1.43656e-01,9.96154e-01,3.84964e-01,3.74376e-01,9.99987e-01
9.670588912e-01,2.18671e-01,9.98847e-01,5.73438e-01,3.81712e-01,9.99991e-01
9.718941857e-01,2.72288e-01,9.99919e-01,6.99940e-01,3.89043e-01,9.99994e-01
9.767536566e-01,2.94611e-01,9.99999e-01,7.43283e-01,3.96366e-01,9.99996e-01
9.816374249e-01,3.23771e-01,9.99999e-01,8.02055e-01,4.03678e-01,9.99997e-01
9.865456120e-01,3.57933e-01,9.99999e-01,8.70934e-01,4.10976e-01,9.99998e-01
9.914783401e-01,3.83935e-01,9.99999e-01,9.17937e-01,4.18258e-01,9.99999e-01
9.964357318e-01,4.06135e-01,9.99999e-01,9.54440e-01,4.25522e-01,9.99999e-01
1.001417910e+00,4.20835e-01,9.99999e-01,9.72432e-01,4.32765e-01,9.99999e-01
1.006425000e+00,4.33018e-01,9.99999e-01,9.84168e-01,4.39984e-01,9.99999e-01
1.011457125e+00,4.42778e-01,9.99999e-01,9.90161e-01,4.47177e-01,9.99999e-01
1.016514411e+00,4.51301e-01,9.99999e-01,9.93304e-01,4.54343e-01,9.99999e-01
1.021596983e+00,4.58933e-01,9.99822e-01,9.94659e-01,4.61478e-01,9.99999e-01
1.026704968e+00,4.61051e-01,9.88030e-01,9.95831e-01,4.68581e-01,9.99999e-01
1.031838492e+00,4.27572e-01,9.01493e-01,9.96972e-01,4.75650e-01,9.99999e-01
1.036997685e+00,2.38683e-02,4.95165e-02,9.98198e-01,4.82683e-01,9.99999e-01
1.042182673e+00,1.60634e-03,3.28580e-03,9.97847e-01,4.89678e-01,9.99999e-01
1.047393587e+00,4.14342e-03,8.36281e-03,9.97149e-01,4.96633e-01,9.99999e-01
1.052630555e+00,4.46072e-07,8.88048e-07,9.96087e-01,5.03546e-01,9.99999e-01
1.057893707e+00,1.70250e-06,3.34682e-06,9.93470e-01,5.10417e-01,9.99999e-01
1.063183176e+00,4.56937e-05,8.88894e-05,9.89285e-01,5.17243e-01,9.99999e-01
1.068499092e+00,4.61839e-04,8.91871e-04,9.82140e-01,5.24022e-01,9.99999e-01
1.073841587e+00,5.67289e-03,1.08514e-02,9.79125e-01,5.30754e-01,9.99999e-01
1.079210795e+00,3.07994e-02,5.85338e-02,9.73364e-01,5.37436e-01,9.99998e-01
1.084606849e+00,1.04789e-01,1.99645e-01,9.59944e-01,5.44069e-01,9.99998e-01
1.090029883e+00,2.24137e-01,4.29666e-01,9.42865e-01,5.50649e-01,9.99997e-01
1.095480033e+00,3.14335e-01,6.58589e-01,8.52161e-01,5.57177e-01,9.99995e-01
1.100957433e+00,3.09840e-01,8.16785e-01,6.68690e-01,5.63652e-01,9.99992e-01
1.106462220e+00,1.96866e-01,9.19650e-01,3.72483e-01,5.70071e-01,9.99984e-01
1.111994531e+00,7.44561e-02,9.69389e-01,1.32513e-01,5.76434e-01,9.99969e-01
1.117554504e+00,2.44856e-02,9.92463e-01,4.22091e-02,5.82741e-01,9.99956e-01
1.123142276e+00,6.72820e-02,9.99505e-01,1.14246e-01,5.88990e-01,9.99948e-01
1.128757988e+00,1.31826e-01,9.99999e-01,2.21501e-01,5.95181e-01,9.99944e-01
1.134401778e+00,5.99661e-02,9.99999e-01,9.97314e-02,6.01313e-01,9.99937e-01
1.140073787e+00,2.37328e-01,9.99999e-01,3.90757e-01,6.07384e-01,9.99949e-01
1.145774156e+00,9.76285e-02,9.99999e-01,1.59167e-01,6.13396e-01,9.99957e-01
1.151503026e+00,8.12492e-02,9.99999e-01,1.31190e-01,6.19346e-01,9.99963e-01
1.157260541e+00,1.02155e-01,9.99999e-01,1.63392e-01,6.25235e-01,9.99971e-01
1.163046844e+00,1.63568e-01,9.99999e-01,2.59199e-01,6.31062e-01,9.99982e-01
1.168862078e+00,2.42788e-01,9.99999e-01,3.81250e-01,6.36826e-01,9.99990e-01
1.174706389e+00,3.53659e-01,9.99999e-01,5.50421e-01,6.42528e-01,9.99995e-01
1.180579921e+00,4.49725e-01,9.99999e-01,6.93843e-01,6.48166e-01,9.99996e-01
1.186482820e+00,5.30933e-01,9.99974e-01,8.12163e-01,6.53742e-01,9.99997e-01
1.192415234e+00,5.60658e-01,9.59229e-01,8.85325e-01,6.59253e-01,9.99997e-01
1.198377311e+00,3.14287e-01,5.14982e-01,9.02388e-01,6.64701e-01,9.99997e-01
1.204369197e+00,8.33205e-31,1.31532e-30,9.07682e-01,6.70085e-01,9.99998e-01
1.210391043e+00,7.46373e-125,1.16367e-124,9.11394e-01,6.75405e-01,9.99998e-01
1.216442998e+00,4.91493e-108,7.58316e-108,9.24202e-01,6.80661e-01,9.99998e-01
1.222525213e+00,2.09669e-106,3.15557e-106,9.40359e-01,6.85853e-01,9.99999e-01
1.228637839e+00,4.52268e-82,6.73635e-82,9.58169e-01,6.90981e-01,9.99999e-01
1.234781029e+00,4.96082e-51,7.22559e-51,9.68794e-01,6.96044e-01,9.99999e-01
1.240954934e+00,7.88248e-34,1.13828e-33,9.80141e-01,7.01044e-01,9.99999e-01
1.247159708e+00,2.87525e-16,4.11042e-16,9.84507e-01,7.05979e-01,9.99999e-01
1.253395507e+00,4.66078e-11,6.62033e-11,9.86222e-01,7.10851e-01,9.99999e-01
1.259662485e+00,1.30517e-06,1.84095e-06,9.86890e-01,7.15659e-01,9.99999e-01
1.265960797e+00,5.10730e-04,7.18454e-04,9.79163e-01,7.20404e-01,9.99999e-01
1.272290601e+00,2.32863e-02,3.29744e-02,9.67410e-01,7.25086e-01,9.99998e-01
1.278652054e+00,2.09487e-02,2.99526e-02,9.36379e-01,7.29705e-01,9.99998e-01
1.285045314e+00,2.01600e-05,2.88007e-05,8.87817e-01,7.34261e-01,9.99997e-01
1.291470541e+00,9.40156e-15,1.42714e-14,8.12945e-01,7.38755e-01,9.99995e-01
1.297927893e+00,2.21849e-05,3.37175e-05,7.45637e-01,7.43186e-01,9.99992e-01
1.304417533e+00,1.06255e-03,1.84943e-03,7.09093e-01,7.47556e-01,9.99986e-01
1.310939621e+00,2.10717e-04,3.49674e-04,6.47839e-01,7.51864e-01,9.99977e-01
1.317494319e+00,3.63806e-43,6.08295e-43,6.53620e-01,7.56112e-01,9.99961e-01
1.324081790e+00,6.29845e-28,1.10595e-27,5.33549e-01,7.60299e-01,9.99937e-01
1.330702199e+00,6.71913e-17,1.98702e-16,1.48302e-01,7.64426e-01,9.99896e-01
1.337355710e+00,6.94953e-17,5.12716e-15,3.70439e-03,7.68492e-01,9.99801e-01
1.344042489e+00,5.03868e-18,2.71934e-15,7.22374e-05,7.72500e-01,9.99576e-01
1.350762701e+00,6.59422e-28,9.85785e-17,8.15296e-13,7.76449e-01,9.99323e-01
1.357516515e+00,5.43274e-27,3.59852e-10,8.47791e-19,7.80339e-01,9.99162e-01
1.364304097e+00,9.55452e-18,1.78758e-07,9.67203e-12,7.84171e-01,9.99102e-01
1.371125618e+00,1.43217e-10,3.69867e-04,1.52714e-07,7.87946e-01,9.99094e-01
1.377981246e+00,1.24664e-09,1.06415e-03,4.94028e-07,7.91664e-01,9.99027e-01
1.384871152e+00,1.42588e-11,1.83216e-02,4.99261e-10,7.95326e-01,9.99055e-01
1.391795508e+00,4.06033e-13,2.53043e-02,8.00759e-12,7.98932e-01,9.99198e-01
1.398754485e+00,2.45413e-10,9.78091e-02,2.28916e-09,8.02482e-01,9.99311e-01
1.405748258e+00,4.97230e-10,1.84593e-01,2.46412e-09,8.05977e-01,9.99382e-01
1.412776999e+00,1.18739e-09,3.40841e-01,3.09441e-09,8.09419e-01,9.99503e-01
1.419840884e+00,2.26528e-09,3.18360e-01,5.89179e-09,8.12806e-01,9.99629e-01
1.426940089e+00,4.10440e-07,1.12971e-02,1.71650e-06,8.16141e-01,9.99770e-01
1.434074789e+00,0.00000e+00,0.00000e+00,1.63341e-05,8.19422e-01,9.99856e-01
1.441245163e+00,0.00000e+00,0.00000e+00,1.19544e-04,8.22652e-01,9.99888e-01
1.448451389e+00,0.00000e+00,0.00000e+00,2.06704e-03,8.25831e-01,9.99907e-01
1.455693646e+00,0.00000e+00,0.00000e+00,1.47033e-02,8.28958e-01,9.99923e-01
1.462972114e+00,0.00000e+00,0.00000e+00,2.14249e-02,8.32035e-01,9.99934e-01
1.470286975e+00,3.53786e-208,6.79022e-207,1.19772e-02,8.35063e-01,9.99941e-01
