#,Wave/freq,Total,CO2,H2O,Rayleigh,CIA
4.000000000e-01,1.10182e-15,9.99999e-01,9.99932e-01,1.10190e-15,9.99999e-01
4.020000000e-01,2.17710e-15,9.99999e-01,9.99957e-01,2.17719e-15,9.99999e-01
4.040100000e-01,4.24133e-15,9.99999e-01,9.99981e-01,4.24140e-15,9.99999e-01
4.060300500e-01,8.15455e-15,9.99999e-01,9.99995e-01,8.15458e-15,9.99999e-01
4.080602003e-01,1.54770e-14,9.99999e-01,9.99998e-01,1.54770e-14,9.99999e-01
4.101005013e-01,2.90051e-14,9.99999e-01,9.99999e-01,2.90051e-14,9.99999e-01
4.121510038e-01,5.36875e-14,9.99999e-01,9.99997e-01,5.36876e-14,9.99999e-01
4.142117588e-01,9.81711e-14,9.99999e-01,9.99980e-01,9.81729e-14,9.99999e-01
4.162828176e-01,1.77376e-13,9.99999e-01,9.99916e-01,1.77391e-13,9.99999e-01
4.183642317e-01,3.16793e-13,9.99999e-01,9.99949e-01,3.16809e-13,9.99999e-01
4.204560528e-01,5.59338e-13,9.99999e-01,9.99969e-01,5.59355e-13,9.99999e-01
4.225583331e-01,9.76554e-13,9.99999e-01,9.99988e-01,9.76565e-13,9.99999e-01
4.246711247e-01,1.68628e-12,9.99999e-01,9.99990e-01,1.68630e-12,9.99999e-01
4.267944804e-01,2.88055e-12,9.99999e-01,9.99986e-01,2.88059e-12,9.99999e-01
4.289284528e-01,4.86890e-12,9.99999e-01,9.99989e-01,4.86895e-12,9.99999e-01
4.310730950e-01,8.14488e-12,9.99999e-01,9.99995e-01,8.14491e-12,9.99999e-01
4.332284605e-01,1.34873e-11,9.99999e-01,9.99998e-01,1.34873e-11,9.99999e-01
4.353946028e-01,2.21123e-11,9.99999e-01,9.99999e-01,2.21123e-11,9.99999e-01
4.375715758e-01,3.59006e-11,9.99999e-01,9.99991e-01,3.59009e-11,9.99999e-01
4.397594337e-01,5.77278e-11,9.99999e-01,9.99925e-01,5.77321e-11,9.99999e-01
4.419582309e-01,9.19373e-11,9.99999e-01,9.99624e-01,9.19718e-11,9.99999e-01
4.441680220e-01,1.45135e-10,9.99999e-01,9.99709e-01,1.45177e-10,9.99999e-01
4.463888621e-01,2.27035e-10,9.99999e-01,9.99697e-01,2.27104e-10,9.99999e-01
4.486208064e-01,3.52072e-10,9.99999e-01,9.99812e-01,3.52138e-10,9.99999e-01
4.508639105e-01,5.41253e-10,9.99999e-01,9.99911e-01,5.41301e-10,9.99999e-01
4.531182300e-01,8.25014e-10,9.99999e-01,9.99964e-01,8.25042e-10,9.99999e-01
4.553838212e-01,1.24706e-09,9.99999e-01,9.99975e-01,1.24709e-09,9.99999e-01
4.576607403e-01,1.86970e-09,9.99999e-01,9.99988e-01,1.86972e-09,9.99999e-01
4.599490440e-01,2.78085e-09,9.99999e-01,9.99991e-01,2.78087e-09,9.99999e-01
4.622487892e-01,4.10373e-09,9.99999e-01,9.99998e-01,4.10373e-09,9.99999e-01
4.645600332e-01,6.00948e-09,9.99999e-01,9.99994e-01,6.00952e-09,9.99999e-01
4.668828333e-01,8.73352e-09,9.99999e-01,9.99910e-01,8.73429e-09,9.99999e-01
4.692172475e-01,1.25987e-08,9.99999e-01,9.99809e-01,1.26011e-08,9.99999e-01
4.715633337e-01,1.80464e-08,9.99999e-01,9.99875e-01,1.80487e-08,9.99999e-01
4.739211504e-01,2.56654e-08,9.99999e-01,9.99881e-01,2.56684e-08,9.99999e-01
4.762907561e-01,3.62498e-08,9.99999e-01,9.99938e-01,3.62520e-08,9.99999e-01
4.786722099e-01,5.08503e-08,9.99999e-01,9.99974e-01,5.08515e-08,9.99999e-01
4.810655710e-01,7.08548e-08,9.99999e-01,9.99991e-01,7.08554e-08,9.99999e-01
4.834708988e-01,9.80762e-08,9.99999e-01,9.99926e-01,9.80834e-08,9.99999e-01
4.858882533e-01,1.34887e-07,9.99999e-01,9.99865e-01,1.34905e-07,9.99999e-01
4.883176946e-01,1.84365e-07,9.99999e-01,9.99887e-01,1.84386e-07,9.99999e-01
4.907592831e-01,2.50439e-07,9.99999e-01,9.99898e-01,2.50465e-07,9.99999e-01
4.932130795e-01,3.38148e-07,9.99999e-01,9.99927e-01,3.38172e-07,9.99999e-01
4.956791449e-01,4.53875e-07,9.99999e-01,9.99961e-01,4.53893e-07,9.99999e-01
4.981575406e-01,6.05565e-07,9.99999e-01,9.99808e-01,6.05681e-07,9.99999e-01
5.006483283e-01,8.03238e-07,9.99999e-01,9.99503e-01,8.03637e-07,9.99999e-01
5.031515699e-01,1.05770e-06,9.99999e-01,9.97493e-01,1.06035e-06,9.99999e-01
5.056673278e-01,1.38960e-06,9.99999e-01,9.98678e-01,1.39143e-06,9.99999e-01
5.081956644e-01,1.81309e-06,9.99999e-01,9.98333e-01,1.81612e-06,9.99999e-01
5.107366428e-01,2.35532e-06,9.99999e-01,9.98874e-01,2.35798e-06,9.99999e-01
5.132903260e-01,3.04380e-06,9.99999e-01,9.99357e-01,3.04576e-06,9.99999e-01
5.158567776e-01,3.91326e-06,9.99999e-01,9.99728e-01,3.91432e-06,9.99999e-01
5.184360615e-01,5.00516e-06,9.99999e-01,9.99890e-01,5.00570e-06,9.99999e-01
5.210282418e-01,6.37010e-06,9.99999e-01,9.99958e-01,6.37036e-06,9.99999e-01
5.236333830e-01,8.06721e-06,9.99999e-01,9.99836e-01,8.06853e-06,9.99999e-01
5.262515499e-01,1.01708e-05,9.99999e-01,9.99897e-01,1.01718e-05,9.99999e-01
5.288828077e-01,1.27636e-05,9.99999e-01,9.99905e-01,1.27648e-05,9.99999e-01
5.315272217e-01,1.59458e-05,9.99999e-01,9.99917e-01,1.59471e-05,9.99999e-01
5.341848578e-01,1.98343e-05,9.99999e-01,9.99945e-01,1.98354e-05,9.99999e-01
5.368557821e-01,2.45610e-05,9.99999e-01,9.99808e-01,2.45657e-05,9.99999e-01
5.395400610e-01,3.02748e-05,9.99999e-01,9.99310e-01,3.02957e-05,9.99999e-01
5.422377613e-01,3.71749e-05,9.99999e-01,9.99113e-01,3.72079e-05,9.99999e-01
5.449489501e-01,4.54744e-05,9.99999e-01,9.99173e-01,4.55120e-05,9.99999e-01
5.476736949e-01,5.54079e-05,9.99999e-01,9.99270e-01,5.54483e-05,9.99999e-01
5.504120634e-01,6.72554e-05,9.99999e-01,9.99470e-01,6.72910e-05,9.99999e-01
5.531641237e-01,8.13298e-05,9.99999e-01,9.99733e-01,8.13515e-05,9.99999e-01
5.559299443e-01,9.79693e-05,9.99999e-01,9.99871e-01,9.79819e-05,9.99999e-01
5.587095940e-01,1.17570e-04,9.99999e-01,9.99918e-01,1.17579e-04,9.99999e-01
5.615031420e-01,1.40576e-04,9.99999e-01,9.99909e-01,1.40589e-04,9.99999e-01
5.643106577e-01,1.67492e-04,9.99999e-01,9.99897e-01,1.67509e-04,9.99999e-01
5.671322110e-01,1.98646e-04,9.99999e-01,9.98751e-01,1.98895e-04,9.99999e-01
5.699678720e-01,2.35052e-04,9.99999e-01,9.98687e-01,2.35361e-04,9.99999e-01
5.728177114e-01,2.77208e-04,9.99999e-01,9.98626e-01,2.77589e-04,9.99999e-01
5.756818000e-01,3.25917e-04,9.99999e-01,9.98740e-01,3.26327e-04,9.99999e-01
5.785602090e-01,3.81980e-04,9.99999e-01,9.98903e-01,3.82400e-04,9.99999e-01
5.814530100e-01,4.46213e-04,9.99999e-01,9.98897e-01,4.46705e-04,9.99999e-01
5.843602750e-01,5.19540e-04,9.99999e-01,9.98681e-01,5.20226e-04,9.99999e-01
5.872820764e-01,5.97203e-04,9.99999e-01,9.88704e-01,6.04025e-04,9.99999e-01
5.902184868e-01,6.89722e-04,9.99999e-01,9.86363e-01,6.99258e-04,9.99999e-01
5.931695792e-01,7.99374e-04,9.99999e-01,9.90345e-01,8.07167e-04,9.99999e-01
5.961354271e-01,9.19266e-04,9.99999e-01,9.89424e-01,9.29092e-04,9.99999e-01
5.991161043e-01,1.05823e-03,9.99999e-01,9.92278e-01,1.06647e-03,9.99999e-01
6.021116848e-01,1.21547e-03,9.99999e-01,9.95613e-01,1.22082e-03,9.99999e-01
6.051222432e-01,1.39070e-03,9.99999e-01,9.97778e-01,1.39379e-03,9.99999e-01
6.081478544e-01,1.58559e-03,9.99999e-01,9.99040e-01,1.58711e-03,9.99999e-01
6.111885937e-01,1.80188e-03,9.99999e-01,9.99594e-01,1.80261e-03,9.99999e-01
6.142445367e-01,2.04186e-03,9.99999e-01,9.99818e-01,2.04223e-03,9.99999e-01
6.173157594e-01,2.30778e-03,9.99999e-01,9.99899e-01,2.30801e-03,9.99999e-01
6.204023382e-01,2.60185e-03,9.99999e-01,9.99914e-01,2.60207e-03,9.99999e-01
6.235043498e-01,2.92557e-03,9.99999e-01,9.99624e-01,2.92667e-03,9.99999e-01
6.266218716e-01,3.27764e-03,9.99999e-01,9.98025e-01,3.28412e-03,9.99999e-01
6.297549810e-01,3.67419e-03,9.99999e-01,9.99275e-01,3.67685e-03,9.99999e-01
6.329037559e-01,4.10150e-03,9.99999e-01,9.98570e-01,4.10737e-03,9.99999e-01
6.360682746e-01,4.57269e-03,9.99999e-01,9.98780e-01,4.57827e-03,9.99999e-01
6.392486160e-01,5.08420e-03,9.99999e-01,9.98420e-01,5.09224e-03,9.99999e-01
6.424448591e-01,5.64002e-03,9.99999e-01,9.97879e-01,5.65201e-03,9.99999e-01
6.456570834e-01,6.19902e-03,9.99999e-01,9.90194e-01,6.26040e-03,9.99999e-01
6.488853688e-01,6.87081e-03,9.99999e-01,9.92847e-01,6.92030e-03,9.99999e-01
6.521297956e-01,7.57899e-03,9.99999e-01,9.92712e-01,7.63463e-03,9.99999e-01
6.553904446e-01,8.34521e-03,9.99999e-01,9.92724e-01,8.40636e-03,9.99999e-01
6.586673968e-01,9.18105e-03,9.99999e-01,9.93779e-01,9.23851e-03,9.99999e-01
6.619607338e-01,1.00990e-02,9.99999e-01,9.96528e-01,1.01341e-02,9.99999e-01
6.652705375e-01,1.10731e-02,9.99999e-01,9.97915e-01,1.10963e-02,9.99999e-01
6.685968902e-01,1.21173e-02,9.99999e-01,9.99113e-01,1.21280e-02,9.99999e-01
6.719398746e-01,1.32265e-02,9.99999e-01,9.99551e-01,1.32324e-02,9.99999e-01
6.752995740e-01,1.44091e-02,9.99999e-01,9.99756e-01,1.44126e-02,9.99999e-01
6.786760719e-01,1.56660e-02,9.99999e-01,9.99647e-01,1.56715e-02,9.99999e-01
6.820694522e-01,1.70020e-02,9.99999e-01,9.99397e-01,1.70123e-02,9.99999e-01
6.854797995e-01,1.84235e-02,9.99999e-01,9.99222e-01,1.84378e-02,9.99999e-01
6.889071985e-01,1.99133e-02,9.99999e-01,9.98107e-01,1.99510e-02,9.99999e-01
6.923517345e-01,2.09013e-02,9.99999e-01,9.69676e-01,2.15549e-02,9.99999e-01
6.958134932e-01,2.28863e-02,9.99999e-01,9.84267e-01,2.32521e-02,9.99999e-01
6.992925606e-01,2.46672e-02,9.99999e-01,9.84896e-01,2.50454e-02,9.99999e-01
7.027890234e-01,2.64376e-02,9.99999e-01,9.81441e-01,2.69375e-02,9.99999e-01
7.063029686e-01,2.84784e-02,9.99999e-01,9.84360e-01,2.89309e-02,9.99999e-01
7.098344834e-01,3.05622e-02,9.99999e-01,9.84986e-01,3.10280e-02,9.99999e-01
7.133836558e-01,3.25656e-02,9.99999e-01,9.79971e-01,3.32312e-02,9.99998e-01
7.169505741e-01,3.02705e-02,9.99999e-01,8.51670e-01,3.55425e-02,9.99997e-01
7.205353270e-01,3.51058e-02,9.99999e-01,9.24709e-01,3.79643e-02,9.99997e-01
7.241380036e-01,3.66352e-02,9.99999e-01,9.04615e-01,4.04982e-02,9.99997e-01
7.277586936e-01,3.94171e-02,9.99999e-01,9.13571e-01,4.31462e-02,9.99997e-01
7.313974871e-01,4.17000e-02,9.99999e-01,9.08302e-01,4.59098e-02,9.99998e-01
7.350544745e-01,4.62877e-02,9.99999e-01,9.48700e-01,4.87906e-02,9.99998e-01
7.387297469e-01,4.98190e-02,9.99999e-01,9.61945e-01,5.17899e-02,9.99999e-01
7.424233956e-01,5.38766e-02,9.99999e-01,9.81202e-01,5.49088e-02,9.99999e-01
7.461355126e-01,5.74830e-02,9.99999e-01,9.88557e-01,5.81483e-02,9.99999e-01
7.498661902e-01,6.11810e-02,9.99999e-01,9.94663e-01,6.15092e-02,9.99999e-01
7.536155211e-01,6.48217e-02,9.99999e-01,9.97375e-01,6.49923e-02,9.99999e-01
7.573835987e-01,6.85052e-02,9.99999e-01,9.98648e-01,6.85979e-02,9.99999e-01
7.611705167e-01,7.22656e-02,9.99999e-01,9.99159e-01,7.23263e-02,9.99999e-01
7.649763693e-01,7.61376e-02,9.99999e-01,9.99472e-01,7.61777e-02,9.99999e-01
7.688012511e-01,8.01227e-02,9.99999e-01,9.99632e-01,8.01521e-02,9.99999e-01
7.726452574e-01,8.42236e-02,9.99999e-01,9.99697e-01,8.42491e-02,9.99999e-01
7.765084837e-01,8.84303e-02,9.99999e-01,9.99569e-01,8.84683e-02,9.99999e-01
7.803910261e-01,8.41122e-02,9.07837e-01,9.98139e-01,9.28093e-02,9.99999e-01
7.842929812e-01,6.03534e-02,6.24000e-01,9.93518e-01,9.72712e-02,9.99999e-01
7.882144461e-01,6.11303e-02,6.07394e-01,9.86735e-01,1.01853e-01,9.99999e-01
7.921555184e-01,7.77791e-02,7.34930e-01,9.92723e-01,1.06554e-01,9.99999e-01
7.961162960e-01,8.93128e-02,8.12101e-01,9.87114e-01,1.11372e-01,9.99999e-01
8.000968774e-01,1.02341e-01,8.93057e-01,9.85152e-01,1.16307e-01,9.99999e-01
8.040973618e-01,1.12759e-01,9.43082e-01,9.85143e-01,1.21356e-01,9.99999e-01
8.081178486e-01,1.19079e-01,9.73379e-01,9.66793e-01,1.26518e-01,9.99998e-01
8.121584379e-01,1.13674e-01,9.91737e-01,8.69483e-01,1.31792e-01,9.99997e-01
8.162192301e-01,1.16110e-01,9.98169e-01,8.47900e-01,1.37174e-01,9.99997e-01
8.203003262e-01,1.31513e-01,9.99973e-01,9.21856e-01,1.42664e-01,9.99997e-01
8.244018279e-01,1.32589e-01,9.99999e-01,8.94314e-01,1.48258e-01,9.99997e-01
8.285238370e-01,1.39421e-01,9.99999e-01,9.05599e-01,1.53955e-01,9.99997e-01
8.326664562e-01,1.44561e-01,9.99999e-01,9.04912e-01,1.59751e-01,9.99998e-01
8.368297885e-01,1.54192e-01,9.99999e-01,9.30858e-01,1.65645e-01,9.99998e-01
8.410139374e-01,1.64474e-01,9.99999e-01,9.58289e-01,1.71633e-01,9.99999e-01
8.452190071e-01,1.74038e-01,9.99999e-01,9.79320e-01,1.77713e-01,9.99999e-01
8.494451021e-01,1.81663e-01,9.99999e-01,9.87929e-01,1.83882e-01,9.99999e-01
8.536923276e-01,1.88779e-01,9.99999e-01,9.92856e-01,1.90137e-01,9.99999e-01
8.579607893e-01,1.95608e-01,9.99999e-01,9.95589e-01,1.96475e-01,9.99999e-01
8.622505932e-01,2.02324e-01,9.99999e-01,9.97198e-01,2.02892e-01,9.99999e-01
8.665618462e-01,1.80498e-01,8.63428e-01,9.98263e-01,2.09387e-01,9.99999e-01
8.708946554e-01,6.76358e-02,3.13764e-01,9.98010e-01,2.15954e-01,9.99999e-01
8.752491287e-01,8.43743e-02,3.79991e-01,9.97340e-01,2.22592e-01,9.99999e-01
8.796253743e-01,1.32488e-01,5.79761e-01,9.96314e-01,2.29297e-01,9.99999e-01
8.840235012e-01,1.76211e-01,7.49454e-01,9.95792e-01,2.36065e-01,9.99999e-01
8.884436187e-01,2.13431e-01,8.91947e-01,9.84677e-01,2.42894e-01,9.99998e-01
8.928858368e-01,2.03355e-01,9.54576e-01,8.51758e-01,2.49779e-01,9.99997e-01
8.973502660e-01,1.91707e-01,9.88798e-01,7.54680e-01,2.56717e-01,9.99995e-01
9.018370173e-01,2.28270e-01,9.98760e-01,8.66599e-01,2.63706e-01,9.99995e-01
9.063462024e-01,2.31669e-01,9.68831e-01,8.80473e-01,2.70741e-01,9.99994e-01
9.108779334e-01,2.12413e-01,9.29373e-01,8.20425e-01,2.77819e-01,9.99994e-01
9.154323231e-01,2.23816e-01,9.83015e-01,7.98165e-01,2.84938e-01,9.99993e-01
9.200094847e-01,2.01814e-01,8.04286e-01,8.38765e-01,2.92092e-01,9.99992e-01
9.246095321e-01,1.62878e-01,7.00259e-01,7.65082e-01,2.99280e-01,9.99986e-01
9.292325798e-01,4.64877e-02,7.59571e-01,1.87847e-01,3.06497e-01,9.99973e-01
9.338787427e-01,2.93860e-02,7.64743e-01,1.15798e-01,3.13740e-01,9.99965e-01
9.385481364e-01,1.12346e-01,8.19646e-01,4.15316e-01,3.21007e-01,9.99964e-01
9.432408771e-01,9.07471e-02,8.84839e-01,3.07442e-01,3.28293e-01,9.99959e-01
9.479570815e-01,6.21304e-02,9.39033e-01,1.95584e-01,3.35596e-01,9.99965e-01
9.526968669e-01,9.46010e-02,9.70183e-01,2.82714e-01,3.42912e-01,9.99973e-01
9.574603512e-01,1.03849e-01,9.87131e-01,2.99687e-01,3.50239e-01,9.99980e-01
9.622476530e-01,1.31501e-01,9.95969e-01,3.69001e-01,3.57573e-01,9.99986e-01
9.670588912e-01,2.03917e-01,9.98791e-01,5.59392e-01,3.64911e-01,9.99991e-01
9.718941857e-01,2.56299e-01,9.99915e-01,6.88563e-01,3.72250e-01,9.99994e-01
9.767536566e-01,2.78318e-01,9.99999e-01,7.33215e-01,3.79587e-01,9.99996e-01
9.816374249e-01,3.07142e-01,9.99999e-01,7.93814e-01,3.86920e-01,9.99997e-01
9.865456120e-01,3.41133e-01,9.99999e-01,8.65282e-01,3.94245e-01,9.99998e-01
9.914783401e-01,3.67122e-01,9.99999e-01,9.14236e-01,4.01561e-01,9.99999e-01
9.964357318e-01,3.89376e-01,9.99999e-01,9.52338e-01,4.08863e-01,9.99999e-01
1.001417910e+00,4.04143e-01,9.99999e-01,9.71145e-01,4.16150e-01,9.99999e-01
1.006425000e+00,4.16404e-01,9.99999e-01,9.83431e-01,4.23420e-01,9.99999e-01
1.011457125e+00,4.26231e-01,9.99999e-01,9.89696e-01,4.30669e-01,9.99999e-01
1.016514411e+00,4.34825e-01,9.99999e-01,9.92989e-01,4.37895e-01,9.99999e-01
1.021596983e+00,4.42528e-01,9.99818e-01,9.94408e-01,4.45096e-01,9.99999e-01
1.026704968e+00,4.44692e-01,9.87535e-01,9.95636e-01,4.52270e-01,9.99999e-01
1.031838492e+00,4.11990e-01,8.99459e-01,9.96829e-01,4.59414e-01,9.99999e-01
1.036997685e+00,2.19979e-02,4.72196e-02,9.98113e-01,4.66527e-01,9.99999e-01
1.042182673e+00,1.26473e-03,2.67499e-03,9.97748e-01,4.73606e-01,9.99999e-01
1.047393587e+00,3.36634e-03,7.02106e-03,9.97017e-01,4.80649e-01,9.99999e-01
1.052630555e+00,2.57434e-07,5.29260e-07,9.95906e-01,4.87655e-01,9.99999e-01
1.057893707e+00,9.79025e-07,1.98628e-06,9.93171e-01,4.94622e-01,9.99999e-01
1.063183176e+00,3.06182e-05,6.14403e-05,9.88793e-01,5.01548e-01,9.99999e-01
1.068499092e+00,3.31764e-04,6.60567e-04,9.81318e-01,5.08431e-01,9.99999e-01
1.073841587e+00,4.49820e-03,8.86772e-03,9.78176e-01,5.15270e-01,9.99999e-01
1.079210795e+00,2.64052e-02,5.17021e-02,9.72138e-01,5.22063e-01,9.99998e-01
1.084606849e+00,9.44432e-02,1.85396e-01,9.58131e-01,5.28808e-01,9.99998e-01
1.090029883e+00,2.09138e-01,4.13171e-01,9.40377e-01,5.35505e-01,9.99997e-01
1.095480033e+00,2.97901e-01,6.45805e-01,8.46015e-01,5.42152e-01,9.99995e-01
1.100957433e+00,2.93637e-01,8.09011e-01,6.56799e-01,5.48748e-01,9.99992e-01
1.106462220e+00,1.83317e-01,9.15982e-01,3.57262e-01,5.55292e-01,9.99983e-01
1.111994531e+00,6.65648e-02,9.67949e-01,1.21686e-01,5.61782e-01,9.99967e-01
1.117554504e+00,2.09946e-02,9.92097e-01,3.71213e-02,5.68217e-01,9.99954e-01
1.123142276e+00,6.03168e-02,9.99480e-01,1.04985e-01,5.74597e-01,9.99946e-01
1.128757988e+00,1.20770e-01,9.99999e-01,2.07906e-01,5.80920e-01,9.99941e-01
1.134401778e+00,5.46554e-02,9.99999e-01,9.30861e-02,5.87186e-01,9.99934e-01
1.140073787e+00,2.22571e-01,9.99999e-01,3.75101e-01,5.93394e-01,9.99947e-01
1.145774156e+00,8.85768e-02,9.99999e-01,1.47747e-01,5.99542e-01,9.99955e-01
1.151503026e+00,7.31537e-02,9.99999e-01,1.20794e-01,6.05632e-01,9.99961e-01
1.157260541e+00,9.23354e-02,9.99999e-01,1.50963e-01,6.11660e-01,9.99970e-01
1.163046844e+00,1.50775e-01,9.99999e-01,2.44123e-01,6.17628e-01,9.99981e-01
1.168862078e+00,2.27426e-01,9.99999e-01,3.64740e-01,6.23535e-01,9.99990e-01
1.174706389e+00,3.37021e-01,9.99999e-01,5.35484e-01,6.29380e-01,9.99994e-01
1.180579921e+00,4.33269e-01,9.99999e-01,6.82140e-01,6.35163e-01,9.99996e-01
1.186482820e+00,5.15443e-01,9.99974e-01,8.04289e-01,6.40883e-01,9.99996e-01
1.192415234e+00,5.45907e-01,9.57689e-01,8.80289e-01,6.46539e-01,9.99997e-01
1.198377311e+00,3.05694e-01,5.12583e-01,8.98094e-01,6.52133e-01,9.99997e-01
1.204369197e+00,3.84756e-32,6.20486e-32,9.03613e-01,6.57663e-01,9.99997e-01
1.210391043e+00,1.38495e-130,2.20457e-130,9.07464e-01,6.63130e-01,9.99998e-01
1.216442998e+00,5.56973e-113,8.76939e-113,9.20785e-01,6.68532e-01,9.99998e-01
1.222525213e+00,2.83332e-111,4.34649e-111,9.37648e-01,6.73871e-01,9.99999e-01
1.228637839e+00,8.33005e-86,1.26404e-85,9.56252e-01,6.79145e-01,9.99999e-01
1.234781029e+00,2.59918e-53,3.85292e-53,9.67348e-01,6.84355e-01,9.99999e-01
1.240954934e+00,2.55607e-35,3.75496e-35,9.79218e-01,6.89502e-01,9.99999e-01
1.247159708e+00,6.35431e-17,9.23706e-17,9.83782e-01,6.94584e-01,9.99999e-01
1.253395507e+00,1.63444e-11,2.35996e-11,9.85581e-01,6.99602e-01,9.99999e-01
1.259662485e+00,7.38299e-07,1.05821e-06,9.86285e-01,7.04556e-01,9.99999e-01
1.265960797e+00,3.76857e-04,5.38597e-04,9.78198e-01,7.09446e-01,9.99999e-01
1.272290601e+00,1.96909e-02,2.83335e-02,9.65933e-01,7.14273e-01,9.99998e-01
1.278652054e+00,1.79648e-02,2.61085e-02,9.33550e-01,7.19036e-01,9.99998e-01
1.285045314e+00,1.42434e-05,2.06893e-05,8.83010e-01,7.23736e-01,9.99997e-01
1.291470541e+00,2.28229e-15,3.53078e-15,8.05314e-01,7.28373e-01,9.99995e-01
1.297927893e+00,1.55869e-05,2.41519e-05,7.35765e-01,7.32947e-01,9.99992e-01
1.304417533e+00,7.84185e-04,1.39740e-03,6.98097e-01,7.37459e-01,9.99985e-01
1.310939621e+00,2.11437e-04,3.59343e-04,6.62215e-01,7.41909e-01,9.99976e-01
1.317494319e+00,2.17928e-44,3.72464e-44,6.41088e-01,7.46296e-01,9.99959e-01
1.324081790e+00,3.93774e-29,7.09710e-29,5.18985e-01,7.50623e-01,9.99935e-01
1.330702199e+00,1.27085e-17,3.88419e-17,1.40263e-01,7.54888e-01,9.99891e-01
1.337355710e+00,1.37183e-17,1.22743e-15,2.97676e-03,7.59092e-01,9.99792e-01
1.344042489e+00,9.22242e-19,6.67944e-16,5.44351e-05,7.63236e-01,9.99556e-01
1.350762701e+00,4.07394e-29,1.89960e-17,2.53137e-13,7.67320e-01,9.99291e-01
1.357516515e+00,3.77549e-28,1.46591e-10,1.40150e-19,7.71345e-01,9.99123e-01
1.364304097e+00,1.74729e-18,9.01471e-08,3.32538e-12,7.75311e-01,9.99060e-01
1.371125618e+00,5.71381e-11,2.61799e-04,8.41907e-08,7.79218e-01,9.99052e-01
1.377981246e+00,5.26477e-10,7.81788e-04,2.72280e-07,7.83067e-01,9.98982e-01
1.384871152e+00,5.22648e-12,1.52743e-02,2.16104e-10,7.86858e-01,9.99010e-01
1.391795508e+00,1.18727e-13,2.14279e-02,2.66867e-12,7.90593e-01,9.99161e-01
1.398754485e+00,9.82010e-11,8.77312e-02,1.01171e-09,7.94271e-01,9.99279e-01
1.405748258e+00,2.07624e-10,1.70685e-01,1.10837e-09,7.97893e-01,9.99353e-01
1.412776999e+00,5.27020e-10,3.24027e-01,1.43472e-09,8.01459e-01,9.99480e-01
1.419840884e+00,9.87698e-10,3.05412e-01,2.68433e-09,8.04970e-01,9.99612e-01
1.426940089e+00,2.42782e-07,1.04836e-02,1.07129e-06,8.08427e-01,9.99759e-01
1.434074789e+00,0.00000e+00,0.00000e+00,1.04834e-05,8.11830e-01,9.99850e-01
1.441245163e+00,0.00000e+00,0.00000e+00,8.29416e-05,8.15180e-01,9.99883e-01
1.448451389e+00,0.00000e+00,0.00000e+00,1.62275e-03,8.18477e-01,9.99903e-01
1.455693646e+00,0.00000e+00,0.00000e+00,1.24621e-02,8.21722e-01,9.99919e-01
1.462972114e+00,0.00000e+00,0.00000e+00,1.82765e-02,8.24915e-01,9.99931e-01
1.470286975e+00,8.26200e-218,1.82065e-216,9.98489e-03,8.28057e-01,9.99938e-01
