#,Wave/freq,Total,CO2,H2O,Rayleigh,CIA
4.000000000e-01,8.06514e-05,9.99999e-01,9.99981e-01,8.06529e-05,9.99999e-01
4.020000000e-01,9.71750e-05,9.99999e-01,9.99988e-01,9.71762e-05,9.99999e-01
4.040100000e-01,1.16631e-04,9.99999e-01,9.99994e-01,1.16631e-04,9.99999e-01
4.060300500e-01,1.39478e-04,9.99999e-01,9.99998e-01,1.39478e-04,9.99999e-01
4.080602003e-01,1.66211e-04,9.99999e-01,9.99999e-01,1.66211e-04,9.99999e-01
4.101005013e-01,1.97384e-04,9.99999e-01,9.99999e-01,1.97384e-04,9.99999e-01
4.121510038e-01,2.33609e-04,9.99999e-01,9.99998e-01,2.33609e-04,9.99999e-01
4.142117588e-01,2.75561e-04,9.99999e-01,9.99994e-01,2.75563e-04,9.99999e-01
4.162828176e-01,3.23985e-04,9.99999e-01,9.99976e-01,3.23992e-04,9.99999e-01
4.183642317e-01,3.79712e-04,9.99999e-01,9.99985e-01,3.79717e-04,9.99999e-01
4.204560528e-01,4.43630e-04,9.99999e-01,9.99991e-01,4.43634e-04,9.99999e-01
4.225583331e-01,5.16717e-04,9.99999e-01,9.99996e-01,5.16719e-04,9.99999e-01
4.246711247e-01,6.00032e-04,9.99999e-01,9.99997e-01,6.00034e-04,9.99999e-01
4.267944804e-01,6.94725e-04,9.99999e-01,9.99995e-01,6.94728e-04,9.99999e-01
4.289284528e-01,8.02039e-04,9.99999e-01,9.99996e-01,8.02041e-04,9.99999e-01
4.310730950e-01,9.23306e-04,9.99999e-01,9.99998e-01,9.23307e-04,9.99999e-01
4.332284605e-01,1.05996e-03,9.99999e-01,9.99999e-01,1.05996e-03,9.99999e-01
4.353946028e-01,1.21352e-03,9.99999e-01,9.99999e-01,1.21352e-03,9.99999e-01
4.375715758e-01,1.38561e-03,9.99999e-01,9.99997e-01,1.38562e-03,9.99999e-01
4.397594337e-01,1.57795e-03,9.99999e-01,9.99979e-01,1.57799e-03,9.99999e-01
4.419582309e-01,1.79227e-03,9.99999e-01,9.99899e-01,1.79245e-03,9.99999e-01
4.441680220e-01,2.03078e-03,9.99999e-01,9.99919e-01,2.03095e-03,9.99999e-01
4.463888621e-01,2.29532e-03,9.99999e-01,9.99916e-01,2.29551e-03,9.99999e-01
4.486208064e-01,2.58812e-03,9.99999e-01,9.99947e-01,2.58826e-03,9.99999e-01
4.508639105e-01,2.91136e-03,9.99999e-01,9.99975e-01,2.91143e-03,9.99999e-01
4.531182300e-01,3.26733e-03,9.99999e-01,9.99989e-01,3.26736e-03,9.99999e-01
4.553838212e-01,3.65843e-03,9.99999e-01,9.99993e-01,3.65846e-03,9.99999e-01
4.576607403e-01,4.08722e-03,9.99999e-01,9.99996e-01,4.08723e-03,9.99999e-01
4.599490440e-01,4.55626e-03,9.99999e-01,9.99997e-01,4.55627e-03,9.99999e-01
4.622487892e-01,5.06824e-03,9.99999e-01,9.99999e-01,5.06824e-03,9.99999e-01
4.645600332e-01,5.62589e-03,9.99999e-01,9.99998e-01,5.62590e-03,9.99999e-01
4.668828333e-01,6.23190e-03,9.99999e-01,9.99975e-01,6.23206e-03,9.99999e-01
4.692172475e-01,6.88922e-03,9.99999e-01,9.99947e-01,6.88958e-03,9.99999e-01
4.715633337e-01,7.60115e-03,9.99999e-01,9.99965e-01,7.60140e-03,9.99999e-01
4.739211504e-01,8.37023e-03,9.99999e-01,9.99966e-01,8.37050e-03,9.99999e-01
4.762907561e-01,9.19973e-03,9.99999e-01,9.99982e-01,9.19988e-03,9.99999e-01
4.786722099e-01,1.00925e-02,9.99999e-01,9.99992e-01,1.00926e-02,9.99999e-01
4.810655710e-01,1.10517e-02,9.99999e-01,9.99997e-01,1.10517e-02,9.99999e-01
4.834708988e-01,1.20800e-02,9.99999e-01,9.99980e-01,1.20802e-02,9.99999e-01
4.858882533e-01,1.31808e-02,9.99999e-01,9.99962e-01,1.31813e-02,9.99999e-01
4.883176946e-01,1.43576e-02,9.99999e-01,9.99968e-01,1.43580e-02,9.99999e-01
4.907592831e-01,1.56129e-02,9.99999e-01,9.99971e-01,1.56134e-02,9.99999e-01
4.932130795e-01,1.69501e-02,9.99999e-01,9.99979e-01,1.69504e-02,9.99999e-01
4.956791449e-01,1.83719e-02,9.99999e-01,9.99989e-01,1.83721e-02,9.99999e-01
4.981575406e-01,1.98803e-02,9.99999e-01,9.99947e-01,1.98813e-02,9.99999e-01
5.006483283e-01,2.14781e-02,9.99999e-01,9.99865e-01,2.14810e-02,9.99999e-01
5.031515699e-01,2.31581e-02,9.99999e-01,9.99315e-01,2.31740e-02,9.99999e-01
5.056673278e-01,2.49539e-02,9.99999e-01,9.99637e-01,2.49630e-02,9.99999e-01
5.081956644e-01,2.68383e-02,9.99999e-01,9.99542e-01,2.68506e-02,9.99999e-01
5.107366428e-01,2.88304e-02,9.99999e-01,9.99690e-01,2.88394e-02,9.99999e-01
5.132903260e-01,3.09263e-02,9.99999e-01,9.99822e-01,3.09318e-02,9.99999e-01
5.158567776e-01,3.31276e-02,9.99999e-01,9.99924e-01,3.31301e-02,9.99999e-01
5.184360615e-01,3.54355e-02,9.99999e-01,9.99969e-01,3.54366e-02,9.99999e-01
5.210282418e-01,3.78529e-02,9.99999e-01,9.99988e-01,3.78533e-02,9.99999e-01
5.236333830e-01,4.03804e-02,9.99999e-01,9.99954e-01,4.03822e-02,9.99999e-01
5.262515499e-01,4.30238e-02,9.99999e-01,9.99971e-01,4.30250e-02,9.99999e-01
5.288828077e-01,4.57823e-02,9.99999e-01,9.99974e-01,4.57835e-02,9.99999e-01
5.315272217e-01,4.86579e-02,9.99999e-01,9.99976e-01,4.86590e-02,9.99999e-01
5.341848578e-01,5.16521e-02,9.99999e-01,9.99984e-01,5.16529e-02,9.99999e-01
5.368557821e-01,5.47636e-02,9.99999e-01,9.99947e-01,5.47664e-02,9.99999e-01
5.395400610e-01,5.79897e-02,9.99999e-01,9.99813e-01,5.80005e-02,9.99999e-01
5.422377613e-01,6.13411e-02,9.99999e-01,9.99756e-01,6.13560e-02,9.99999e-01
5.449489501e-01,6.48190e-02,9.99999e-01,9.99774e-01,6.48335e-02,9.99999e-01
5.476736949e-01,6.84199e-02,9.99999e-01,9.99798e-01,6.84336e-02,9.99999e-01
5.504120634e-01,7.21461e-02,9.99999e-01,9.99853e-01,7.21566e-02,9.99999e-01
5.531641237e-01,7.59969e-02,9.99999e-01,9.99926e-01,7.60025e-02,9.99999e-01
5.559299443e-01,7.99685e-02,9.99999e-01,9.99964e-01,7.99713e-02,9.99999e-01
5.587095940e-01,8.40610e-02,9.99999e-01,9.99977e-01,8.40628e-02,9.99999e-01
5.615031420e-01,8.82745e-02,9.99999e-01,9.99974e-01,8.82766e-02,9.99999e-01
5.643106577e-01,9.26096e-02,9.99999e-01,9.99972e-01,9.26121e-02,9.99999e-01
5.671322110e-01,9.70364e-02,9.99999e-01,9.99667e-01,9.70686e-02,9.99999e-01
5.699678720e-01,1.01608e-01,9.99999e-01,9.99635e-01,1.01645e-01,9.99999e-01
5.728177114e-01,1.06301e-01,9.99999e-01,9.99624e-01,1.06341e-01,9.99999e-01
5.756818000e-01,1.11115e-01,9.99999e-01,9.99654e-01,1.11154e-01,9.99999e-01
5.785602090e-01,1.16048e-01,9.99999e-01,9.99698e-01,1.16083e-01,9.99999e-01
5.814530100e-01,1.21091e-01,9.99999e-01,9.99697e-01,1.21127e-01,9.99999e-01
5.843602750e-01,1.26240e-01,9.99999e-01,9.99643e-01,1.26285e-01,9.99999e-01
5.872820764e-01,1.31148e-01,9.99999e-01,9.96922e-01,1.31553e-01,9.99999e-01
5.902184868e-01,1.36415e-01,9.99999e-01,9.96236e-01,1.36931e-01,9.99999e-01
5.931695792e-01,1.42038e-01,9.99999e-01,9.97348e-01,1.42416e-01,9.99999e-01
5.961354271e-01,1.47574e-01,9.99999e-01,9.97086e-01,1.48005e-01,9.99999e-01
5.991161043e-01,1.53370e-01,9.99999e-01,9.97872e-01,1.53697e-01,9.99999e-01
6.021116848e-01,1.59296e-01,9.99999e-01,9.98790e-01,1.59489e-01,9.99999e-01
6.051222432e-01,1.65277e-01,9.99999e-01,9.99387e-01,1.65379e-01,9.99999e-01
6.081478544e-01,1.71317e-01,9.99999e-01,9.99735e-01,1.71363e-01,9.99999e-01
6.111885937e-01,1.77419e-01,9.99999e-01,9.99887e-01,1.77439e-01,9.99999e-01
6.142445367e-01,1.83595e-01,9.99999e-01,9.99949e-01,1.83604e-01,9.99999e-01
6.173157594e-01,1.89850e-01,9.99999e-01,9.99972e-01,1.89855e-01,9.99999e-01
6.204023382e-01,1.96184e-01,9.99999e-01,9.99976e-01,1.96189e-01,9.99999e-01
6.235043498e-01,2.02583e-01,9.99999e-01,9.99899e-01,2.02603e-01,9.99999e-01
6.266218716e-01,2.08981e-01,9.99999e-01,9.99459e-01,2.09094e-01,9.99999e-01
6.297549810e-01,2.15616e-01,9.99999e-01,9.99801e-01,2.15658e-01,9.99999e-01
6.329037559e-01,2.22206e-01,9.99999e-01,9.99606e-01,2.22293e-01,9.99999e-01
6.360682746e-01,2.28919e-01,9.99999e-01,9.99666e-01,2.28995e-01,9.99999e-01
6.392486160e-01,2.35659e-01,9.99999e-01,9.99567e-01,2.35760e-01,9.99999e-01
6.424448591e-01,2.42461e-01,9.99999e-01,9.99481e-01,2.42586e-01,9.99999e-01
6.456570834e-01,2.48810e-01,9.99999e-01,9.97356e-01,2.49469e-01,9.99999e-01
6.488853688e-01,2.55811e-01,9.99999e-01,9.97683e-01,2.56405e-01,9.99999e-01
6.521297956e-01,2.62862e-01,9.99999e-01,9.97989e-01,2.63392e-01,9.99999e-01
6.553904446e-01,2.69889e-01,9.99999e-01,9.98016e-01,2.70425e-01,9.99999e-01
6.586673968e-01,2.77025e-01,9.99999e-01,9.98284e-01,2.77501e-01,9.99999e-01
6.619607338e-01,2.84336e-01,9.99999e-01,9.99008e-01,2.84618e-01,9.99999e-01
6.652705375e-01,2.91603e-01,9.99999e-01,9.99423e-01,2.91771e-01,9.99999e-01
6.685968902e-01,2.98877e-01,9.99999e-01,9.99732e-01,2.98957e-01,9.99999e-01
6.719398746e-01,3.06135e-01,9.99999e-01,9.99875e-01,3.06173e-01,9.99999e-01
6.752995740e-01,3.13394e-01,9.99999e-01,9.99932e-01,3.13415e-01,9.99999e-01
6.786760719e-01,3.20650e-01,9.99999e-01,9.99903e-01,3.20681e-01,9.99999e-01
6.820694522e-01,3.27912e-01,9.99999e-01,9.99835e-01,3.27966e-01,9.99999e-01
6.854797995e-01,3.35197e-01,9.99999e-01,9.99787e-01,3.35268e-01,9.99999e-01
6.889071985e-01,3.42411e-01,9.99999e-01,9.99494e-01,3.42584e-01,9.99999e-01
6.923517345e-01,3.46994e-01,9.99999e-01,9.91666e-01,3.49910e-01,9.99999e-01
6.958134932e-01,3.55661e-01,9.99999e-01,9.95567e-01,3.57244e-01,9.99999e-01
6.992925606e-01,3.63078e-01,9.99999e-01,9.95875e-01,3.64582e-01,9.99999e-01
7.027890234e-01,3.70012e-01,9.99999e-01,9.94866e-01,3.71921e-01,9.99999e-01
7.063029686e-01,3.77623e-01,9.99999e-01,9.95687e-01,3.79258e-01,9.99999e-01
7.098344834e-01,3.84992e-01,9.99999e-01,9.95862e-01,3.86591e-01,9.99999e-01
7.133836558e-01,3.91775e-01,9.99999e-01,9.94561e-01,3.93917e-01,9.99999e-01
7.169505741e-01,3.83849e-01,9.99999e-01,9.56674e-01,4.01233e-01,9.99998e-01
7.205353270e-01,3.99616e-01,9.99999e-01,9.78164e-01,4.08536e-01,9.99998e-01
7.241380036e-01,4.04510e-01,9.99999e-01,9.72790e-01,4.15824e-01,9.99998e-01
7.277586936e-01,4.12682e-01,9.99999e-01,9.75389e-01,4.23094e-01,9.99998e-01
7.313974871e-01,4.19021e-01,9.99999e-01,9.73687e-01,4.30344e-01,9.99999e-01
7.350544745e-01,4.31261e-01,9.99999e-01,9.85577e-01,4.37571e-01,9.99999e-01
7.387297469e-01,4.40043e-01,9.99999e-01,9.89363e-01,4.44774e-01,9.99999e-01
7.424233956e-01,4.49586e-01,9.99999e-01,9.94770e-01,4.51949e-01,9.99999e-01
7.461355126e-01,4.57641e-01,9.99999e-01,9.96834e-01,4.59095e-01,9.99999e-01
7.498661902e-01,4.65519e-01,9.99999e-01,9.98521e-01,4.66209e-01,9.99999e-01
7.536155211e-01,4.72947e-01,9.99999e-01,9.99276e-01,4.73289e-01,9.99999e-01
7.573835987e-01,4.80156e-01,9.99999e-01,9.99627e-01,4.80334e-01,9.99999e-01
7.611705167e-01,4.87230e-01,9.99999e-01,9.99768e-01,4.87342e-01,9.99999e-01
7.649763693e-01,4.94239e-01,9.99999e-01,9.99854e-01,4.94311e-01,9.99999e-01
7.688012511e-01,5.01188e-01,9.99999e-01,9.99898e-01,5.01238e-01,9.99999e-01
7.726452574e-01,5.08081e-01,9.99999e-01,9.99916e-01,5.08123e-01,9.99999e-01
7.765084837e-01,5.14904e-01,9.99999e-01,9.99882e-01,5.14964e-01,9.99999e-01
7.803910261e-01,5.06047e-01,9.70359e-01,9.99496e-01,5.21759e-01,9.99999e-01
7.842929812e-01,4.59315e-01,8.70541e-01,9.98242e-01,5.28507e-01,9.99999e-01
7.882144461e-01,4.60167e-01,8.62828e-01,9.96349e-01,5.35206e-01,9.99999e-01
7.921555184e-01,4.96347e-01,9.17822e-01,9.97986e-01,5.41856e-01,9.99999e-01
7.961162960e-01,5.15834e-01,9.43812e-01,9.96483e-01,5.48454e-01,9.99999e-01
8.000968774e-01,5.35714e-01,9.69199e-01,9.95915e-01,5.55000e-01,9.99999e-01
8.040973618e-01,5.50179e-01,9.83858e-01,9.95920e-01,5.61492e-01,9.99999e-01
8.081178486e-01,5.58590e-01,9.92592e-01,9.90882e-01,5.67930e-01,9.99999e-01
8.121584379e-01,5.51445e-01,9.97686e-01,9.62390e-01,5.74312e-01,9.99999e-01
8.162192301e-01,5.54247e-01,9.99488e-01,9.55029e-01,5.80638e-01,9.99998e-01
8.203003262e-01,5.73822e-01,9.99990e-01,9.77713e-01,5.86906e-01,9.99998e-01
8.244018279e-01,5.74217e-01,9.99999e-01,9.68136e-01,5.93117e-01,9.99998e-01
8.285238370e-01,5.83160e-01,9.99999e-01,9.73120e-01,5.99268e-01,9.99999e-01
8.326664562e-01,5.88839e-01,9.99999e-01,9.72708e-01,6.05360e-01,9.99999e-01
8.368297885e-01,5.99416e-01,9.99999e-01,9.80412e-01,6.11391e-01,9.99999e-01
8.410139374e-01,6.10149e-01,9.99999e-01,9.88316e-01,6.17362e-01,9.99999e-01
8.452190071e-01,6.19688e-01,9.99999e-01,9.94249e-01,6.23272e-01,9.99999e-01
8.494451021e-01,6.27027e-01,9.99999e-01,9.96674e-01,6.29119e-01,9.99999e-01
8.536923276e-01,6.33651e-01,9.99999e-01,9.98024e-01,6.34905e-01,9.99999e-01
8.579607893e-01,6.39851e-01,9.99999e-01,9.98787e-01,6.40627e-01,9.99999e-01
8.622505932e-01,6.45788e-01,9.99999e-01,9.99227e-01,6.46287e-01,9.99999e-01
8.665618462e-01,6.07364e-01,9.32132e-01,9.99523e-01,6.51884e-01,9.99999e-01
8.708946554e-01,4.62522e-01,7.03913e-01,9.99456e-01,6.57417e-01,9.99999e-01
8.752491287e-01,4.98914e-01,7.53172e-01,9.99271e-01,6.62886e-01,9.99999e-01
8.796253743e-01,5.71412e-01,8.55870e-01,9.98995e-01,6.68291e-01,9.99999e-01
8.840235012e-01,6.20780e-01,9.22586e-01,9.98851e-01,6.73633e-01,9.99999e-01
8.884436187e-01,6.54925e-01,9.68617e-01,9.95890e-01,6.78910e-01,9.99999e-01
8.928858368e-01,6.46311e-01,9.87211e-01,9.56872e-01,6.84123e-01,9.99998e-01
8.973502660e-01,6.35059e-01,9.96858e-01,9.24196e-01,6.89272e-01,9.99998e-01
9.018370173e-01,6.66541e-01,9.99652e-01,9.60264e-01,6.94357e-01,9.99998e-01
9.063462024e-01,6.69640e-01,9.91420e-01,9.65529e-01,6.99378e-01,9.99998e-01
9.108779334e-01,6.53396e-01,9.79929e-01,9.46465e-01,7.04335e-01,9.99998e-01
9.154323231e-01,6.63047e-01,9.95205e-01,9.39300e-01,7.09229e-01,9.99997e-01
9.200094847e-01,6.36323e-01,9.33861e-01,9.52004e-01,7.14058e-01,9.99997e-01
9.246095321e-01,6.04599e-01,9.05590e-01,9.27295e-01,7.18824e-01,9.99996e-01
9.292325798e-01,4.04730e-01,9.25948e-01,5.99656e-01,7.23527e-01,9.99992e-01
9.338787427e-01,3.49486e-01,9.27642e-01,5.13538e-01,7.28167e-01,9.99990e-01
9.385481364e-01,5.31454e-01,9.46342e-01,7.64154e-01,7.32744e-01,9.99989e-01
9.432408771e-01,4.92774e-01,9.66691e-01,6.90240e-01,7.37258e-01,9.99988e-01
9.479570815e-01,4.37779e-01,9.82828e-01,6.00032e-01,7.41710e-01,9.99990e-01
9.526968669e-01,5.03170e-01,9.91668e-01,6.79595e-01,7.46101e-01,9.99992e-01
9.574603512e-01,5.24744e-01,9.96427e-01,7.01615e-01,7.50430e-01,9.99994e-01
9.622476530e-01,5.64582e-01,9.98883e-01,7.48883e-01,7.54698e-01,9.99995e-01
9.670588912e-01,6.42384e-01,9.99664e-01,8.46734e-01,7.58905e-01,9.99997e-01
9.718941857e-01,6.87811e-01,9.99975e-01,9.01416e-01,7.63052e-01,9.99998e-01
9.767536566e-01,7.03844e-01,9.99999e-01,9.17492e-01,7.67139e-01,9.99998e-01
9.816374249e-01,7.23387e-01,9.99999e-01,9.38043e-01,7.71166e-01,9.99998e-01
9.865456120e-01,7.44769e-01,9.99999e-01,9.60825e-01,7.75134e-01,9.99999e-01
9.914783401e-01,7.60054e-01,9.99999e-01,9.75624e-01,7.79044e-01,9.99999e-01
9.964357318e-01,7.72443e-01,9.99999e-01,9.86648e-01,7.82896e-01,9.99999e-01
1.001417910e+00,7.80378e-01,9.99999e-01,9.91976e-01,7.86690e-01,9.99999e-01
1.006425000e+00,7.86814e-01,9.99999e-01,9.95429e-01,7.90427e-01,9.99999e-01
1.011457125e+00,7.91847e-01,9.99999e-01,9.97152e-01,7.94107e-01,9.99999e-01
1.016514411e+00,7.96192e-01,9.99999e-01,9.98069e-01,7.97731e-01,9.99999e-01
1.021596983e+00,8.00036e-01,9.99958e-01,9.98462e-01,8.01300e-01,9.99999e-01
1.026704968e+00,8.01167e-01,9.96660e-01,9.98801e-01,8.04814e-01,9.99999e-01
1.031838492e+00,7.76644e-01,9.61683e-01,9.99126e-01,8.08273e-01,9.99999e-01
1.036997685e+00,1.36643e-01,1.68415e-01,9.99482e-01,8.11679e-01,9.99999e-01
1.042182673e+00,1.15754e-01,1.42102e-01,9.99385e-01,8.15031e-01,9.99999e-01
1.047393587e+00,1.33760e-01,1.63573e-01,9.99183e-01,8.18330e-01,9.99999e-01
1.052630555e+00,4.88513e-03,5.95097e-03,9.98881e-01,8.21577e-01,9.99999e-01
1.057893707e+00,1.17020e-02,1.42062e-02,9.98135e-01,8.24773e-01,9.99999e-01
1.063183176e+00,3.61957e-02,4.38169e-02,9.96929e-01,8.27917e-01,9.99999e-01
1.068499092e+00,9.57565e-02,1.15736e-01,9.94855e-01,8.31011e-01,9.99999e-01
1.073841587e+00,2.11584e-01,2.54996e-01,9.93992e-01,8.34055e-01,9.99999e-01
1.079210795e+00,3.50055e-01,4.21186e-01,9.92280e-01,8.37050e-01,9.99999e-01
1.084606849e+00,5.15973e-01,6.21181e-01,9.88354e-01,8.39996e-01,9.99999e-01
1.090029883e+00,6.47891e-01,7.81295e-01,9.83406e-01,8.42894e-01,9.99998e-01
1.095480033e+00,7.15661e-01,8.85357e-01,9.55331e-01,8.45745e-01,9.99998e-01
1.100957433e+00,7.12872e-01,9.43052e-01,8.90351e-01,8.48548e-01,9.99997e-01
1.106462220e+00,6.19432e-01,9.76019e-01,7.44922e-01,8.51305e-01,9.99995e-01
1.111994531e+00,4.54766e-01,9.91045e-01,5.37003e-01,8.54016e-01,9.99990e-01
1.117554504e+00,3.12811e-01,9.97796e-01,3.65813e-01,8.56682e-01,9.99987e-01
1.123142276e+00,4.10066e-01,9.99853e-01,4.77250e-01,8.59304e-01,9.99984e-01
1.128757988e+00,5.36946e-01,9.99999e-01,6.23002e-01,8.61882e-01,9.99983e-01
1.134401778e+00,3.10195e-01,9.99999e-01,3.58855e-01,8.64416e-01,9.99981e-01
1.140073787e+00,6.53525e-01,9.99999e-01,7.53868e-01,8.66907e-01,9.99984e-01
1.145774156e+00,4.81959e-01,9.99999e-01,5.54393e-01,8.69356e-01,9.99987e-01
1.151503026e+00,4.52471e-01,9.99999e-01,5.19034e-01,8.71764e-01,9.99989e-01
1.157260541e+00,5.04677e-01,9.99999e-01,5.77352e-01,8.74130e-01,9.99991e-01
1.163046844e+00,5.83329e-01,9.99999e-01,6.65557e-01,8.76456e-01,9.99994e-01
1.168862078e+00,6.62079e-01,9.99999e-01,7.53441e-01,8.78742e-01,9.99996e-01
1.174706389e+00,7.39809e-01,9.99999e-01,8.39749e-01,8.80988e-01,9.99998e-01
1.180579921e+00,7.94034e-01,9.99999e-01,8.99046e-01,8.83196e-01,9.99998e-01
1.186482820e+00,8.33752e-01,9.99995e-01,9.41707e-01,8.85365e-01,9.99998e-01
1.192415234e+00,8.46945e-01,9.88187e-01,9.65596e-01,8.87497e-01,9.99998e-01
1.198377311e+00,4.90351e-01,5.64963e-01,9.70981e-01,8.89592e-01,9.99998e-01
1.204369197e+00,1.98808e-10,2.26584e-10,9.72490e-01,8.91650e-01,9.99999e-01
1.210391043e+00,2.31363e-37,2.62749e-37,9.73672e-01,8.93672e-01,9.99999e-01
1.216442998e+00,1.51621e-32,1.71674e-32,9.77510e-01,8.95659e-01,9.99999e-01
1.222525213e+00,4.44956e-32,5.00237e-32,9.82466e-01,8.97610e-01,9.99999e-01
1.228637839e+00,7.72744e-25,8.66409e-25,9.87803e-01,8.99528e-01,9.99999e-01
1.234781029e+00,3.21075e-16,3.57594e-16,9.90918e-01,9.01411e-01,9.99999e-01
1.240954934e+00,5.41898e-11,6.02177e-11,9.94255e-01,9.03261e-01,9.99999e-01
1.247159708e+00,3.29074e-06,3.64581e-06,9.95520e-01,9.05078e-01,9.99999e-01
1.253395507e+00,5.42812e-04,6.00363e-04,9.96028e-01,9.06863e-01,9.99999e-01
1.259662485e+00,9.32688e-03,1.02959e-02,9.96265e-01,9.08616e-01,9.99999e-01
1.265960797e+00,7.64492e-02,8.43865e-02,9.94001e-01,9.10337e-01,9.99999e-01
1.272290601e+00,2.95085e-01,3.26158e-01,9.91182e-01,9.12028e-01,9.99999e-01
1.278652054e+00,2.76740e-01,3.07486e-01,9.81434e-01,9.13688e-01,9.99999e-01
1.285045314e+00,8.91439e-03,9.88882e-03,9.70979e-01,9.15319e-01,9.99998e-01
1.291470541e+00,4.28268e-05,4.85492e-05,9.42367e-01,9.16920e-01,9.99998e-01
1.297927893e+00,5.90303e-03,6.68423e-03,9.25350e-01,9.18492e-01,9.99997e-01
1.304417533e+00,1.27278e-01,1.51382e-01,9.04680e-01,9.20036e-01,9.99995e-01
1.310939621e+00,3.32536e-02,3.86715e-02,8.92166e-01,9.21552e-01,9.99993e-01
1.317494319e+00,2.39928e-13,2.79672e-13,8.82763e-01,9.23040e-01,9.99988e-01
1.324081790e+00,2.40716e-09,2.84571e-09,8.30248e-01,9.24501e-01,9.99981e-01
1.330702199e+00,1.17242e-05,1.83286e-05,4.84676e-01,9.25936e-01,9.99969e-01
1.337355710e+00,5.72887e-06,2.08742e-05,1.52533e-01,9.27344e-01,9.99942e-01
1.344042489e+00,9.31028e-07,6.41320e-06,1.05477e-02,9.28727e-01,9.99878e-01
1.350762701e+00,3.04565e-09,1.14346e-05,7.59355e-05,9.30084e-01,9.99805e-01
1.357516515e+00,4.27987e-09,6.53577e-04,1.73828e-06,9.31417e-01,9.99759e-01
1.364304097e+00,2.93395e-06,8.73371e-03,1.82919e-04,9.32725e-01,9.99742e-01
1.371125618e+00,3.72641e-04,8.36523e-02,3.00257e-03,9.34009e-01,9.99740e-01
1.377981246e+00,1.13667e-03,1.32287e-01,7.31963e-03,9.35269e-01,9.99721e-01
1.384871152e+00,8.26315e-05,3.07922e-01,2.31316e-04,9.36506e-01,9.99723e-01
1.391795508e+00,9.75345e-05,3.36538e-01,2.52089e-04,9.37721e-01,9.99763e-01
1.398754485e+00,4.99847e-04,5.10931e-01,9.76251e-04,9.38912e-01,9.99802e-01
1.405748258e+00,5.79126e-04,6.09501e-01,9.26340e-04,9.40082e-01,9.99822e-01
1.412776999e+00,6.80036e-04,7.31341e-01,9.27115e-04,9.41230e-01,9.99857e-01
1.419840884e+00,1.15896e-03,6.64563e-01,1.53518e-03,9.42357e-01,9.99893e-01
1.426940089e+00,1.80664e-03,6.58598e-02,6.01142e-03,9.43463e-01,9.99933e-01
1.434074789e+00,0.00000e+00,0.00000e+00,2.03309e-02,9.44548e-01,9.99958e-01
1.441245163e+00,0.00000e+00,0.00000e+00,4.97438e-02,9.45613e-01,9.99967e-01
1.448451389e+00,0.00000e+00,0.00000e+00,1.18777e-01,9.46658e-01,9.99973e-01
1.455693646e+00,7.66927e-299,1.68976e-298,2.41712e-01,9.47683e-01,9.99977e-01
1.462972114e+00,4.57756e-145,1.00750e-144,2.95780e-01,9.48690e-01,9.99980e-01
1.470286975e+00,3.14597e-61,7.33250e-61,2.41343e-01,9.49677e-01,9.99982e-01
