#,Wave/freq,Total,CO2,H2O,Rayleigh,CIA
4.000000000e-01,2.74251e-04,9.99999e-01,9.99983e-01,2.74255e-04,9.99999e-01
4.020000000e-01,3.22536e-04,9.99999e-01,9.99989e-01,3.22539e-04,9.99999e-01
4.040100000e-01,3.78046e-04,9.99999e-01,9.99995e-01,3.78048e-04,9.99999e-01
4.060300500e-01,4.41721e-04,9.99999e-01,9.99998e-01,4.41722e-04,9.99999e-01
4.080602003e-01,5.14536e-04,9.99999e-01,9.99999e-01,5.14536e-04,9.99999e-01
4.101005013e-01,5.97549e-04,9.99999e-01,9.99999e-01,5.97549e-04,9.99999e-01
4.121510038e-01,6.91907e-04,9.99999e-01,9.99998e-01,6.91907e-04,9.99999e-01
4.142117588e-01,7.98845e-04,9.99999e-01,9.99995e-01,7.98849e-04,9.99999e-01
4.162828176e-01,9.19687e-04,9.99999e-01,9.99979e-01,9.19705e-04,9.99999e-01
4.183642317e-01,1.05589e-03,9.99999e-01,9.99987e-01,1.05590e-03,9.99999e-01
4.204560528e-01,1.20896e-03,9.99999e-01,9.99992e-01,1.20897e-03,9.99999e-01
4.225583331e-01,1.38052e-03,9.99999e-01,9.99996e-01,1.38053e-03,9.99999e-01
4.246711247e-01,1.57230e-03,9.99999e-01,9.99997e-01,1.57230e-03,9.99999e-01
4.267944804e-01,1.78612e-03,9.99999e-01,9.99996e-01,1.78612e-03,9.99999e-01
4.289284528e-01,2.02391e-03,9.99999e-01,9.99997e-01,2.02392e-03,9.99999e-01
4.310730950e-01,2.28771e-03,9.99999e-01,9.99998e-01,2.28772e-03,9.99999e-01
4.332284605e-01,2.57965e-03,9.99999e-01,9.99999e-01,2.57965e-03,9.99999e-01
4.353946028e-01,2.90194e-03,9.99999e-01,9.99999e-01,2.90194e-03,9.99999e-01
4.375715758e-01,3.25691e-03,9.99999e-01,9.99997e-01,3.25692e-03,9.99999e-01
4.397594337e-01,3.64693e-03,9.99999e-01,9.99982e-01,3.64699e-03,9.99999e-01
4.419582309e-01,4.07431e-03,9.99999e-01,9.99910e-01,4.07467e-03,9.99999e-01
4.441680220e-01,4.54223e-03,9.99999e-01,9.99930e-01,4.54254e-03,9.99999e-01
4.463888621e-01,5.05292e-03,9.99999e-01,9.99927e-01,5.05328e-03,9.99999e-01
4.486208064e-01,5.60937e-03,9.99999e-01,9.99954e-01,5.60962e-03,9.99999e-01
4.508639105e-01,6.21425e-03,9.99999e-01,9.99978e-01,6.21438e-03,9.99999e-01
4.531182300e-01,6.87037e-03,9.99999e-01,9.99991e-01,6.87042e-03,9.99999e-01
4.553838212e-01,7.58064e-03,9.99999e-01,9.99993e-01,7.58068e-03,9.99999e-01
4.576607403e-01,8.34811e-03,9.99999e-01,9.99996e-01,8.34813e-03,9.99999e-01
4.599490440e-01,9.17577e-03,9.99999e-01,9.99997e-01,9.17578e-03,9.99999e-01
4.622487892e-01,1.00667e-02,9.99999e-01,9.99999e-01,1.00667e-02,9.99999e-01
4.645600332e-01,1.10239e-02,9.99999e-01,9.99998e-01,1.10239e-02,9.99999e-01
4.668828333e-01,1.20502e-02,9.99999e-01,9.99978e-01,1.20504e-02,9.99999e-01
4.692172475e-01,1.31489e-02,9.99999e-01,9.99954e-01,1.31495e-02,9.99999e-01
4.715633337e-01,1.43236e-02,9.99999e-01,9.99969e-01,1.43240e-02,9.99999e-01
4.739211504e-01,1.55766e-02,9.99999e-01,9.99971e-01,1.55771e-02,9.99999e-01
4.762907561e-01,1.69115e-02,9.99999e-01,9.99984e-01,1.69118e-02,9.99999e-01
4.786722099e-01,1.83309e-02,9.99999e-01,9.99993e-01,1.83310e-02,9.99999e-01
4.810655710e-01,1.98377e-02,9.99999e-01,9.99997e-01,1.98378e-02,9.99999e-01
4.834708988e-01,2.14345e-02,9.99999e-01,9.99982e-01,2.14349e-02,9.99999e-01
4.858882533e-01,2.31245e-02,9.99999e-01,9.99967e-01,2.31252e-02,9.99999e-01
4.883176946e-01,2.49108e-02,9.99999e-01,9.99972e-01,2.49115e-02,9.99999e-01
4.907592831e-01,2.67956e-02,9.99999e-01,9.99975e-01,2.67963e-02,9.99999e-01
4.932130795e-01,2.87817e-02,9.99999e-01,9.99982e-01,2.87822e-02,9.99999e-01
4.956791449e-01,3.08714e-02,9.99999e-01,9.99990e-01,3.08717e-02,9.99999e-01
4.981575406e-01,3.30655e-02,9.99999e-01,9.99954e-01,3.30670e-02,9.99999e-01
5.006483283e-01,3.53663e-02,9.99999e-01,9.99881e-01,3.53705e-02,9.99999e-01
5.031515699e-01,3.77615e-02,9.99999e-01,9.99402e-01,3.77841e-02,9.99999e-01
5.056673278e-01,4.02971e-02,9.99999e-01,9.99684e-01,4.03098e-02,9.99999e-01
5.081956644e-01,4.29323e-02,9.99999e-01,9.99602e-01,4.29494e-02,9.99999e-01
5.107366428e-01,4.56923e-02,9.99999e-01,9.99731e-01,4.57045e-02,9.99999e-01
5.132903260e-01,4.85693e-02,9.99999e-01,9.99846e-01,4.85768e-02,9.99999e-01
5.158567776e-01,5.15640e-02,9.99999e-01,9.99934e-01,5.15673e-02,9.99999e-01
5.184360615e-01,5.46761e-02,9.99999e-01,9.99973e-01,5.46775e-02,9.99999e-01
5.210282418e-01,5.79076e-02,9.99999e-01,9.99989e-01,5.79082e-02,9.99999e-01
5.236333830e-01,6.12579e-02,9.99999e-01,9.99960e-01,6.12603e-02,9.99999e-01
5.262515499e-01,6.47328e-02,9.99999e-01,9.99975e-01,6.47344e-02,9.99999e-01
5.288828077e-01,6.83295e-02,9.99999e-01,9.99977e-01,6.83311e-02,9.99999e-01
5.315272217e-01,7.20491e-02,9.99999e-01,9.99979e-01,7.20505e-02,9.99999e-01
5.341848578e-01,7.58920e-02,9.99999e-01,9.99986e-01,7.58930e-02,9.99999e-01
5.368557821e-01,7.98548e-02,9.99999e-01,9.99954e-01,7.98584e-02,9.99999e-01
5.395400610e-01,8.39327e-02,9.99999e-01,9.99836e-01,8.39465e-02,9.99999e-01
5.422377613e-01,8.81382e-02,9.99999e-01,9.99788e-01,8.81568e-02,9.99999e-01
5.449489501e-01,9.24708e-02,9.99999e-01,9.99803e-01,9.24889e-02,9.99999e-01
5.476736949e-01,9.69252e-02,9.99999e-01,9.99825e-01,9.69420e-02,9.99999e-01
5.504120634e-01,1.01502e-01,9.99999e-01,9.99873e-01,1.01515e-01,9.99999e-01
5.531641237e-01,1.06201e-01,9.99999e-01,9.99935e-01,1.06207e-01,9.99999e-01
5.559299443e-01,1.11014e-01,9.99999e-01,9.99968e-01,1.11017e-01,9.99999e-01
5.587095940e-01,1.15941e-01,9.99999e-01,9.99980e-01,1.15943e-01,9.99999e-01
5.615031420e-01,1.20982e-01,9.99999e-01,9.99978e-01,1.20984e-01,9.99999e-01
5.643106577e-01,1.26136e-01,9.99999e-01,9.99975e-01,1.26139e-01,9.99999e-01
5.671322110e-01,1.31365e-01,9.99999e-01,9.99704e-01,1.31404e-01,9.99999e-01
5.699678720e-01,1.36736e-01,9.99999e-01,9.99685e-01,1.36779e-01,9.99999e-01
5.728177114e-01,1.42214e-01,9.99999e-01,9.99672e-01,1.42260e-01,9.99999e-01
5.756818000e-01,1.47803e-01,9.99999e-01,9.99699e-01,1.47847e-01,9.99999e-01
5.785602090e-01,1.53496e-01,9.99999e-01,9.99738e-01,1.53536e-01,9.99999e-01
5.814530100e-01,1.59284e-01,9.99999e-01,9.99736e-01,1.59325e-01,9.99999e-01
5.843602750e-01,1.65160e-01,9.99999e-01,9.99686e-01,1.65212e-01,9.99999e-01
5.872820764e-01,1.70732e-01,9.99999e-01,9.97300e-01,1.71194e-01,9.99999e-01
5.902184868e-01,1.76688e-01,9.99999e-01,9.96730e-01,1.77267e-01,9.99999e-01
5.931695792e-01,1.83006e-01,9.99999e-01,9.97689e-01,1.83430e-01,9.99999e-01
5.961354271e-01,1.89198e-01,9.99999e-01,9.97467e-01,1.89678e-01,9.99999e-01
5.991161043e-01,1.95648e-01,9.99999e-01,9.98153e-01,1.96010e-01,9.99999e-01
6.021116848e-01,2.02210e-01,9.99999e-01,9.98951e-01,2.02422e-01,9.99999e-01
6.051222432e-01,2.08800e-01,9.99999e-01,9.99469e-01,2.08911e-01,9.99999e-01
6.081478544e-01,2.15424e-01,9.99999e-01,9.99770e-01,2.15473e-01,9.99999e-01
6.111885937e-01,2.22085e-01,9.99999e-01,9.99902e-01,2.22106e-01,9.99999e-01
6.142445367e-01,2.28796e-01,9.99999e-01,9.99956e-01,2.28806e-01,9.99999e-01
6.173157594e-01,2.35564e-01,9.99999e-01,9.99975e-01,2.35570e-01,9.99999e-01
6.204023382e-01,2.42389e-01,9.99999e-01,9.99979e-01,2.42394e-01,9.99999e-01
6.235043498e-01,2.49253e-01,9.99999e-01,9.99910e-01,2.49275e-01,9.99999e-01
6.266218716e-01,2.56090e-01,9.99999e-01,9.99529e-01,2.56210e-01,9.99999e-01
6.297549810e-01,2.63150e-01,9.99999e-01,9.99827e-01,2.63195e-01,9.99999e-01
6.329037559e-01,2.70135e-01,9.99999e-01,9.99658e-01,2.70227e-01,9.99999e-01
6.360682746e-01,2.77222e-01,9.99999e-01,9.99709e-01,2.77302e-01,9.99999e-01
6.392486160e-01,2.84311e-01,9.99999e-01,9.99623e-01,2.84418e-01,9.99999e-01
6.424448591e-01,2.91423e-01,9.99999e-01,9.99495e-01,2.91570e-01,9.99999e-01
6.456570834e-01,2.98056e-01,9.99999e-01,9.97661e-01,2.98755e-01,9.99999e-01
6.488853688e-01,3.05446e-01,9.99999e-01,9.98287e-01,3.05970e-01,9.99999e-01
6.521297956e-01,3.12665e-01,9.99999e-01,9.98254e-01,3.13212e-01,9.99999e-01
6.553904446e-01,3.19920e-01,9.99999e-01,9.98263e-01,3.20477e-01,9.99999e-01
6.586673968e-01,3.27274e-01,9.99999e-01,9.98512e-01,3.27762e-01,9.99999e-01
6.619607338e-01,3.34786e-01,9.99999e-01,9.99170e-01,3.35063e-01,9.99999e-01
6.652705375e-01,3.42209e-01,9.99999e-01,9.99502e-01,3.42379e-01,9.99999e-01
6.685968902e-01,3.49624e-01,9.99999e-01,9.99768e-01,3.49705e-01,9.99999e-01
6.719398746e-01,3.57000e-01,9.99999e-01,9.99892e-01,3.57038e-01,9.99999e-01
6.752995740e-01,3.64355e-01,9.99999e-01,9.99941e-01,3.64376e-01,9.99999e-01
6.786760719e-01,3.71684e-01,9.99999e-01,9.99915e-01,3.71715e-01,9.99999e-01
6.820694522e-01,3.78998e-01,9.99999e-01,9.99856e-01,3.79053e-01,9.99999e-01
6.854797995e-01,3.86314e-01,9.99999e-01,9.99814e-01,3.86386e-01,9.99999e-01
6.889071985e-01,3.93535e-01,9.99999e-01,9.99551e-01,3.93712e-01,9.99999e-01
6.923517345e-01,3.98097e-01,9.99999e-01,9.92691e-01,4.01028e-01,9.99999e-01
6.958134932e-01,4.06779e-01,9.99999e-01,9.96197e-01,4.08332e-01,9.99999e-01
6.992925606e-01,4.14118e-01,9.99999e-01,9.96385e-01,4.15620e-01,9.99999e-01
7.027890234e-01,4.21005e-01,9.99999e-01,9.95539e-01,4.22891e-01,9.99999e-01
7.063029686e-01,4.28528e-01,9.99999e-01,9.96249e-01,4.30141e-01,9.99999e-01
7.098344834e-01,4.35795e-01,9.99999e-01,9.96401e-01,4.37369e-01,9.99999e-01
7.133836558e-01,4.42439e-01,9.99999e-01,9.95201e-01,4.44572e-01,9.99999e-01
7.169505741e-01,4.34550e-01,9.99999e-01,9.61928e-01,4.51748e-01,9.99999e-01
7.205353270e-01,4.50276e-01,9.99999e-01,9.81218e-01,4.58895e-01,9.99999e-01
7.241380036e-01,4.54917e-01,9.99999e-01,9.76197e-01,4.66010e-01,9.99998e-01
7.277586936e-01,4.62918e-01,9.99999e-01,9.78495e-01,4.73091e-01,9.99999e-01
7.313974871e-01,4.69175e-01,9.99999e-01,9.77166e-01,4.80137e-01,9.99999e-01
7.350544745e-01,4.81044e-01,9.99999e-01,9.87472e-01,4.87146e-01,9.99999e-01
7.387297469e-01,4.89556e-01,9.99999e-01,9.90771e-01,4.94116e-01,9.99999e-01
7.424233956e-01,4.98779e-01,9.99999e-01,9.95476e-01,5.01045e-01,9.99999e-01
7.461355126e-01,5.06538e-01,9.99999e-01,9.97257e-01,5.07931e-01,9.99999e-01
7.498661902e-01,5.14116e-01,9.99999e-01,9.98722e-01,5.14773e-01,9.99999e-01
7.536155211e-01,5.21243e-01,9.99999e-01,9.99373e-01,5.21569e-01,9.99999e-01
7.573835987e-01,5.28148e-01,9.99999e-01,9.99677e-01,5.28319e-01,9.99999e-01
7.611705167e-01,5.34912e-01,9.99999e-01,9.99799e-01,5.35019e-01,9.99999e-01
7.649763693e-01,5.41602e-01,9.99999e-01,9.99873e-01,5.41670e-01,9.99999e-01
7.688012511e-01,5.48222e-01,9.99999e-01,9.99912e-01,5.48270e-01,9.99999e-01
7.726452574e-01,5.54777e-01,9.99999e-01,9.99927e-01,5.54817e-01,9.99999e-01
7.765084837e-01,5.61253e-01,9.99999e-01,9.99897e-01,5.61311e-01,9.99999e-01
7.803910261e-01,5.51994e-01,9.72666e-01,9.99557e-01,5.67750e-01,9.99999e-01
7.842929812e-01,5.08262e-01,8.86581e-01,9.98456e-01,5.74134e-01,9.99999e-01
7.882144461e-01,5.08562e-01,8.78837e-01,9.96822e-01,5.80461e-01,9.99999e-01
7.921555184e-01,5.43486e-01,9.27880e-01,9.98257e-01,5.86731e-01,9.99999e-01
7.961162960e-01,5.62287e-01,9.51205e-01,9.96919e-01,5.92943e-01,9.99999e-01
8.000968774e-01,5.81005e-01,9.73254e-01,9.96443e-01,5.99096e-01,9.99999e-01
8.040973618e-01,5.94636e-01,9.86063e-01,9.96442e-01,6.05190e-01,9.99999e-01
8.081178486e-01,6.02438e-01,9.93578e-01,9.91987e-01,6.11223e-01,9.99999e-01
8.121584379e-01,5.95629e-01,9.98013e-01,9.66961e-01,6.17196e-01,9.99999e-01
8.162192301e-01,5.98478e-01,9.99560e-01,9.60889e-01,6.23107e-01,9.99998e-01
8.203003262e-01,6.16537e-01,9.99993e-01,9.80259e-01,6.28956e-01,9.99998e-01
8.244018279e-01,6.17285e-01,9.99999e-01,9.72494e-01,6.34743e-01,9.99998e-01
8.285238370e-01,6.25416e-01,9.99999e-01,9.76498e-01,6.40468e-01,9.99999e-01
8.326664562e-01,6.30778e-01,9.99999e-01,9.76240e-01,6.46129e-01,9.99999e-01
8.368297885e-01,6.40644e-01,9.99999e-01,9.82992e-01,6.51728e-01,9.99999e-01
8.410139374e-01,6.50602e-01,9.99999e-01,9.89866e-01,6.57262e-01,9.99999e-01
8.452190071e-01,6.59434e-01,9.99999e-01,9.95021e-01,6.62734e-01,9.99999e-01
8.494451021e-01,6.66210e-01,9.99999e-01,9.97109e-01,6.68141e-01,9.99999e-01
8.536923276e-01,6.72333e-01,9.99999e-01,9.98290e-01,6.73484e-01,9.99999e-01
8.579607893e-01,6.78048e-01,9.99999e-01,9.98946e-01,6.78763e-01,9.99999e-01
8.622505932e-01,6.83521e-01,9.99999e-01,9.99330e-01,6.83978e-01,9.99999e-01
8.665618462e-01,6.44388e-01,9.35449e-01,9.99585e-01,6.89129e-01,9.99999e-01
8.708946554e-01,5.10149e-01,7.35194e-01,9.99525e-01,6.94216e-01,9.99999e-01
8.752491287e-01,5.46090e-01,7.81461e-01,9.99365e-01,6.99238e-01,9.99999e-01
8.796253743e-01,6.14809e-01,8.73812e-01,9.99121e-01,7.04197e-01,9.99999e-01
8.840235012e-01,6.60630e-01,9.32580e-01,9.98996e-01,7.09092e-01,9.99999e-01
8.884436187e-01,6.92051e-01,9.72897e-01,9.96339e-01,7.13924e-01,9.99999e-01
8.928858368e-01,6.83783e-01,9.88936e-01,9.61999e-01,7.18691e-01,9.99998e-01
8.973502660e-01,6.73652e-01,9.97304e-01,9.33712e-01,7.23396e-01,9.99998e-01
9.018370173e-01,7.02791e-01,9.99702e-01,9.65602e-01,7.28037e-01,9.99998e-01
9.063462024e-01,7.05104e-01,9.92359e-01,9.69673e-01,7.32616e-01,9.99998e-01
9.108779334e-01,6.90454e-01,9.82595e-01,9.53104e-01,7.37132e-01,9.99998e-01
9.154323231e-01,6.99391e-01,9.95891e-01,9.46926e-01,7.41587e-01,9.99998e-01
9.200094847e-01,6.73815e-01,9.40990e-01,9.58174e-01,7.45979e-01,9.99997e-01
9.246095321e-01,6.44545e-01,9.17583e-01,9.35017e-01,7.50309e-01,9.99996e-01
9.292325798e-01,4.52142e-01,9.34652e-01,6.37288e-01,7.54579e-01,9.99993e-01
9.338787427e-01,3.99716e-01,9.36875e-01,5.59028e-01,7.58788e-01,9.99991e-01
9.385481364e-01,5.76662e-01,9.53258e-01,7.91118e-01,7.62936e-01,9.99991e-01
9.432408771e-01,5.37691e-01,9.71144e-01,7.20881e-01,7.67025e-01,9.99990e-01
9.479570815e-01,4.83500e-01,9.85092e-01,6.36122e-01,7.71054e-01,9.99991e-01
9.526968669e-01,5.49104e-01,9.92785e-01,7.13269e-01,7.75024e-01,9.99993e-01
9.574603512e-01,5.70058e-01,9.96909e-01,7.33992e-01,7.78935e-01,9.99994e-01
9.622476530e-01,6.08279e-01,9.99035e-01,7.77784e-01,7.82788e-01,9.99996e-01
9.670588912e-01,6.80401e-01,9.99710e-01,8.65248e-01,7.86584e-01,9.99997e-01
9.718941857e-01,7.22062e-01,9.99979e-01,9.13646e-01,7.90323e-01,9.99998e-01
9.767536566e-01,7.36668e-01,9.99999e-01,9.27788e-01,7.94005e-01,9.99998e-01
9.816374249e-01,7.54562e-01,9.99999e-01,9.46004e-01,7.97631e-01,9.99998e-01
9.865456120e-01,7.73904e-01,9.99999e-01,9.65929e-01,8.01201e-01,9.99999e-01
9.914783401e-01,7.87665e-01,9.99999e-01,9.78809e-01,8.04716e-01,9.99999e-01
9.964357318e-01,7.98808e-01,9.99999e-01,9.88406e-01,8.08177e-01,9.99999e-01
1.001417910e+00,8.05934e-01,9.99999e-01,9.93037e-01,8.11584e-01,9.99999e-01
1.006425000e+00,8.11700e-01,9.99999e-01,9.96025e-01,8.14938e-01,9.99999e-01
1.011457125e+00,8.16220e-01,9.99999e-01,9.97532e-01,8.18239e-01,9.99999e-01
1.016514411e+00,8.20111e-01,9.99999e-01,9.98323e-01,8.21487e-01,9.99999e-01
1.021596983e+00,8.23550e-01,9.99959e-01,9.98664e-01,8.24684e-01,9.99999e-01
1.026704968e+00,8.24505e-01,9.97019e-01,9.98958e-01,8.27830e-01,9.99999e-01
1.031838492e+00,7.98819e-01,9.62068e-01,9.99242e-01,8.30925e-01,9.99999e-01
1.036997685e+00,1.57232e-01,1.88603e-01,9.99549e-01,8.33971e-01,9.99999e-01
1.042182673e+00,1.51371e-01,1.80944e-01,9.99463e-01,8.36967e-01,9.99999e-01
1.047393587e+00,1.62066e-01,1.93078e-01,9.99288e-01,8.39914e-01,9.99999e-01
1.052630555e+00,8.65446e-03,1.02761e-02,9.99023e-01,8.42814e-01,9.99999e-01
1.057893707e+00,1.98158e-02,2.34593e-02,9.98370e-01,8.45665e-01,9.99999e-01
1.063183176e+00,5.40356e-02,6.38137e-02,9.97320e-01,8.48470e-01,9.99999e-01
1.068499092e+00,1.28545e-01,1.51600e-01,9.95515e-01,8.51228e-01,9.99999e-01
1.073841587e+00,2.58400e-01,3.03990e-01,9.94751e-01,8.53941e-01,9.99999e-01
1.079210795e+00,4.00788e-01,4.70814e-01,9.93280e-01,8.56608e-01,9.99999e-01
1.084606849e+00,5.62828e-01,6.61508e-01,9.89841e-01,8.59231e-01,9.99999e-01
1.090029883e+00,6.85652e-01,8.07101e-01,9.85428e-01,8.61810e-01,9.99998e-01
1.095480033e+00,7.47527e-01,8.99837e-01,9.60786e-01,8.64345e-01,9.99998e-01
1.100957433e+00,7.44487e-01,9.50453e-01,9.03248e-01,8.66838e-01,9.99997e-01
1.106462220e+00,6.57344e-01,9.79212e-01,7.71773e-01,8.69288e-01,9.99995e-01
1.111994531e+00,5.01773e-01,9.92245e-01,5.79868e-01,8.71697e-01,9.99991e-01
1.117554504e+00,3.61228e-01,9.98102e-01,4.13943e-01,8.74064e-01,9.99988e-01
1.123142276e+00,4.57716e-01,9.99875e-01,5.22315e-01,8.76391e-01,9.99986e-01
1.128757988e+00,5.79907e-01,9.99999e-01,6.59985e-01,8.78678e-01,9.99985e-01
1.134401778e+00,3.52169e-01,9.99999e-01,3.99777e-01,8.80926e-01,9.99984e-01
1.140073787e+00,6.89463e-01,9.99999e-01,7.80709e-01,8.83135e-01,9.99987e-01
1.145774156e+00,5.28023e-01,9.99999e-01,5.96436e-01,8.85305e-01,9.99988e-01
1.151503026e+00,4.98752e-01,9.99999e-01,5.62018e-01,8.87438e-01,9.99990e-01
1.157260541e+00,5.50588e-01,9.99999e-01,6.18967e-01,8.89534e-01,9.99992e-01
1.163046844e+00,6.25533e-01,9.99999e-01,7.01593e-01,8.91593e-01,9.99995e-01
1.168862078e+00,6.98778e-01,9.99999e-01,7.81968e-01,8.93616e-01,9.99997e-01
1.174706389e+00,7.69497e-01,9.99999e-01,8.59194e-01,8.95603e-01,9.99998e-01
1.180579921e+00,8.18351e-01,9.99999e-01,9.11755e-01,8.97556e-01,9.99998e-01
1.186482820e+00,8.53743e-01,9.99994e-01,9.49163e-01,8.99474e-01,9.99998e-01
1.192415234e+00,8.65119e-01,9.89361e-01,9.70022e-01,9.01359e-01,9.99998e-01
1.198377311e+00,5.01881e-01,5.67719e-01,9.74673e-01,9.03209e-01,9.99999e-01
1.204369197e+00,2.28482e-09,2.56020e-09,9.76013e-01,9.05027e-01,9.99999e-01
1.210391043e+00,8.26046e-33,9.22740e-33,9.77053e-01,9.06813e-01,9.99999e-01
1.216442998e+00,1.28535e-28,1.43207e-28,9.80448e-01,9.08567e-01,9.99999e-01
1.222525213e+00,3.28795e-28,3.64069e-28,9.84749e-01,9.10289e-01,9.99999e-01
1.228637839e+00,7.90037e-22,8.72767e-22,9.89387e-01,9.11981e-01,9.99999e-01
1.234781029e+00,2.08315e-14,2.28786e-14,9.92109e-01,9.13642e-01,9.99999e-01
1.240954934e+00,9.25692e-10,1.01470e-09,9.95004e-01,9.15273e-01,9.99999e-01
1.247159708e+00,1.21046e-05,1.32343e-05,9.96108e-01,9.16875e-01,9.99999e-01
1.253395507e+00,1.35837e-03,1.48292e-03,9.96544e-01,9.18448e-01,9.99999e-01
1.259662485e+00,2.20922e-02,2.40788e-02,9.96717e-01,9.19993e-01,9.99999e-01
1.265960797e+00,1.05703e-01,1.15209e-01,9.94758e-01,9.21510e-01,9.99999e-01
1.272290601e+00,3.71259e-01,4.05330e-01,9.91775e-01,9.22999e-01,9.99999e-01
1.278652054e+00,3.18149e-01,3.48815e-01,9.83702e-01,9.24461e-01,9.99999e-01
1.285045314e+00,9.25121e-03,1.01254e-02,9.70611e-01,9.25896e-01,9.99998e-01
1.291470541e+00,1.45427e-04,1.62422e-04,9.49336e-01,9.27305e-01,9.99998e-01
1.297927893e+00,9.98379e-03,1.11409e-02,9.34408e-01,9.28689e-01,9.99997e-01
1.304417533e+00,1.66450e-01,1.93840e-01,9.16400e-01,9.30047e-01,9.99996e-01
1.310939621e+00,4.27494e-02,4.87750e-02,9.04792e-01,9.31380e-01,9.99993e-01
1.317494319e+00,8.81268e-12,1.00821e-11,8.97240e-01,9.32689e-01,9.99990e-01
1.324081790e+00,2.47102e-08,2.86437e-08,8.50037e-01,9.33973e-01,9.99984e-01
1.330702199e+00,4.69202e-05,7.08829e-05,5.18674e-01,9.35234e-01,9.99973e-01
1.337355710e+00,2.27230e-05,7.09824e-05,1.89253e-01,9.36472e-01,9.99950e-01
1.344042489e+00,3.64357e-06,2.08838e-05,1.55268e-02,9.37687e-01,9.99894e-01
1.350762701e+00,3.01840e-08,4.70667e-05,2.08349e-04,9.38879e-01,9.99830e-01
1.357516515e+00,4.10661e-08,1.57704e-03,8.28696e-06,9.40050e-01,9.99790e-01
1.364304097e+00,1.28307e-05,1.60196e-02,4.78642e-04,9.41198e-01,9.99775e-01
1.371125618e+00,9.19429e-04,1.14630e-01,5.75688e-03,9.42325e-01,9.99773e-01
1.377981246e+00,2.44732e-03,1.72025e-01,1.24840e-02,9.43432e-01,9.99757e-01
1.384871152e+00,2.07402e-04,3.59037e-01,5.10705e-04,9.44518e-01,9.99763e-01
1.391795508e+00,2.85526e-04,3.88191e-01,6.57100e-04,9.45583e-01,9.99799e-01
1.398754485e+00,1.17828e-03,5.58164e-01,2.11486e-03,9.46629e-01,9.99827e-01
1.405748258e+00,1.27250e-03,6.50691e-01,1.91771e-03,9.47655e-01,9.99845e-01
1.412776999e+00,1.55000e-03,7.62439e-01,2.03692e-03,9.48662e-01,9.99875e-01
1.419840884e+00,2.44354e-03,6.90754e-01,3.12597e-03,9.49650e-01,9.99907e-01
1.426940089e+00,3.09187e-03,7.36020e-02,1.07421e-02,9.50619e-01,9.99942e-01
1.434074789e+00,0.00000e+00,0.00000e+00,3.14708e-02,9.51571e-01,9.99963e-01
1.441245163e+00,0.00000e+00,0.00000e+00,7.09345e-02,9.52504e-01,9.99971e-01
1.448451389e+00,0.00000e+00,0.00000e+00,1.52080e-01,9.53420e-01,9.99976e-01
1.455693646e+00,2.18427e-260,4.34403e-260,2.88870e-01,9.54319e-01,9.99980e-01
1.462972114e+00,1.50339e-126,2.98715e-126,3.43895e-01,9.55201e-01,9.99983e-01
1.470286975e+00,1.39493e-53,2.91343e-53,2.87656e-01,9.56066e-01,9.99984e-01
