#,Wave/freq,Total,CO2,H2O,Rayleigh,CIA
4.000000000e-01,7.12522e-04,9.99999e-01,9.99985e-01,7.12532e-04,9.99999e-01
4.020000000e-01,8.22297e-04,9.99999e-01,9.99990e-01,8.22304e-04,9.99999e-01
4.040100000e-01,9.46164e-04,9.99999e-01,9.99995e-01,9.46168e-04,9.99999e-01
4.060300500e-01,1.08567e-03,9.99999e-01,9.99998e-01,1.08568e-03,9.99999e-01
4.080602003e-01,1.24237e-03,9.99999e-01,9.99999e-01,1.24237e-03,9.99999e-01
4.101005013e-01,1.41791e-03,9.99999e-01,9.99999e-01,1.41791e-03,9.99999e-01
4.121510038e-01,1.61402e-03,9.99999e-01,9.99998e-01,1.61402e-03,9.99999e-01
4.142117588e-01,1.83256e-03,9.99999e-01,9.99995e-01,1.83257e-03,9.99999e-01
4.162828176e-01,2.07546e-03,9.99999e-01,9.99981e-01,2.07550e-03,9.99999e-01
4.183642317e-01,2.34483e-03,9.99999e-01,9.99989e-01,2.34485e-03,9.99999e-01
4.204560528e-01,2.64277e-03,9.99999e-01,9.99993e-01,2.64279e-03,9.99999e-01
4.225583331e-01,2.97154e-03,9.99999e-01,9.99997e-01,2.97155e-03,9.99999e-01
4.246711247e-01,3.33347e-03,9.99999e-01,9.99997e-01,3.33348e-03,9.99999e-01
4.267944804e-01,3.73100e-03,9.99999e-01,9.99996e-01,3.73101e-03,9.99999e-01
4.289284528e-01,4.16666e-03,9.99999e-01,9.99997e-01,4.16667e-03,9.99999e-01
4.310730950e-01,4.64306e-03,9.99999e-01,9.99998e-01,4.64306e-03,9.99999e-01
4.332284605e-01,5.16286e-03,9.99999e-01,9.99999e-01,5.16286e-03,9.99999e-01
4.353946028e-01,5.72884e-03,9.99999e-01,9.99999e-01,5.72884e-03,9.99999e-01
4.375715758e-01,6.34380e-03,9.99999e-01,9.99997e-01,6.34381e-03,9.99999e-01
4.397594337e-01,7.01056e-03,9.99999e-01,9.99983e-01,7.01067e-03,9.99999e-01
4.419582309e-01,7.73173e-03,9.99999e-01,9.99920e-01,7.73234e-03,9.99999e-01
4.441680220e-01,8.51130e-03,9.99999e-01,9.99938e-01,8.51181e-03,9.99999e-01
4.463888621e-01,9.35151e-03,9.99999e-01,9.99935e-01,9.35210e-03,9.99999e-01
4.486208064e-01,1.02559e-02,9.99999e-01,9.99960e-01,1.02563e-02,9.99999e-01
4.508639105e-01,1.12271e-02,9.99999e-01,9.99981e-01,1.12273e-02,9.99999e-01
4.531182300e-01,1.22683e-02,9.99999e-01,9.99992e-01,1.22684e-02,9.99999e-01
4.553838212e-01,1.33825e-02,9.99999e-01,9.99994e-01,1.33826e-02,9.99999e-01
4.576607403e-01,1.45728e-02,9.99999e-01,9.99997e-01,1.45729e-02,9.99999e-01
4.599490440e-01,1.58423e-02,9.99999e-01,9.99997e-01,1.58424e-02,9.99999e-01
4.622487892e-01,1.71940e-02,9.99999e-01,9.99999e-01,1.71940e-02,9.99999e-01
4.645600332e-01,1.86309e-02,9.99999e-01,9.99998e-01,1.86309e-02,9.99999e-01
4.668828333e-01,2.01554e-02,9.99999e-01,9.99980e-01,2.01558e-02,9.99999e-01
4.692172475e-01,2.17709e-02,9.99999e-01,9.99959e-01,2.17717e-02,9.99999e-01
4.715633337e-01,2.34808e-02,9.99999e-01,9.99973e-01,2.34814e-02,9.99999e-01
4.739211504e-01,2.52869e-02,9.99999e-01,9.99974e-01,2.52875e-02,9.99999e-01
4.762907561e-01,2.71924e-02,9.99999e-01,9.99986e-01,2.71927e-02,9.99999e-01
4.786722099e-01,2.91994e-02,9.99999e-01,9.99994e-01,2.91995e-02,9.99999e-01
4.810655710e-01,3.13103e-02,9.99999e-01,9.99997e-01,3.13104e-02,9.99999e-01
4.834708988e-01,3.35271e-02,9.99999e-01,9.99984e-01,3.35276e-02,9.99999e-01
4.858882533e-01,3.58523e-02,9.99999e-01,9.99971e-01,3.58533e-02,9.99999e-01
4.883176946e-01,3.82887e-02,9.99999e-01,9.99975e-01,3.82896e-02,9.99999e-01
4.907592831e-01,4.08375e-02,9.99999e-01,9.99978e-01,4.08384e-02,9.99999e-01
4.932130795e-01,4.35008e-02,9.99999e-01,9.99984e-01,4.35014e-02,9.99999e-01
4.956791449e-01,4.62799e-02,9.99999e-01,9.99991e-01,4.62803e-02,9.99999e-01
4.981575406e-01,4.91746e-02,9.99999e-01,9.99959e-01,4.91765e-02,9.99999e-01
5.006483283e-01,5.21860e-02,9.99999e-01,9.99894e-01,5.21914e-02,9.99999e-01
5.031515699e-01,5.52968e-02,9.99999e-01,9.99471e-01,5.53260e-02,9.99999e-01
5.056673278e-01,5.85651e-02,9.99999e-01,9.99721e-01,5.85814e-02,9.99999e-01
5.081956644e-01,6.19366e-02,9.99999e-01,9.99648e-01,6.19583e-02,9.99999e-01
5.107366428e-01,6.54419e-02,9.99999e-01,9.99762e-01,6.54574e-02,9.99999e-01
5.132903260e-01,6.90697e-02,9.99999e-01,9.99864e-01,6.90791e-02,9.99999e-01
5.158567776e-01,7.28195e-02,9.99999e-01,9.99942e-01,7.28236e-02,9.99999e-01
5.184360615e-01,7.66894e-02,9.99999e-01,9.99976e-01,7.66911e-02,9.99999e-01
5.210282418e-01,8.06808e-02,9.99999e-01,9.99990e-01,8.06815e-02,9.99999e-01
5.236333830e-01,8.47917e-02,9.99999e-01,9.99965e-01,8.47946e-02,9.99999e-01
5.262515499e-01,8.90279e-02,9.99999e-01,9.99978e-01,8.90298e-02,9.99999e-01
5.288828077e-01,9.33848e-02,9.99999e-01,9.99979e-01,9.33866e-02,9.99999e-01
5.315272217e-01,9.78626e-02,9.99999e-01,9.99982e-01,9.78643e-02,9.99999e-01
5.341848578e-01,1.02461e-01,9.99999e-01,9.99988e-01,1.02462e-01,9.99999e-01
5.368557821e-01,1.07174e-01,9.99999e-01,9.99959e-01,1.07178e-01,9.99999e-01
5.395400610e-01,1.11995e-01,9.99999e-01,9.99854e-01,1.12012e-01,9.99999e-01
5.422377613e-01,1.16940e-01,9.99999e-01,9.99813e-01,1.16961e-01,9.99999e-01
5.449489501e-01,1.22004e-01,9.99999e-01,9.99825e-01,1.22026e-01,9.99999e-01
5.476736949e-01,1.27183e-01,9.99999e-01,9.99846e-01,1.27203e-01,9.99999e-01
5.504120634e-01,1.32476e-01,9.99999e-01,9.99888e-01,1.32490e-01,9.99999e-01
5.531641237e-01,1.37879e-01,9.99999e-01,9.99943e-01,1.37887e-01,9.99999e-01
5.559299443e-01,1.43387e-01,9.99999e-01,9.99972e-01,1.43390e-01,9.99999e-01
5.587095940e-01,1.48996e-01,9.99999e-01,9.99982e-01,1.48998e-01,9.99999e-01
5.615031420e-01,1.54705e-01,9.99999e-01,9.99980e-01,1.54708e-01,9.99999e-01
5.643106577e-01,1.60514e-01,9.99999e-01,9.99977e-01,1.60517e-01,9.99999e-01
5.671322110e-01,1.66380e-01,9.99999e-01,9.99735e-01,1.66424e-01,9.99999e-01
5.699678720e-01,1.72376e-01,9.99999e-01,9.99723e-01,1.72424e-01,9.99999e-01
5.728177114e-01,1.78464e-01,9.99999e-01,9.99710e-01,1.78516e-01,9.99999e-01
5.756818000e-01,1.84647e-01,9.99999e-01,9.99734e-01,1.84696e-01,9.99999e-01
5.785602090e-01,1.90918e-01,9.99999e-01,9.99768e-01,1.90962e-01,9.99999e-01
5.814530100e-01,1.97265e-01,9.99999e-01,9.99767e-01,1.97311e-01,9.99999e-01
5.843602750e-01,2.03682e-01,9.99999e-01,9.99721e-01,2.03738e-01,9.99999e-01
5.872820764e-01,2.09739e-01,9.99999e-01,9.97604e-01,2.10242e-01,9.99999e-01
5.902184868e-01,2.16194e-01,9.99999e-01,9.97113e-01,2.16819e-01,9.99999e-01
5.931695792e-01,2.23010e-01,9.99999e-01,9.97956e-01,2.23466e-01,9.99999e-01
5.961354271e-01,2.29665e-01,9.99999e-01,9.97763e-01,2.30179e-01,9.99999e-01
5.991161043e-01,2.36570e-01,9.99999e-01,9.98369e-01,2.36956e-01,9.99999e-01
6.021116848e-01,2.43567e-01,9.99999e-01,9.99075e-01,2.43792e-01,9.99999e-01
6.051222432e-01,2.50567e-01,9.99999e-01,9.99531e-01,2.50684e-01,9.99999e-01
6.081478544e-01,2.57578e-01,9.99999e-01,9.99797e-01,2.57630e-01,9.99999e-01
6.111885937e-01,2.64602e-01,9.99999e-01,9.99914e-01,2.64625e-01,9.99999e-01
6.142445367e-01,2.71655e-01,9.99999e-01,9.99961e-01,2.71666e-01,9.99999e-01
6.173157594e-01,2.78743e-01,9.99999e-01,9.99978e-01,2.78749e-01,9.99999e-01
6.204023382e-01,2.85867e-01,9.99999e-01,9.99981e-01,2.85872e-01,9.99999e-01
6.235043498e-01,2.93008e-01,9.99999e-01,9.99920e-01,2.93031e-01,9.99999e-01
6.266218716e-01,3.00098e-01,9.99999e-01,9.99583e-01,3.00223e-01,9.99999e-01
6.297549810e-01,3.07397e-01,9.99999e-01,9.99847e-01,3.07444e-01,9.99999e-01
6.329037559e-01,3.14596e-01,9.99999e-01,9.99698e-01,3.14690e-01,9.99999e-01
6.360682746e-01,3.21877e-01,9.99999e-01,9.99742e-01,3.21960e-01,9.99999e-01
6.392486160e-01,3.29139e-01,9.99999e-01,9.99667e-01,3.29248e-01,9.99999e-01
6.424448591e-01,3.36403e-01,9.99999e-01,9.99552e-01,3.36553e-01,9.99999e-01
6.456570834e-01,3.43157e-01,9.99999e-01,9.97924e-01,3.43871e-01,9.99999e-01
6.488853688e-01,3.50668e-01,9.99999e-01,9.98489e-01,3.51199e-01,9.99999e-01
6.521297956e-01,3.57981e-01,9.99999e-01,9.98459e-01,3.58533e-01,9.99999e-01
6.553904446e-01,3.65309e-01,9.99999e-01,9.98463e-01,3.65871e-01,9.99999e-01
6.586673968e-01,3.72721e-01,9.99999e-01,9.98686e-01,3.73211e-01,9.99999e-01
6.619607338e-01,3.80269e-01,9.99999e-01,9.99268e-01,3.80547e-01,9.99999e-01
6.652705375e-01,3.87709e-01,9.99999e-01,9.99560e-01,3.87879e-01,9.99999e-01
6.685968902e-01,3.95130e-01,9.99999e-01,9.99813e-01,3.95204e-01,9.99999e-01
6.719398746e-01,4.02480e-01,9.99999e-01,9.99905e-01,4.02518e-01,9.99999e-01
6.752995740e-01,4.09797e-01,9.99999e-01,9.99948e-01,4.09818e-01,9.99999e-01
6.786760719e-01,4.17072e-01,9.99999e-01,9.99925e-01,4.17103e-01,9.99999e-01
6.820694522e-01,4.24316e-01,9.99999e-01,9.99872e-01,4.24370e-01,9.99999e-01
6.854797995e-01,4.31546e-01,9.99999e-01,9.99835e-01,4.31616e-01,9.99999e-01
6.889071985e-01,4.38664e-01,9.99999e-01,9.99599e-01,4.38839e-01,9.99999e-01
6.923517345e-01,4.43145e-01,9.99999e-01,9.93516e-01,4.46037e-01,9.99999e-01
6.958134932e-01,4.51694e-01,9.99999e-01,9.96662e-01,4.53207e-01,9.99999e-01
6.992925606e-01,4.58872e-01,9.99999e-01,9.96794e-01,4.60347e-01,9.99999e-01
7.027890234e-01,4.65614e-01,9.99999e-01,9.96060e-01,4.67456e-01,9.99999e-01
7.063029686e-01,4.72958e-01,9.99999e-01,9.96686e-01,4.74530e-01,9.99999e-01
7.098344834e-01,4.80038e-01,9.99999e-01,9.96820e-01,4.81569e-01,9.99999e-01
7.133836558e-01,4.86485e-01,9.99999e-01,9.95733e-01,4.88570e-01,9.99999e-01
7.169505741e-01,4.78768e-01,9.99999e-01,9.66170e-01,4.95531e-01,9.99999e-01
7.205353270e-01,4.94155e-01,9.99999e-01,9.83487e-01,5.02452e-01,9.99999e-01
7.241380036e-01,4.98582e-01,9.99999e-01,9.78899e-01,5.09329e-01,9.99999e-01
7.277586936e-01,5.06328e-01,9.99999e-01,9.80948e-01,5.16162e-01,9.99999e-01
7.313974871e-01,5.12406e-01,9.99999e-01,9.79839e-01,5.22949e-01,9.99999e-01
7.350544745e-01,5.23828e-01,9.99999e-01,9.88936e-01,5.29688e-01,9.99999e-01
7.387297469e-01,5.32010e-01,9.99999e-01,9.91855e-01,5.36379e-01,9.99999e-01
7.424233956e-01,5.40855e-01,9.99999e-01,9.96013e-01,5.43019e-01,9.99999e-01
7.461355126e-01,5.48279e-01,9.99999e-01,9.97581e-01,5.49608e-01,9.99999e-01
7.498661902e-01,5.55519e-01,9.99999e-01,9.98874e-01,5.56145e-01,9.99999e-01
7.536155211e-01,5.62317e-01,9.99999e-01,9.99447e-01,5.62627e-01,9.99999e-01
7.573835987e-01,5.68894e-01,9.99999e-01,9.99715e-01,5.69055e-01,9.99999e-01
7.611705167e-01,5.75326e-01,9.99999e-01,9.99822e-01,5.75428e-01,9.99999e-01
7.649763693e-01,5.81679e-01,9.99999e-01,9.99888e-01,5.81744e-01,9.99999e-01
7.688012511e-01,5.87957e-01,9.99999e-01,9.99922e-01,5.88002e-01,9.99999e-01
7.726452574e-01,5.94164e-01,9.99999e-01,9.99935e-01,5.94202e-01,9.99999e-01
7.765084837e-01,6.00289e-01,9.99999e-01,9.99908e-01,6.00343e-01,9.99999e-01
7.803910261e-01,5.91086e-01,9.75080e-01,9.99607e-01,6.06424e-01,9.99999e-01
7.842929812e-01,5.49910e-01,8.99080e-01,9.98629e-01,6.12445e-01,9.99999e-01
7.882144461e-01,5.49935e-01,8.91711e-01,9.97191e-01,6.18405e-01,9.99999e-01
7.921555184e-01,5.83397e-01,9.35889e-01,9.98463e-01,6.24304e-01,9.99999e-01
7.961162960e-01,6.01332e-01,9.56878e-01,9.97268e-01,6.30141e-01,9.99999e-01
8.000968774e-01,6.18942e-01,9.76371e-01,9.96855e-01,6.35915e-01,9.99999e-01
8.040973618e-01,6.31759e-01,9.87724e-01,9.96852e-01,6.41627e-01,9.99999e-01
8.081178486e-01,6.39035e-01,9.94334e-01,9.92886e-01,6.47275e-01,9.99999e-01
8.121584379e-01,6.32601e-01,9.98256e-01,9.70647e-01,6.52861e-01,9.99999e-01
8.162192301e-01,6.35368e-01,9.99614e-01,9.65410e-01,6.58383e-01,9.99999e-01
8.203003262e-01,6.52147e-01,9.99994e-01,9.82389e-01,6.63841e-01,9.99998e-01
8.244018279e-01,6.53013e-01,9.99999e-01,9.75761e-01,6.69235e-01,9.99998e-01
8.285238370e-01,6.60516e-01,9.99999e-01,9.79173e-01,6.74565e-01,9.99999e-01
8.326664562e-01,6.65546e-01,9.99999e-01,9.78987e-01,6.79831e-01,9.99999e-01
8.368297885e-01,6.74745e-01,9.99999e-01,9.84981e-01,6.85033e-01,9.99999e-01
8.410139374e-01,6.83999e-01,9.99999e-01,9.91057e-01,6.90171e-01,9.99999e-01
8.452190071e-01,6.92193e-01,9.99999e-01,9.95610e-01,6.95244e-01,9.99999e-01
8.494451021e-01,6.98467e-01,9.99999e-01,9.97447e-01,7.00254e-01,9.99999e-01
8.536923276e-01,7.04137e-01,9.99999e-01,9.98492e-01,7.05200e-01,9.99999e-01
8.579607893e-01,7.09422e-01,9.99999e-01,9.99069e-01,7.10082e-01,9.99999e-01
8.622505932e-01,7.14479e-01,9.99999e-01,9.99409e-01,7.14900e-01,9.99999e-01
8.665618462e-01,6.75834e-01,9.39439e-01,9.99634e-01,7.19655e-01,9.99999e-01
8.708946554e-01,5.50907e-01,7.60866e-01,9.99580e-01,7.24347e-01,9.99999e-01
8.752491287e-01,5.85791e-01,8.04021e-01,9.99439e-01,7.28976e-01,9.99999e-01
8.796253743e-01,6.50730e-01,8.87783e-01,9.99222e-01,7.33542e-01,9.99999e-01
8.840235012e-01,6.93385e-01,9.40314e-01,9.99112e-01,7.38045e-01,9.99999e-01
8.884436187e-01,7.22400e-01,9.76117e-01,9.96729e-01,7.42487e-01,9.99999e-01
8.928858368e-01,7.14622e-01,9.90254e-01,9.66186e-01,7.46866e-01,9.99999e-01
8.973502660e-01,7.05351e-01,9.97633e-01,9.41181e-01,7.51184e-01,9.99998e-01
9.018370173e-01,7.32325e-01,9.99739e-01,9.69647e-01,7.55442e-01,9.99998e-01
9.063462024e-01,7.34223e-01,9.93175e-01,9.73039e-01,7.59638e-01,9.99998e-01
9.108779334e-01,7.20834e-01,9.84639e-01,9.58374e-01,7.63774e-01,9.99998e-01
9.154323231e-01,7.29108e-01,9.96395e-01,9.52927e-01,7.67851e-01,9.99998e-01
9.200094847e-01,7.04912e-01,9.47022e-01,9.62970e-01,7.71868e-01,9.99997e-01
9.246095321e-01,6.77858e-01,9.26911e-01,9.41668e-01,7.75826e-01,9.99996e-01
9.292325798e-01,4.94001e-01,9.41750e-01,6.69509e-01,7.79725e-01,9.99993e-01
9.338787427e-01,4.43633e-01,9.44065e-01,5.96953e-01,7.83567e-01,9.99992e-01
9.385481364e-01,6.14431e-01,9.58626e-01,8.12609e-01,7.87351e-01,9.99992e-01
9.432408771e-01,5.76265e-01,9.74527e-01,7.46709e-01,7.91078e-01,9.99991e-01
9.479570815e-01,5.23446e-01,9.86836e-01,6.67050e-01,7.94748e-01,9.99992e-01
9.526968669e-01,5.87827e-01,9.93639e-01,7.40692e-01,7.98363e-01,9.99994e-01
9.574603512e-01,6.08160e-01,9.97277e-01,7.60351e-01,8.01922e-01,9.99995e-01
9.622476530e-01,6.44493e-01,9.99150e-01,8.00841e-01,8.05426e-01,9.99996e-01
9.670588912e-01,7.11544e-01,9.99745e-01,8.79886e-01,8.08876e-01,9.99997e-01
9.718941857e-01,7.49946e-01,9.99981e-01,9.23286e-01,8.12272e-01,9.99998e-01
9.767536566e-01,7.63332e-01,9.99999e-01,9.35898e-01,8.15615e-01,9.99998e-01
9.816374249e-01,7.79754e-01,9.99999e-01,9.52191e-01,8.18905e-01,9.99999e-01
9.865456120e-01,7.97379e-01,9.99999e-01,9.69878e-01,8.22143e-01,9.99999e-01
9.914783401e-01,8.09877e-01,9.99999e-01,9.81276e-01,8.25329e-01,9.99999e-01
9.964357318e-01,8.19985e-01,9.99999e-01,9.89763e-01,8.28465e-01,9.99999e-01
1.001417910e+00,8.26441e-01,9.99999e-01,9.93855e-01,8.31550e-01,9.99999e-01
1.006425000e+00,8.31656e-01,9.99999e-01,9.96489e-01,8.34585e-01,9.99999e-01
1.011457125e+00,8.35749e-01,9.99999e-01,9.97823e-01,8.37571e-01,9.99999e-01
1.016514411e+00,8.39266e-01,9.99999e-01,9.98520e-01,8.40509e-01,9.99999e-01
1.021596983e+00,8.42372e-01,9.99960e-01,9.98820e-01,8.43399e-01,9.99999e-01
1.026704968e+00,8.43210e-01,9.97334e-01,9.99079e-01,8.46241e-01,9.99999e-01
1.031838492e+00,8.17713e-01,9.63733e-01,9.99331e-01,8.49036e-01,9.99999e-01
1.036997685e+00,1.78430e-01,2.09546e-01,9.99602e-01,8.51785e-01,9.99999e-01
1.042182673e+00,1.86704e-01,2.18593e-01,9.99525e-01,8.54488e-01,9.99999e-01
1.047393587e+00,1.89753e-01,2.21502e-01,9.99371e-01,8.57146e-01,9.99999e-01
1.052630555e+00,1.37184e-02,1.59666e-02,9.99136e-01,8.59760e-01,9.99999e-01
1.057893707e+00,2.99858e-02,3.48096e-02,9.98557e-01,8.62330e-01,9.99999e-01
1.063183176e+00,7.40690e-02,8.57986e-02,9.97628e-01,8.64857e-01,9.99999e-01
1.068499092e+00,1.62072e-01,1.87514e-01,9.96033e-01,8.67341e-01,9.99999e-01
1.073841587e+00,3.01841e-01,3.48462e-01,9.95353e-01,8.69782e-01,9.99999e-01
1.079210795e+00,4.45325e-01,5.13441e-01,9.94060e-01,8.72182e-01,9.99999e-01
1.084606849e+00,6.01935e-01,6.94323e-01,9.91010e-01,8.74542e-01,9.99999e-01
1.090029883e+00,7.16494e-01,8.27613e-01,9.87062e-01,8.76860e-01,9.99999e-01
1.095480033e+00,7.73299e-01,9.11110e-01,9.65166e-01,8.79139e-01,9.99998e-01
1.100957433e+00,7.70296e-01,9.56168e-01,9.13731e-01,8.81379e-01,9.99997e-01
1.106462220e+00,6.89229e-01,9.81657e-01,7.94236e-01,8.83580e-01,9.99996e-01
1.111994531e+00,5.42381e-01,9.93163e-01,6.16343e-01,8.85743e-01,9.99992e-01
1.117554504e+00,4.04791e-01,9.98331e-01,4.56573e-01,8.87868e-01,9.99990e-01
1.123142276e+00,4.98887e-01,9.99890e-01,5.60617e-01,8.89956e-01,9.99988e-01
1.128757988e+00,6.16271e-01,9.99999e-01,6.90888e-01,8.92008e-01,9.99987e-01
1.134401778e+00,3.89505e-01,9.99999e-01,4.35682e-01,8.94024e-01,9.99985e-01
1.140073787e+00,7.19237e-01,9.99999e-01,8.02724e-01,8.96004e-01,9.99988e-01
1.145774156e+00,5.67313e-01,9.99999e-01,6.31792e-01,8.97950e-01,9.99990e-01
1.151503026e+00,5.38710e-01,9.99999e-01,5.98663e-01,8.99861e-01,9.99991e-01
1.157260541e+00,5.89472e-01,9.99999e-01,6.53709e-01,9.01738e-01,9.99993e-01
1.163046844e+00,6.60427e-01,9.99999e-01,7.30901e-01,9.03583e-01,9.99995e-01
1.168862078e+00,7.28627e-01,9.99999e-01,8.04764e-01,9.05394e-01,9.99997e-01
1.174706389e+00,7.93374e-01,9.99999e-01,8.74557e-01,9.07173e-01,9.99998e-01
1.180579921e+00,8.37734e-01,9.99999e-01,9.21680e-01,9.08920e-01,9.99998e-01
1.186482820e+00,8.69634e-01,9.99993e-01,9.54979e-01,9.10636e-01,9.99998e-01
1.192415234e+00,8.79705e-01,9.90445e-01,9.73476e-01,9.12322e-01,9.99999e-01
1.198377311e+00,5.11889e-01,5.70800e-01,9.77576e-01,9.13977e-01,9.99999e-01
1.204369197e+00,1.53812e-08,1.70083e-08,9.78771e-01,9.15602e-01,9.99999e-01
1.210391043e+00,2.96530e-29,3.26999e-29,9.79697e-01,9.17198e-01,9.99999e-01
1.216442998e+00,1.50201e-25,1.65254e-25,9.82723e-01,9.18765e-01,9.99999e-01
1.222525213e+00,3.45839e-25,3.78427e-25,9.86522e-01,9.20304e-01,9.99999e-01
1.228637839e+00,1.79667e-19,1.96200e-19,9.90620e-01,9.21815e-01,9.99999e-01
1.234781029e+00,5.42911e-13,5.89797e-13,9.93032e-01,9.23299e-01,9.99999e-01
1.240954934e+00,8.45900e-09,9.17398e-09,9.95587e-01,9.24755e-01,9.99999e-01
1.247159708e+00,3.50242e-05,3.78997e-05,9.96564e-01,9.26185e-01,9.99999e-01
1.253395507e+00,2.78458e-03,3.00912e-03,9.96946e-01,9.27589e-01,9.99999e-01
1.259662485e+00,3.36480e-02,3.63093e-02,9.97096e-01,9.28967e-01,9.99999e-01
1.265960797e+00,1.35722e-01,1.46463e-01,9.95368e-01,9.30320e-01,9.99999e-01
1.272290601e+00,4.16213e-01,4.49819e-01,9.92718e-01,9.31648e-01,9.99999e-01
1.278652054e+00,3.57120e-01,3.87445e-01,9.85566e-01,9.32952e-01,9.99999e-01
1.285045314e+00,1.23825e-02,1.34147e-02,9.73937e-01,9.34232e-01,9.99999e-01
1.291470541e+00,3.80359e-04,4.19724e-04,9.55012e-01,9.35488e-01,9.99998e-01
1.297927893e+00,2.54982e-02,2.82935e-02,9.36564e-01,9.36721e-01,9.99997e-01
1.304417533e+00,2.04555e-01,2.34218e-01,9.25683e-01,9.37932e-01,9.99996e-01
1.310939621e+00,3.62968e-02,4.07721e-02,9.06974e-01,9.39119e-01,9.99994e-01
1.317494319e+00,1.36549e-10,1.54043e-10,9.08632e-01,9.40285e-01,9.99991e-01
1.324081790e+00,1.53606e-07,1.75306e-07,8.65974e-01,9.41430e-01,9.99985e-01
1.330702199e+00,1.39904e-04,2.04933e-04,5.50602e-01,9.42553e-01,9.99976e-01
1.337355710e+00,6.69659e-05,1.85348e-04,2.25298e-01,9.43655e-01,9.99955e-01
1.344042489e+00,1.07035e-05,5.41930e-05,2.18117e-02,9.44736e-01,9.99906e-01
1.350762701e+00,1.83900e-07,1.42469e-04,4.68642e-04,9.45798e-01,9.99850e-01
1.357516515e+00,2.45353e-07,3.15703e-03,2.85526e-05,9.46839e-01,9.99815e-01
1.364304097e+00,4.09203e-05,2.56905e-02,1.02095e-03,9.47862e-01,9.99801e-01
1.371125618e+00,1.87875e-03,1.46400e-01,9.65495e-03,9.48865e-01,9.99800e-01
1.377981246e+00,4.50402e-03,2.11005e-01,1.91620e-02,9.49849e-01,9.99785e-01
1.384871152e+00,4.39369e-04,4.04504e-01,9.79092e-04,9.50815e-01,9.99791e-01
1.391795508e+00,6.64787e-04,4.33497e-01,1.39782e-03,9.51762e-01,9.99823e-01
1.398754485e+00,2.29834e-03,5.97623e-01,3.86028e-03,9.52692e-01,9.99847e-01
1.405748258e+00,2.40239e-03,6.84333e-01,3.45634e-03,9.53605e-01,9.99863e-01
1.412776999e+00,2.97902e-03,7.87210e-01,3.80287e-03,9.54500e-01,9.99890e-01
1.419840884e+00,4.41813e-03,7.14663e-01,5.50068e-03,9.55378e-01,9.99917e-01
1.426940089e+00,4.75291e-03,8.10553e-02,1.69798e-02,9.56240e-01,9.99949e-01
1.434074789e+00,0.00000e+00,0.00000e+00,4.44338e-02,9.57086e-01,9.99968e-01
1.441245163e+00,0.00000e+00,0.00000e+00,9.39774e-02,9.57915e-01,9.99975e-01
1.448451389e+00,0.00000e+00,0.00000e+00,1.85036e-01,9.58729e-01,9.99979e-01
1.455693646e+00,2.33649e-230,4.28957e-230,3.31818e-01,9.59527e-01,9.99982e-01
1.462972114e+00,4.33480e-112,7.95177e-112,3.87352e-01,9.60311e-01,9.99985e-01
1.470286975e+00,1.30696e-47,2.50567e-47,3.30336e-01,9.61079e-01,9.99986e-01
