#,Wave/freq,Total,CO2,H2O,Rayleigh,CIA
4.000000000e-01,2.98644e-15,9.99999e-01,9.99934e-01,2.98664e-15,9.99999e-01
4.020000000e-01,5.78581e-15,9.99999e-01,9.99958e-01,5.78604e-15,9.99999e-01
4.040100000e-01,1.10561e-14,9.99999e-01,9.99982e-01,1.10563e-14,9.99999e-01
4.060300500e-01,2.08584e-14,9.99999e-01,9.99995e-01,2.08585e-14,9.99999e-01
4.080602003e-01,3.88607e-14,9.99999e-01,9.99998e-01,3.88607e-14,9.99999e-01
4.101005013e-01,7.15157e-14,9.99999e-01,9.99999e-01,7.15157e-14,9.99999e-01
4.121510038e-01,1.30035e-13,9.99999e-01,9.99997e-01,1.30035e-13,9.99999e-01
4.142117588e-01,2.33658e-13,9.99999e-01,9.99981e-01,2.33662e-13,9.99999e-01
4.162828176e-01,4.15007e-13,9.99999e-01,9.99918e-01,4.15041e-13,9.99999e-01
4.183642317e-01,7.28858e-13,9.99999e-01,9.99951e-01,7.28893e-13,9.99999e-01
4.204560528e-01,1.26588e-12,9.99999e-01,9.99969e-01,1.26592e-12,9.99999e-01
4.225583331e-01,2.17475e-12,9.99999e-01,9.99988e-01,2.17477e-12,9.99999e-01
4.246711247e-01,3.69636e-12,9.99999e-01,9.99990e-01,3.69639e-12,9.99999e-01
4.267944804e-01,6.21709e-12,9.99999e-01,9.99986e-01,6.21717e-12,9.99999e-01
4.289284528e-01,1.03501e-11,9.99999e-01,9.99989e-01,1.03502e-11,9.99999e-01
4.310730950e-01,1.70580e-11,9.99999e-01,9.99995e-01,1.70580e-11,9.99999e-01
4.332284605e-01,2.78372e-11,9.99999e-01,9.99998e-01,2.78372e-11,9.99999e-01
4.353946028e-01,4.49904e-11,9.99999e-01,9.99999e-01,4.49904e-11,9.99999e-01
4.375715758e-01,7.20267e-11,9.99999e-01,9.99991e-01,7.20272e-11,9.99999e-01
4.397594337e-01,1.14237e-10,9.99999e-01,9.99928e-01,1.14245e-10,9.99999e-01
4.419582309e-01,1.79499e-10,9.99999e-01,9.99640e-01,1.79564e-10,9.99999e-01
4.441680220e-01,2.79640e-10,9.99999e-01,9.99716e-01,2.79719e-10,9.99999e-01
4.463888621e-01,4.31813e-10,9.99999e-01,9.99705e-01,4.31939e-10,9.99999e-01
4.486208064e-01,6.61176e-10,9.99999e-01,9.99816e-01,6.61297e-10,9.99999e-01
4.508639105e-01,1.00387e-09,9.99999e-01,9.99913e-01,1.00396e-09,9.99999e-01
4.531182300e-01,1.51161e-09,9.99999e-01,9.99965e-01,1.51166e-09,9.99999e-01
4.553838212e-01,2.25773e-09,9.99999e-01,9.99976e-01,2.25778e-09,9.99999e-01
4.576607403e-01,3.34552e-09,9.99999e-01,9.99988e-01,3.34556e-09,9.99999e-01
4.599490440e-01,4.91901e-09,9.99999e-01,9.99992e-01,4.91905e-09,9.99999e-01
4.622487892e-01,7.17772e-09,9.99999e-01,9.99998e-01,7.17773e-09,9.99999e-01
4.645600332e-01,1.03956e-08,9.99999e-01,9.99994e-01,1.03957e-08,9.99999e-01
4.668828333e-01,1.49452e-08,9.99999e-01,9.99913e-01,1.49465e-08,9.99999e-01
4.692172475e-01,2.13320e-08,9.99999e-01,9.99815e-01,2.13359e-08,9.99999e-01
4.715633337e-01,3.02397e-08,9.99999e-01,9.99879e-01,3.02434e-08,9.99999e-01
4.739211504e-01,4.25702e-08,9.99999e-01,9.99884e-01,4.25751e-08,9.99999e-01
4.762907561e-01,5.95282e-08,9.99999e-01,9.99939e-01,5.95317e-08,9.99999e-01
4.786722099e-01,8.26903e-08,9.99999e-01,9.99975e-01,8.26923e-08,9.99999e-01
4.810655710e-01,1.14119e-07,9.99999e-01,9.99992e-01,1.14120e-07,9.99999e-01
4.834708988e-01,1.56483e-07,9.99999e-01,9.99929e-01,1.56494e-07,9.99999e-01
4.858882533e-01,2.13239e-07,9.99999e-01,9.99868e-01,2.13266e-07,9.99999e-01
4.883176946e-01,2.88832e-07,9.99999e-01,9.99890e-01,2.88864e-07,9.99999e-01
4.907592831e-01,3.88882e-07,9.99999e-01,9.99900e-01,3.88920e-07,9.99999e-01
4.932130795e-01,5.20530e-07,9.99999e-01,9.99929e-01,5.20567e-07,9.99999e-01
4.956791449e-01,6.92749e-07,9.99999e-01,9.99962e-01,6.92774e-07,9.99999e-01
4.981575406e-01,9.16590e-07,9.99999e-01,9.99814e-01,9.16759e-07,9.99999e-01
5.006483283e-01,1.20589e-06,9.99999e-01,9.99521e-01,1.20647e-06,9.99999e-01
5.031515699e-01,1.57530e-06,9.99999e-01,9.97570e-01,1.57914e-06,9.99999e-01
5.056673278e-01,2.05333e-06,9.99999e-01,9.98715e-01,2.05597e-06,9.99999e-01
5.081956644e-01,2.65854e-06,9.99999e-01,9.98379e-01,2.66286e-06,9.99999e-01
5.107366428e-01,3.42756e-06,9.99999e-01,9.98904e-01,3.43132e-06,9.99999e-01
5.132903260e-01,4.39671e-06,9.99999e-01,9.99373e-01,4.39946e-06,9.99999e-01
5.158567776e-01,5.61165e-06,9.99999e-01,9.99734e-01,5.61314e-06,9.99999e-01
5.184360615e-01,7.12649e-06,9.99999e-01,9.99893e-01,7.12725e-06,9.99999e-01
5.210282418e-01,9.00683e-06,9.99999e-01,9.99960e-01,9.00719e-06,9.99999e-01
5.236333830e-01,1.13287e-05,9.99999e-01,9.99841e-01,1.13305e-05,9.99999e-01
5.262515499e-01,1.41872e-05,9.99999e-01,9.99900e-01,1.41886e-05,9.99999e-01
5.288828077e-01,1.76873e-05,9.99999e-01,9.99908e-01,1.76889e-05,9.99999e-01
5.315272217e-01,2.19551e-05,9.99999e-01,9.99919e-01,2.19569e-05,9.99999e-01
5.341848578e-01,2.71371e-05,9.99999e-01,9.99947e-01,2.71385e-05,9.99999e-01
5.368557821e-01,3.33967e-05,9.99999e-01,9.99815e-01,3.34029e-05,9.99999e-01
5.395400610e-01,4.09178e-05,9.99999e-01,9.99336e-01,4.09449e-05,9.99999e-01
5.422377613e-01,4.99454e-05,9.99999e-01,9.99137e-01,4.99885e-05,9.99999e-01
5.449489501e-01,6.07408e-05,9.99999e-01,9.99200e-01,6.07894e-05,9.99999e-01
5.476736949e-01,7.35867e-05,9.99999e-01,9.99289e-01,7.36390e-05,9.99999e-01
5.504120634e-01,8.88217e-05,9.99999e-01,9.99484e-01,8.88675e-05,9.99999e-01
5.531641237e-01,1.06820e-04,9.99999e-01,9.99740e-01,1.06848e-04,9.99999e-01
5.559299443e-01,1.27983e-04,9.99999e-01,9.99874e-01,1.27999e-04,9.99999e-01
5.587095940e-01,1.52780e-04,9.99999e-01,9.99921e-01,1.52791e-04,9.99999e-01
5.615031420e-01,1.81733e-04,9.99999e-01,9.99912e-01,1.81749e-04,9.99999e-01
5.643106577e-01,2.15434e-04,9.99999e-01,9.99901e-01,2.15455e-04,9.99999e-01
5.671322110e-01,2.54252e-04,9.99999e-01,9.98806e-01,2.54556e-04,9.99999e-01
5.699678720e-01,2.99378e-04,9.99999e-01,9.98715e-01,2.99762e-04,9.99999e-01
5.728177114e-01,3.51392e-04,9.99999e-01,9.98668e-01,3.51860e-04,9.99999e-01
5.756818000e-01,4.11203e-04,9.99999e-01,9.98777e-01,4.11706e-04,9.99999e-01
5.785602090e-01,4.79727e-04,9.99999e-01,9.98933e-01,4.80239e-04,9.99999e-01
5.814530100e-01,5.57882e-04,9.99999e-01,9.98929e-01,5.58479e-04,9.99999e-01
5.843602750e-01,6.46710e-04,9.99999e-01,9.98728e-01,6.47533e-04,9.99999e-01
5.872820764e-01,7.40432e-04,9.99999e-01,9.89094e-01,7.48596e-04,9.99999e-01
5.902184868e-01,8.51507e-04,9.99999e-01,9.86733e-01,8.62956e-04,9.99999e-01
5.931695792e-01,9.82703e-04,9.99999e-01,9.90630e-01,9.91997e-04,9.99999e-01
5.961354271e-01,1.12551e-03,9.99999e-01,9.89718e-01,1.13720e-03,9.99999e-01
5.991161043e-01,1.29037e-03,9.99999e-01,9.92486e-01,1.30014e-03,9.99999e-01
6.021116848e-01,1.47617e-03,9.99999e-01,9.95727e-01,1.48251e-03,9.99999e-01
6.051222432e-01,1.68243e-03,9.99999e-01,9.97835e-01,1.68608e-03,9.99999e-01
6.081478544e-01,1.91094e-03,9.99999e-01,9.99066e-01,1.91273e-03,9.99999e-01
6.111885937e-01,2.16359e-03,9.99999e-01,9.99604e-01,2.16445e-03,9.99999e-01
6.142445367e-01,2.44289e-03,9.99999e-01,9.99823e-01,2.44332e-03,9.99999e-01
6.173157594e-01,2.75126e-03,9.99999e-01,9.99902e-01,2.75153e-03,9.99999e-01
6.204023382e-01,3.09110e-03,9.99999e-01,9.99917e-01,3.09136e-03,9.99999e-01
6.235043498e-01,3.46393e-03,9.99999e-01,9.99640e-01,3.46517e-03,9.99999e-01
6.266218716e-01,3.86802e-03,9.99999e-01,9.98084e-01,3.87544e-03,9.99999e-01
6.297549810e-01,4.32168e-03,9.99999e-01,9.99297e-01,4.32472e-03,9.99999e-01
6.329037559e-01,4.80894e-03,9.99999e-01,9.98609e-01,4.81564e-03,9.99999e-01
6.360682746e-01,5.34458e-03,9.99999e-01,9.98817e-01,5.35090e-03,9.99999e-01
6.392486160e-01,5.92420e-03,9.99999e-01,9.98466e-01,5.93330e-03,9.99999e-01
6.424448591e-01,6.55225e-03,9.99999e-01,9.97956e-01,6.56567e-03,9.99999e-01
6.456570834e-01,7.18234e-03,9.99999e-01,9.90541e-01,7.25092e-03,9.99999e-01
6.488853688e-01,7.93636e-03,9.99999e-01,9.93037e-01,7.99201e-03,9.99999e-01
6.521297956e-01,8.72953e-03,9.99999e-01,9.92904e-01,8.79192e-03,9.99999e-01
6.553904446e-01,9.58588e-03,9.99999e-01,9.92976e-01,9.65368e-03,9.99999e-01
6.586673968e-01,1.05163e-02,9.99999e-01,9.93945e-01,1.05804e-02,9.99999e-01
6.619607338e-01,1.15344e-02,9.99999e-01,9.96494e-01,1.15750e-02,9.99999e-01
6.652705375e-01,1.26150e-02,9.99999e-01,9.97967e-01,1.26407e-02,9.99999e-01
6.685968902e-01,1.37675e-02,9.99999e-01,9.99055e-01,1.37805e-02,9.99999e-01
6.719398746e-01,1.49910e-02,9.99999e-01,9.99561e-01,1.49975e-02,9.99999e-01
6.752995740e-01,1.62909e-02,9.99999e-01,9.99762e-01,1.62948e-02,9.99999e-01
6.786760719e-01,1.76692e-02,9.99999e-01,9.99658e-01,1.76752e-02,9.99999e-01
6.820694522e-01,1.91307e-02,9.99999e-01,9.99415e-01,1.91418e-02,9.99999e-01
6.854797995e-01,2.06820e-02,9.99999e-01,9.99246e-01,2.06975e-02,9.99999e-01
6.889071985e-01,2.23047e-02,9.99999e-01,9.98188e-01,2.23452e-02,9.99999e-01
6.923517345e-01,2.33818e-02,9.99999e-01,9.70702e-01,2.40875e-02,9.99999e-01
6.958134932e-01,2.55263e-02,9.99999e-01,9.84540e-01,2.59272e-02,9.99999e-01
6.992925606e-01,2.74601e-02,9.99999e-01,9.85406e-01,2.78668e-02,9.99999e-01
7.027890234e-01,2.93690e-02,9.99999e-01,9.81948e-01,2.99089e-02,9.99999e-01
7.063029686e-01,3.15686e-02,9.99999e-01,9.84800e-01,3.20558e-02,9.99999e-01
7.098344834e-01,3.38093e-02,9.99999e-01,9.85409e-01,3.43099e-02,9.99999e-01
7.133836558e-01,3.59664e-02,9.99999e-01,9.80729e-01,3.66732e-02,9.99998e-01
7.169505741e-01,3.35177e-02,9.99999e-01,8.56187e-01,3.91477e-02,9.99997e-01
7.205353270e-01,3.86490e-02,9.99999e-01,9.26051e-01,4.17353e-02,9.99997e-01
7.241380036e-01,4.03238e-02,9.99999e-01,9.07422e-01,4.44378e-02,9.99997e-01
7.277586936e-01,4.32898e-02,9.99999e-01,9.16059e-01,4.72566e-02,9.99997e-01
7.313974871e-01,4.57004e-02,9.99999e-01,9.10490e-01,5.01932e-02,9.99998e-01
7.350544745e-01,5.05881e-02,9.99999e-01,9.50031e-01,5.32489e-02,9.99998e-01
7.387297469e-01,5.43325e-02,9.99999e-01,9.62920e-01,5.64247e-02,9.99999e-01
7.424233956e-01,5.86260e-02,9.99999e-01,9.81657e-01,5.97215e-02,9.99999e-01
7.461355126e-01,6.24361e-02,9.99999e-01,9.88850e-01,6.31401e-02,9.99999e-01
7.498661902e-01,6.63335e-02,9.99999e-01,9.94787e-01,6.66810e-02,9.99999e-01
7.536155211e-01,7.01648e-02,9.99999e-01,9.97443e-01,7.03446e-02,9.99999e-01
7.573835987e-01,7.40336e-02,9.99999e-01,9.98682e-01,7.41312e-02,9.99999e-01
7.611705167e-01,7.79768e-02,9.99999e-01,9.99181e-01,7.80407e-02,9.99999e-01
7.649763693e-01,8.20310e-02,9.99999e-01,9.99487e-01,8.20730e-02,9.99999e-01
7.688012511e-01,8.61971e-02,9.99999e-01,9.99642e-01,8.62279e-02,9.99999e-01
7.726452574e-01,9.04782e-02,9.99999e-01,9.99706e-01,9.05047e-02,9.99999e-01
7.765084837e-01,9.48635e-02,9.99999e-01,9.99584e-01,9.49029e-02,9.99999e-01
7.803910261e-01,9.05790e-02,9.12564e-01,9.98205e-01,9.94216e-02,9.99999e-01
7.842929812e-01,6.52801e-02,6.30784e-01,9.93750e-01,1.04060e-01,9.99999e-01
7.882144461e-01,6.62294e-02,6.15754e-01,9.87116e-01,1.08816e-01,9.99999e-01
7.921555184e-01,8.37610e-02,7.41661e-01,9.92902e-01,1.13690e-01,9.99999e-01
7.961162960e-01,9.56972e-02,8.16228e-01,9.87548e-01,1.18679e-01,9.99999e-01
8.000968774e-01,1.09283e-01,8.95660e-01,9.85584e-01,1.23782e-01,9.99999e-01
8.040973618e-01,1.20070e-01,9.44317e-01,9.85591e-01,1.28997e-01,9.99999e-01
8.081178486e-01,1.26663e-01,9.74060e-01,9.67952e-01,1.34322e-01,9.99998e-01
8.121584379e-01,1.21127e-01,9.91889e-01,8.73573e-01,1.39755e-01,9.99997e-01
8.162192301e-01,1.23500e-01,9.98203e-01,8.51438e-01,1.45295e-01,9.99997e-01
8.203003262e-01,1.39568e-01,9.99971e-01,9.24694e-01,1.50938e-01,9.99997e-01
8.244018279e-01,1.40409e-01,9.99999e-01,8.96141e-01,1.56682e-01,9.99997e-01
8.285238370e-01,1.47630e-01,9.99999e-01,9.08357e-01,1.62524e-01,9.99997e-01
8.326664562e-01,1.52860e-01,9.99999e-01,9.07380e-01,1.68463e-01,9.99998e-01
8.368297885e-01,1.62734e-01,9.99999e-01,9.32599e-01,1.74495e-01,9.99998e-01
8.410139374e-01,1.73274e-01,9.99999e-01,9.59341e-01,1.80618e-01,9.99999e-01
8.452190071e-01,1.83059e-01,9.99999e-01,9.79830e-01,1.86828e-01,9.99999e-01
8.494451021e-01,1.90856e-01,9.99999e-01,9.88263e-01,1.93122e-01,9.99999e-01
8.536923276e-01,1.98108e-01,9.99999e-01,9.93034e-01,1.99498e-01,9.99999e-01
8.579607893e-01,2.05069e-01,9.99999e-01,9.95710e-01,2.05952e-01,9.99999e-01
8.622505932e-01,2.11902e-01,9.99999e-01,9.97270e-01,2.12481e-01,9.99999e-01
8.665618462e-01,1.90036e-01,8.68785e-01,9.98313e-01,2.19083e-01,9.99999e-01
8.708946554e-01,7.29216e-02,3.23585e-01,9.98071e-01,2.25753e-01,9.99999e-01
8.752491287e-01,9.02542e-02,3.89142e-01,9.97419e-01,2.32488e-01,9.99999e-01
8.796253743e-01,1.40061e-01,5.87255e-01,9.96432e-01,2.39285e-01,9.99999e-01
8.840235012e-01,1.85053e-01,7.54755e-01,9.95924e-01,2.46141e-01,9.99999e-01
8.884436187e-01,2.23055e-01,8.94165e-01,9.85359e-01,2.53051e-01,9.99998e-01
8.928858368e-01,2.13097e-01,9.55621e-01,8.56560e-01,2.60014e-01,9.99997e-01
8.973502660e-01,2.00968e-01,9.89004e-01,7.60467e-01,2.67025e-01,9.99996e-01
9.018370173e-01,2.37975e-01,9.98781e-01,8.69228e-01,2.74081e-01,9.99995e-01
9.063462024e-01,2.41928e-01,9.70162e-01,8.84297e-01,2.81179e-01,9.99994e-01
9.108779334e-01,2.22123e-01,9.31080e-01,8.25294e-01,2.88314e-01,9.99994e-01
9.154323231e-01,2.33652e-01,9.83303e-01,8.03299e-01,2.95485e-01,9.99994e-01
9.200094847e-01,2.11440e-01,8.10321e-01,8.42658e-01,3.02687e-01,9.99992e-01
9.246095321e-01,1.71849e-01,7.06742e-01,7.73084e-01,3.09917e-01,9.99987e-01
9.292325798e-01,5.07784e-02,7.66475e-01,1.97186e-01,3.17172e-01,9.99973e-01
9.338787427e-01,3.20089e-02,7.70121e-01,1.21343e-01,3.24448e-01,9.99966e-01
9.385481364e-01,1.18853e-01,8.23985e-01,4.23354e-01,3.31743e-01,9.99965e-01
9.432408771e-01,9.71801e-02,8.87479e-01,3.18103e-01,3.39052e-01,9.99961e-01
9.479570815e-01,6.71577e-02,9.40594e-01,2.04590e-01,3.46374e-01,9.99966e-01
9.526968669e-01,1.00831e-01,9.70909e-01,2.91978e-01,3.53704e-01,9.99974e-01
9.574603512e-01,1.10464e-01,9.87440e-01,3.09173e-01,3.61040e-01,9.99980e-01
9.622476530e-01,1.38766e-01,9.96063e-01,3.77940e-01,3.68379e-01,9.99986e-01
9.670588912e-01,2.13118e-01,9.98817e-01,5.67805e-01,3.75718e-01,9.99991e-01
9.718941857e-01,2.66499e-01,9.99915e-01,6.95773e-01,3.83053e-01,9.99994e-01
9.767536566e-01,2.88752e-01,9.99999e-01,7.39665e-01,3.90383e-01,9.99996e-01
9.816374249e-01,3.17636e-01,9.99999e-01,7.98676e-01,3.97704e-01,9.99997e-01
9.865456120e-01,3.51787e-01,9.99999e-01,8.68581e-01,4.05014e-01,9.99998e-01
9.914783401e-01,3.77858e-01,9.99999e-01,9.16443e-01,4.12309e-01,9.99999e-01
9.964357318e-01,4.00111e-01,9.99999e-01,9.53580e-01,4.19588e-01,9.99999e-01
1.001417910e+00,4.14853e-01,9.99999e-01,9.71898e-01,4.26848e-01,9.99999e-01
1.006425000e+00,4.27095e-01,9.99999e-01,9.83893e-01,4.34087e-01,9.99999e-01
1.011457125e+00,4.36873e-01,9.99999e-01,9.89963e-01,4.41301e-01,9.99999e-01
1.016514411e+00,4.45431e-01,9.99999e-01,9.93179e-01,4.48490e-01,9.99999e-01
1.021596983e+00,4.53103e-01,9.99843e-01,9.94563e-01,4.55650e-01,9.99999e-01
1.026704968e+00,4.55350e-01,9.88118e-01,9.95758e-01,4.62780e-01,9.99999e-01
1.031838492e+00,4.24118e-01,9.05258e-01,9.96913e-01,4.69877e-01,9.99999e-01
1.036997685e+00,2.36798e-02,4.97182e-02,9.98167e-01,4.76939e-01,9.99999e-01
1.042182673e+00,1.46410e-03,3.03025e-03,9.97818e-01,4.83965e-01,9.99999e-01
1.047393587e+00,3.91041e-03,7.98412e-03,9.97105e-01,4.90953e-01,9.99999e-01
1.052630555e+00,3.70150e-07,7.45285e-07,9.96032e-01,4.97900e-01,9.99999e-01
1.057893707e+00,1.38238e-06,2.74775e-06,9.93388e-01,5.04806e-01,9.99999e-01
1.063183176e+00,3.93836e-05,7.74534e-05,9.89139e-01,5.11669e-01,9.99999e-01
1.068499092e+00,4.11422e-04,8.03085e-04,9.81872e-01,5.18486e-01,9.99999e-01
1.073841587e+00,5.19715e-03,1.00466e-02,9.78853e-01,5.25257e-01,9.99999e-01
1.079210795e+00,2.90486e-02,5.57867e-02,9.72927e-01,5.31980e-01,9.99998e-01
1.084606849e+00,1.00522e-01,1.93519e-01,9.59364e-01,5.38653e-01,9.99998e-01
1.090029883e+00,2.18354e-01,4.22886e-01,9.42373e-01,5.45276e-01,9.99997e-01
1.095480033e+00,3.08213e-01,6.53019e-01,8.50683e-01,5.51847e-01,9.99995e-01
1.100957433e+00,3.04439e-01,8.13443e-01,6.65861e-01,5.58366e-01,9.99992e-01
1.106462220e+00,1.93047e-01,9.17974e-01,3.69239e-01,5.64830e-01,9.99984e-01
1.111994531e+00,7.18046e-02,9.68733e-01,1.29025e-01,5.71239e-01,9.99968e-01
1.117554504e+00,2.32608e-02,9.92261e-01,4.04587e-02,5.77592e-01,9.99955e-01
1.123142276e+00,6.42810e-02,9.99488e-01,1.10104e-01,5.83888e-01,9.99947e-01
1.128757988e+00,1.27959e-01,9.99999e-01,2.16845e-01,5.90127e-01,9.99943e-01
1.134401778e+00,5.69062e-02,9.99999e-01,9.54370e-02,5.96307e-01,9.99936e-01
1.140073787e+00,2.32464e-01,9.99999e-01,3.85897e-01,6.02428e-01,9.99948e-01
1.145774156e+00,9.42408e-02,9.99999e-01,1.54883e-01,6.08488e-01,9.99956e-01
1.151503026e+00,7.84265e-02,9.99999e-01,1.27634e-01,6.14489e-01,9.99962e-01
1.157260541e+00,9.86004e-02,9.99999e-01,1.58928e-01,6.20428e-01,9.99971e-01
1.163046844e+00,1.58515e-01,9.99999e-01,2.53100e-01,6.26305e-01,9.99981e-01
1.168862078e+00,2.36680e-01,9.99999e-01,3.74426e-01,6.32121e-01,9.99990e-01
1.174706389e+00,3.47281e-01,9.99999e-01,5.44438e-01,6.37874e-01,9.99994e-01
1.180579921e+00,4.43436e-01,9.99999e-01,6.89033e-01,6.43564e-01,9.99996e-01
1.186482820e+00,5.25246e-01,9.99980e-01,8.09092e-01,6.49191e-01,9.99997e-01
1.192415234e+00,5.55942e-01,9.59708e-01,8.83457e-01,6.54755e-01,9.99997e-01
1.198377311e+00,3.12456e-01,5.16160e-01,9.00951e-01,6.60255e-01,9.99997e-01
1.204369197e+00,2.87326e-31,4.56989e-31,9.06249e-01,6.65691e-01,9.99997e-01
1.210391043e+00,7.69153e-127,1.20796e-126,9.09988e-01,6.71063e-01,9.99998e-01
1.216442998e+00,9.49348e-110,1.47519e-109,9.22833e-01,6.76371e-01,9.99998e-01
1.222525213e+00,4.30210e-108,6.51837e-108,9.39321e-01,6.81615e-01,9.99999e-01
1.228637839e+00,2.29537e-83,3.44129e-83,9.57462e-01,6.86795e-01,9.99999e-01
1.234781029e+00,8.03833e-52,1.17806e-51,9.68226e-01,6.91911e-01,9.99999e-01
1.240954934e+00,2.35623e-34,3.42304e-34,9.79797e-01,6.96963e-01,9.99999e-01
1.247159708e+00,1.70473e-16,2.45141e-16,9.84224e-01,7.01951e-01,9.99999e-01
1.253395507e+00,3.15464e-11,4.50678e-11,9.85991e-01,7.06875e-01,9.99999e-01
1.259662485e+00,1.05225e-06,1.49258e-06,9.86701e-01,7.11735e-01,9.99999e-01
1.265960797e+00,4.41358e-04,6.24301e-04,9.78815e-01,7.16532e-01,9.99999e-01
1.272290601e+00,2.17771e-02,3.10072e-02,9.66981e-01,7.21265e-01,9.99998e-01
1.278652054e+00,2.00974e-02,2.89012e-02,9.35526e-01,7.25935e-01,9.99998e-01
1.285045314e+00,2.06187e-05,2.96567e-05,9.00899e-01,7.30543e-01,9.99997e-01
1.291470541e+00,5.77331e-15,8.79003e-15,8.11031e-01,7.35087e-01,9.99995e-01
1.297927893e+00,1.67862e-06,2.56921e-06,7.61799e-01,7.39570e-01,9.99992e-01
1.304417533e+00,9.48526e-04,1.66370e-03,7.05338e-01,7.43990e-01,9.99986e-01
1.310939621e+00,2.62671e-04,4.39984e-04,6.71181e-01,7.48349e-01,9.99976e-01
1.317494319e+00,3.70406e-43,6.23327e-43,6.48768e-01,7.52646e-01,9.99961e-01
1.324081790e+00,2.40197e-28,4.25566e-28,5.29035e-01,7.56882e-01,9.99936e-01
1.330702199e+00,3.81170e-17,1.12716e-16,1.48656e-01,7.61058e-01,9.99894e-01
1.337355710e+00,3.91793e-17,3.07555e-15,3.47399e-03,7.65174e-01,9.99798e-01
1.344042489e+00,2.79684e-18,1.67145e-15,6.55231e-05,7.69230e-01,9.99569e-01
1.350762701e+00,2.51773e-28,5.43221e-17,5.48289e-13,7.73227e-01,9.99312e-01
1.357516515e+00,2.15417e-27,2.57408e-10,4.55477e-19,7.77164e-01,9.99148e-01
1.364304097e+00,5.23669e-18,1.38127e-07,6.56582e-12,7.81044e-01,9.99088e-01
1.371125618e+00,1.03142e-10,3.22945e-04,1.22913e-07,7.84866e-01,9.99080e-01
1.377981246e+00,9.25781e-10,9.46096e-04,4.06072e-07,7.88630e-01,9.99012e-01
1.384871152e+00,1.00679e-11,1.71444e-02,3.73443e-10,7.92338e-01,9.99022e-01
1.391795508e+00,2.62127e-13,2.36275e-02,5.41700e-12,7.95989e-01,9.99162e-01
1.398754485e+00,1.72483e-10,9.38179e-02,1.65733e-09,7.99585e-01,9.99300e-01
1.405748258e+00,3.76287e-10,1.78672e-01,1.91517e-09,8.03125e-01,9.99372e-01
1.412776999e+00,8.91011e-10,3.33523e-01,2.35734e-09,8.06611e-01,9.99495e-01
1.419840884e+00,1.69390e-09,3.16920e-01,4.47211e-09,8.10042e-01,9.99623e-01
1.426940089e+00,3.41993e-07,1.11584e-02,1.44358e-06,8.13420e-01,9.99766e-01
1.434074789e+00,0.00000e+00,0.00000e+00,1.37919e-05,8.16745e-01,9.99854e-01
1.441245163e+00,0.00000e+00,0.00000e+00,1.04761e-04,8.20017e-01,9.99886e-01
1.448451389e+00,0.00000e+00,0.00000e+00,1.88039e-03,8.23237e-01,9.99905e-01
1.455693646e+00,0.00000e+00,0.00000e+00,1.36698e-02,8.26406e-01,9.99922e-01
1.462972114e+00,0.00000e+00,0.00000e+00,2.03211e-02,8.29525e-01,9.99933e-01
1.470286975e+00,1.64072e-211,3.30352e-210,1.11858e-02,8.32593e-01,9.99940e-01
