#,Wave/freq,Total,CO2,H2O,Rayleigh,CIA
4.000000000e-01,2.21505e-08,9.99999e-01,9.99965e-01,2.21512e-08,9.99999e-01
4.020000000e-01,3.13866e-08,9.99999e-01,9.99978e-01,3.13872e-08,9.99999e-01
4.040100000e-01,4.41526e-08,9.99999e-01,9.99990e-01,4.41530e-08,9.99999e-01
4.060300500e-01,6.16936e-08,9.99999e-01,9.99997e-01,6.16937e-08,9.99999e-01
4.080602003e-01,8.56350e-08,9.99999e-01,9.99998e-01,8.56350e-08,9.99999e-01
4.101005013e-01,1.18100e-07,9.99999e-01,9.99999e-01,1.18100e-07,9.99999e-01
4.121510038e-01,1.61841e-07,9.99999e-01,9.99998e-01,1.61841e-07,9.99999e-01
4.142117588e-01,2.20406e-07,9.99999e-01,9.99990e-01,2.20408e-07,9.99999e-01
4.162828176e-01,2.98329e-07,9.99999e-01,9.99956e-01,2.98342e-07,9.99999e-01
4.183642317e-01,4.01415e-07,9.99999e-01,9.99974e-01,4.01426e-07,9.99999e-01
4.204560528e-01,5.36961e-07,9.99999e-01,9.99983e-01,5.36970e-07,9.99999e-01
4.225583331e-01,7.14161e-07,9.99999e-01,9.99993e-01,7.14165e-07,9.99999e-01
4.246711247e-01,9.44494e-07,9.99999e-01,9.99994e-01,9.44499e-07,9.99999e-01
4.267944804e-01,1.24223e-06,9.99999e-01,9.99992e-01,1.24224e-06,9.99999e-01
4.289284528e-01,1.62502e-06,9.99999e-01,9.99994e-01,1.62503e-06,9.99999e-01
4.310730950e-01,2.11451e-06,9.99999e-01,9.99997e-01,2.11451e-06,9.99999e-01
4.332284605e-01,2.73716e-06,9.99999e-01,9.99998e-01,2.73717e-06,9.99999e-01
4.353946028e-01,3.52515e-06,9.99999e-01,9.99999e-01,3.52515e-06,9.99999e-01
4.375715758e-01,4.51734e-06,9.99999e-01,9.99995e-01,4.51736e-06,9.99999e-01
4.397594337e-01,5.76034e-06,9.99999e-01,9.99962e-01,5.76055e-06,9.99999e-01
4.419582309e-01,7.30931e-06,9.99999e-01,9.99810e-01,7.31068e-06,9.99999e-01
4.441680220e-01,9.23300e-06,9.99999e-01,9.99850e-01,9.23438e-06,9.99999e-01
4.463888621e-01,1.16088e-05,9.99999e-01,9.99844e-01,1.16106e-05,9.99999e-01
4.486208064e-01,1.45309e-05,9.99999e-01,9.99902e-01,1.45323e-05,9.99999e-01
4.508639105e-01,1.81080e-05,9.99999e-01,9.99954e-01,1.81088e-05,9.99999e-01
4.531182300e-01,2.24673e-05,9.99999e-01,9.99981e-01,2.24677e-05,9.99999e-01
4.553838212e-01,2.77570e-05,9.99999e-01,9.99987e-01,2.77573e-05,9.99999e-01
4.576607403e-01,3.41491e-05,9.99999e-01,9.99993e-01,3.41493e-05,9.99999e-01
4.599490440e-01,4.18415e-05,9.99999e-01,9.99995e-01,4.18416e-05,9.99999e-01
4.622487892e-01,5.10613e-05,9.99999e-01,9.99998e-01,5.10614e-05,9.99999e-01
4.645600332e-01,6.20679e-05,9.99999e-01,9.99996e-01,6.20681e-05,9.99999e-01
4.668828333e-01,7.51536e-05,9.99999e-01,9.99954e-01,7.51570e-05,9.99999e-01
4.692172475e-01,9.06541e-05,9.99999e-01,9.99902e-01,9.06629e-05,9.99999e-01
4.715633337e-01,1.08956e-04,9.99999e-01,9.99936e-01,1.08963e-04,9.99999e-01
4.739211504e-01,1.30475e-04,9.99999e-01,9.99938e-01,1.30483e-04,9.99999e-01
4.762907561e-01,1.55692e-04,9.99999e-01,9.99967e-01,1.55697e-04,9.99999e-01
4.786722099e-01,1.85135e-04,9.99999e-01,9.99986e-01,1.85137e-04,9.99999e-01
4.810655710e-01,2.19390e-04,9.99999e-01,9.99995e-01,2.19391e-04,9.99999e-01
4.834708988e-01,2.59104e-04,9.99999e-01,9.99962e-01,2.59113e-04,9.99999e-01
4.858882533e-01,3.05001e-04,9.99999e-01,9.99930e-01,3.05022e-04,9.99999e-01
4.883176946e-01,3.57890e-04,9.99999e-01,9.99942e-01,3.57911e-04,9.99999e-01
4.907592831e-01,4.18624e-04,9.99999e-01,9.99947e-01,4.18645e-04,9.99999e-01
4.932130795e-01,4.88154e-04,9.99999e-01,9.99962e-01,4.88172e-04,9.99999e-01
4.956791449e-01,5.67510e-04,9.99999e-01,9.99979e-01,5.67521e-04,9.99999e-01
4.981575406e-01,6.57744e-04,9.99999e-01,9.99902e-01,6.57808e-04,9.99999e-01
5.006483283e-01,7.60047e-04,9.99999e-01,9.99748e-01,7.60238e-04,9.99999e-01
5.031515699e-01,8.74988e-04,9.99999e-01,9.98719e-01,8.76110e-04,9.99999e-01
5.056673278e-01,1.00613e-03,9.99999e-01,9.99322e-01,1.00682e-03,9.99999e-01
5.081956644e-01,1.15286e-03,9.99999e-01,9.99144e-01,1.15385e-03,9.99999e-01
5.107366428e-01,1.31804e-03,9.99999e-01,9.99422e-01,1.31880e-03,9.99999e-01
5.132903260e-01,1.50286e-03,9.99999e-01,9.99669e-01,1.50336e-03,9.99999e-01
5.158567776e-01,1.70908e-03,9.99999e-01,9.99859e-01,1.70932e-03,9.99999e-01
5.184360615e-01,1.93846e-03,9.99999e-01,9.99943e-01,1.93857e-03,9.99999e-01
5.210282418e-01,2.19307e-03,9.99999e-01,9.99978e-01,2.19311e-03,9.99999e-01
5.236333830e-01,2.47483e-03,9.99999e-01,9.99916e-01,2.47503e-03,9.99999e-01
5.262515499e-01,2.78639e-03,9.99999e-01,9.99947e-01,2.78653e-03,9.99999e-01
5.288828077e-01,3.12975e-03,9.99999e-01,9.99951e-01,3.12990e-03,9.99999e-01
5.315272217e-01,3.50737e-03,9.99999e-01,9.99957e-01,3.50752e-03,9.99999e-01
5.341848578e-01,3.92176e-03,9.99999e-01,9.99972e-01,3.92186e-03,9.99999e-01
5.368557821e-01,4.37507e-03,9.99999e-01,9.99902e-01,4.37549e-03,9.99999e-01
5.395400610e-01,4.86935e-03,9.99999e-01,9.99651e-01,4.87105e-03,9.99999e-01
5.422377613e-01,5.40879e-03,9.99999e-01,9.99544e-01,5.41125e-03,9.99999e-01
5.449489501e-01,5.99636e-03,9.99999e-01,9.99578e-01,5.99889e-03,9.99999e-01
5.476736949e-01,6.63432e-03,9.99999e-01,9.99624e-01,6.63681e-03,9.99999e-01
5.504120634e-01,7.32593e-03,9.99999e-01,9.99727e-01,7.32792e-03,9.99999e-01
5.531641237e-01,8.07409e-03,9.99999e-01,9.99862e-01,8.07519e-03,9.99999e-01
5.559299443e-01,8.88103e-03,9.99999e-01,9.99933e-01,8.88161e-03,9.99999e-01
5.587095940e-01,9.74981e-03,9.99999e-01,9.99958e-01,9.75021e-03,9.99999e-01
5.615031420e-01,1.06836e-02,9.99999e-01,9.99953e-01,1.06841e-02,9.99999e-01
5.643106577e-01,1.16856e-02,9.99999e-01,9.99947e-01,1.16862e-02,9.99999e-01
5.671322110e-01,1.27518e-02,9.99999e-01,9.99373e-01,1.27597e-02,9.99999e-01
5.699678720e-01,1.38983e-02,9.99999e-01,9.99321e-01,1.39077e-02,9.99999e-01
5.728177114e-01,1.51226e-02,9.99999e-01,9.99298e-01,1.51332e-02,9.99999e-01
5.756818000e-01,1.64287e-02,9.99999e-01,9.99355e-01,1.64393e-02,9.99999e-01
5.785602090e-01,1.78188e-02,9.99999e-01,9.99436e-01,1.78288e-02,9.99999e-01
5.814530100e-01,1.92940e-02,9.99999e-01,9.99435e-01,1.93049e-02,9.99999e-01
5.843602750e-01,2.08564e-02,9.99999e-01,9.99331e-01,2.08704e-02,9.99999e-01
5.872820764e-01,2.23983e-02,9.99999e-01,9.94240e-01,2.25280e-02,9.99999e-01
5.902184868e-01,2.41103e-02,9.99999e-01,9.92980e-01,2.42807e-02,9.99999e-01
5.931695792e-01,2.60016e-02,9.99999e-01,9.95048e-01,2.61310e-02,9.99999e-01
5.961354271e-01,2.79289e-02,9.99999e-01,9.94563e-01,2.80816e-02,9.99999e-01
5.991161043e-01,3.00152e-02,9.99999e-01,9.96029e-01,3.01348e-02,9.99999e-01
6.021116848e-01,3.22203e-02,9.99999e-01,9.97743e-01,3.22932e-02,9.99999e-01
6.051222432e-01,3.45194e-02,9.99999e-01,9.98857e-01,3.45589e-02,9.99999e-01
6.081478544e-01,3.69158e-02,9.99999e-01,9.99507e-01,3.69340e-02,9.99999e-01
6.111885937e-01,3.94124e-02,9.99999e-01,9.99790e-01,3.94206e-02,9.99999e-01
6.142445367e-01,4.20166e-02,9.99999e-01,9.99906e-01,4.20205e-02,9.99999e-01
6.173157594e-01,4.47331e-02,9.99999e-01,9.99948e-01,4.47354e-02,9.99999e-01
6.204023382e-01,4.75648e-02,9.99999e-01,9.99956e-01,4.75669e-02,9.99999e-01
6.235043498e-01,5.05067e-02,9.99999e-01,9.99810e-01,5.05162e-02,9.99999e-01
6.266218716e-01,5.35307e-02,9.99999e-01,9.98989e-01,5.35848e-02,9.99999e-01
6.297549810e-01,5.67525e-02,9.99999e-01,9.99629e-01,5.67735e-02,9.99999e-01
6.329037559e-01,6.00394e-02,9.99999e-01,9.99266e-01,6.00834e-02,9.99999e-01
6.360682746e-01,6.34756e-02,9.99999e-01,9.99376e-01,6.35152e-02,9.99999e-01
6.392486160e-01,6.70151e-02,9.99999e-01,9.99191e-01,6.70693e-02,9.99999e-01
6.424448591e-01,7.06700e-02,9.99999e-01,9.98924e-01,7.07461e-02,9.99999e-01
6.456570834e-01,7.41740e-02,9.99999e-01,9.95011e-01,7.45459e-02,9.99999e-01
6.488853688e-01,7.81306e-02,9.99999e-01,9.95691e-01,7.84686e-02,9.99999e-01
6.521297956e-01,8.22046e-02,9.99999e-01,9.96247e-01,8.25142e-02,9.99999e-01
6.553904446e-01,8.63609e-02,9.99999e-01,9.96292e-01,8.66822e-02,9.99999e-01
6.586673968e-01,9.06810e-02,9.99999e-01,9.96799e-01,9.09721e-02,9.99999e-01
6.619607338e-01,9.52068e-02,9.99999e-01,9.98149e-01,9.53833e-02,9.99999e-01
6.652705375e-01,9.98077e-02,9.99999e-01,9.98926e-01,9.99149e-02,9.99999e-01
6.685968902e-01,1.04514e-01,9.99999e-01,9.99501e-01,1.04566e-01,9.99999e-01
6.719398746e-01,1.09310e-01,9.99999e-01,9.99768e-01,1.09335e-01,9.99999e-01
6.752995740e-01,1.14207e-01,9.99999e-01,9.99874e-01,1.14221e-01,9.99999e-01
6.786760719e-01,1.19201e-01,9.99999e-01,9.99820e-01,1.19223e-01,9.99999e-01
6.820694522e-01,1.24299e-01,9.99999e-01,9.99691e-01,1.24338e-01,9.99999e-01
6.854797995e-01,1.29513e-01,9.99999e-01,9.99602e-01,1.29565e-01,9.99999e-01
6.889071985e-01,1.34773e-01,9.99999e-01,9.99048e-01,1.34902e-01,9.99999e-01
6.923517345e-01,1.38164e-01,9.99999e-01,9.84449e-01,1.40346e-01,9.99999e-01
6.958134932e-01,1.44697e-01,9.99999e-01,9.91777e-01,1.45897e-01,9.99999e-01
6.992925606e-01,1.50382e-01,9.99999e-01,9.92287e-01,1.51551e-01,9.99999e-01
7.027890234e-01,1.55801e-01,9.99999e-01,9.90433e-01,1.57306e-01,9.99999e-01
7.063029686e-01,1.61846e-01,9.99999e-01,9.91955e-01,1.63159e-01,9.99999e-01
7.098344834e-01,1.67802e-01,9.99999e-01,9.92280e-01,1.69108e-01,9.99999e-01
7.133836558e-01,1.73365e-01,9.99999e-01,9.89812e-01,1.75150e-01,9.99999e-01
7.169505741e-01,1.66915e-01,9.99999e-01,9.20749e-01,1.81282e-01,9.99998e-01
7.205353270e-01,1.79983e-01,9.99999e-01,9.59904e-01,1.87501e-01,9.99998e-01
7.241380036e-01,1.84080e-01,9.99999e-01,9.49827e-01,1.93804e-01,9.99998e-01
7.277586936e-01,1.91098e-01,9.99999e-01,9.54588e-01,2.00189e-01,9.99998e-01
7.313974871e-01,1.96637e-01,9.99999e-01,9.51539e-01,2.06651e-01,9.99998e-01
7.350544745e-01,2.07488e-01,9.99999e-01,9.73261e-01,2.13188e-01,9.99999e-01
7.387297469e-01,2.15454e-01,9.99999e-01,9.80241e-01,2.19797e-01,9.99999e-01
7.424233956e-01,2.24271e-01,9.99999e-01,9.90269e-01,2.26474e-01,9.99999e-01
7.461355126e-01,2.31840e-01,9.99999e-01,9.94099e-01,2.33216e-01,9.99999e-01
7.498661902e-01,2.39358e-01,9.99999e-01,9.97244e-01,2.40020e-01,9.99999e-01
7.536155211e-01,2.46548e-01,9.99999e-01,9.98650e-01,2.46882e-01,9.99999e-01
7.573835987e-01,2.53622e-01,9.99999e-01,9.99304e-01,2.53798e-01,9.99999e-01
7.611705167e-01,2.60654e-01,9.99999e-01,9.99567e-01,2.60766e-01,9.99999e-01
7.649763693e-01,2.67710e-01,9.99999e-01,9.99729e-01,2.67782e-01,9.99999e-01
7.688012511e-01,2.74791e-01,9.99999e-01,9.99811e-01,2.74843e-01,9.99999e-01
7.726452574e-01,2.81901e-01,9.99999e-01,9.99844e-01,2.81945e-01,9.99999e-01
7.765084837e-01,2.89021e-01,9.99999e-01,9.99780e-01,2.89084e-01,9.99999e-01
7.803910261e-01,2.80595e-01,9.47980e-01,9.99055e-01,2.96258e-01,9.99999e-01
7.842929812e-01,2.34986e-01,7.76709e-01,9.96706e-01,3.03464e-01,9.99999e-01
7.882144461e-01,2.36099e-01,7.64788e-01,9.93186e-01,3.10696e-01,9.99999e-01
7.921555184e-01,2.70128e-01,8.52662e-01,9.96246e-01,3.17954e-01,9.99999e-01
7.961162960e-01,2.90151e-01,8.97948e-01,9.93423e-01,3.25232e-01,9.99999e-01
8.000968774e-01,3.11311e-01,9.43351e-01,9.92375e-01,3.32528e-01,9.99999e-01
8.040973618e-01,3.27191e-01,9.70146e-01,9.92381e-01,3.39839e-01,9.99999e-01
8.081178486e-01,3.36565e-01,9.86219e-01,9.82981e-01,3.47162e-01,9.99999e-01
8.121584379e-01,3.28603e-01,9.95700e-01,9.30902e-01,3.54493e-01,9.99998e-01
8.162192301e-01,3.31858e-01,9.99048e-01,9.18014e-01,3.61830e-01,9.99998e-01
8.203003262e-01,3.54008e-01,9.99984e-01,9.58945e-01,3.69169e-01,9.99998e-01
8.244018279e-01,3.54774e-01,9.99999e-01,9.42276e-01,3.76507e-01,9.99998e-01
8.285238370e-01,3.64805e-01,9.99999e-01,9.50403e-01,3.83842e-01,9.99998e-01
8.326664562e-01,3.71518e-01,9.99999e-01,9.49757e-01,3.91171e-01,9.99998e-01
8.368297885e-01,3.84056e-01,9.99999e-01,9.63775e-01,3.98491e-01,9.99999e-01
8.410139374e-01,3.96998e-01,9.99999e-01,9.78310e-01,4.05799e-01,9.99999e-01
8.452190071e-01,4.08672e-01,9.99999e-01,9.89298e-01,4.13093e-01,9.99999e-01
8.494451021e-01,4.17762e-01,9.99999e-01,9.93793e-01,4.20370e-01,9.99999e-01
8.536923276e-01,4.26054e-01,9.99999e-01,9.96317e-01,4.27628e-01,9.99999e-01
8.579607893e-01,4.33880e-01,9.99999e-01,9.97735e-01,4.34864e-01,9.99999e-01
8.622505932e-01,4.41439e-01,9.99999e-01,9.98558e-01,4.42076e-01,9.99999e-01
8.665618462e-01,4.05159e-01,9.02593e-01,9.99110e-01,4.49262e-01,9.99999e-01
8.708946554e-01,2.42712e-01,5.32287e-01,9.98983e-01,4.56419e-01,9.99999e-01
8.752491287e-01,2.76282e-01,5.96794e-01,9.98638e-01,4.63545e-01,9.99999e-01
8.796253743e-01,3.52593e-01,7.50525e-01,9.98119e-01,4.70638e-01,9.99999e-01
8.840235012e-01,4.10400e-01,8.60926e-01,9.97851e-01,4.77697e-01,9.99999e-01
8.884436187e-01,4.53338e-01,9.42424e-01,9.92273e-01,4.84719e-01,9.99999e-01
8.928858368e-01,4.42287e-01,9.76290e-01,9.21028e-01,4.91702e-01,9.99998e-01
8.973502660e-01,4.28349e-01,9.94165e-01,8.63896e-01,4.98646e-01,9.99997e-01
9.018370173e-01,4.68714e-01,9.99354e-01,9.27712e-01,5.05547e-01,9.99997e-01
9.063462024e-01,4.72690e-01,9.84010e-01,9.36697e-01,5.12404e-01,9.99997e-01
9.108779334e-01,4.51677e-01,9.62917e-01,9.02731e-01,5.19217e-01,9.99996e-01
9.154323231e-01,4.64120e-01,9.91114e-01,8.90017e-01,5.25982e-01,9.99996e-01
9.200094847e-01,4.33698e-01,8.85335e-01,9.12721e-01,5.32700e-01,9.99995e-01
9.246095321e-01,3.92099e-01,8.31572e-01,8.69842e-01,5.39368e-01,9.99993e-01
9.292325798e-01,1.92579e-01,8.67037e-01,3.98129e-01,5.45986e-01,9.99986e-01
9.338787427e-01,1.49081e-01,8.69903e-01,3.03701e-01,5.52551e-01,9.99981e-01
9.385481364e-01,3.14016e-01,9.02395e-01,6.16780e-01,5.59064e-01,9.99981e-01
9.432408771e-01,2.76827e-01,9.38827e-01,5.18704e-01,5.65522e-01,9.99979e-01
9.479570815e-01,2.25772e-01,9.68183e-01,4.06697e-01,5.71925e-01,9.99981e-01
9.526968669e-01,2.86488e-01,9.84518e-01,5.02203e-01,5.78272e-01,9.99986e-01
9.574603512e-01,3.04594e-01,9.93346e-01,5.24189e-01,5.84562e-01,9.99989e-01
9.622476530e-01,3.46975e-01,9.97918e-01,5.88413e-01,5.90795e-01,9.99992e-01
9.670588912e-01,4.39157e-01,9.99374e-01,7.36070e-01,5.96968e-01,9.99995e-01
9.718941857e-01,4.97191e-01,9.99954e-01,8.24451e-01,6.03083e-01,9.99996e-01
9.767536566e-01,5.18921e-01,9.99999e-01,8.51897e-01,6.09137e-01,9.99997e-01
9.816374249e-01,5.46031e-01,9.99999e-01,8.87667e-01,6.15130e-01,9.99998e-01
9.865456120e-01,5.76459e-01,9.99999e-01,9.28180e-01,6.21063e-01,9.99998e-01
9.914783401e-01,5.98704e-01,9.99999e-01,9.54971e-01,6.26934e-01,9.99999e-01
9.964357318e-01,6.17062e-01,9.99999e-01,9.75217e-01,6.32743e-01,9.99999e-01
1.001417910e+00,6.28957e-01,9.99999e-01,9.85070e-01,6.38489e-01,9.99999e-01
1.006425000e+00,6.38681e-01,9.99999e-01,9.91474e-01,6.44172e-01,9.99999e-01
1.011457125e+00,6.46343e-01,9.99999e-01,9.94691e-01,6.49793e-01,9.99999e-01
1.016514411e+00,6.52988e-01,9.99999e-01,9.96396e-01,6.55349e-01,9.99999e-01
1.021596983e+00,6.58893e-01,9.99919e-01,9.97129e-01,6.60842e-01,9.99999e-01
1.026704968e+00,6.60613e-01,9.93725e-01,9.97761e-01,6.66272e-01,9.99999e-01
1.031838492e+00,6.29840e-01,9.39240e-01,9.98370e-01,6.71637e-01,9.99999e-01
1.036997685e+00,6.41589e-02,9.48485e-02,9.99033e-01,6.76939e-01,9.99999e-01
1.042182673e+00,2.22982e-02,3.27183e-02,9.98850e-01,6.82176e-01,9.99999e-01
1.047393587e+00,3.72306e-02,5.42369e-02,9.98473e-01,6.87349e-01,9.99999e-01
1.052630555e+00,1.42632e-04,2.06274e-04,9.97907e-01,6.92458e-01,9.99999e-01
1.057893707e+00,4.59912e-04,6.60739e-04,9.96512e-01,6.97503e-01,9.99999e-01
1.063183176e+00,3.00439e-03,4.29276e-03,9.94262e-01,7.02484e-01,9.99999e-01
1.068499092e+00,1.39132e-02,1.98147e-02,9.90400e-01,7.07401e-01,9.99999e-01
1.073841587e+00,5.81337e-02,8.23541e-02,9.88790e-01,7.12254e-01,9.99999e-01
1.079210795e+00,1.45869e-01,2.05982e-01,9.85622e-01,7.17044e-01,9.99999e-01
1.084606849e+00,2.93181e-01,4.14514e-01,9.78342e-01,7.21771e-01,9.99998e-01
1.090029883e+00,4.45717e-01,6.32198e-01,9.69159e-01,7.26434e-01,9.99998e-01
1.095480033e+00,5.35976e-01,7.97348e-01,9.18093e-01,7.31035e-01,9.99997e-01
1.100957433e+00,5.32105e-01,8.96470e-01,8.05407e-01,7.35573e-01,9.99995e-01
1.106462220e+00,4.12419e-01,9.55753e-01,5.81586e-01,7.40048e-01,9.99991e-01
1.111994531e+00,2.36874e-01,9.83360e-01,3.22970e-01,7.44462e-01,9.99983e-01
1.117554504e+00,1.22767e-01,9.95900e-01,1.64441e-01,7.48814e-01,9.99976e-01
1.123142276e+00,2.07953e-01,9.99729e-01,2.76158e-01,7.53105e-01,9.99972e-01
1.128757988e+00,3.23532e-01,9.99999e-01,4.27211e-01,7.57334e-01,9.99969e-01
1.134401778e+00,1.57270e-01,9.99999e-01,2.06532e-01,7.61504e-01,9.99966e-01
1.140073787e+00,4.56201e-01,9.99999e-01,5.95879e-01,7.65613e-01,9.99972e-01
1.145774156e+00,2.68072e-01,9.99999e-01,3.48306e-01,7.69663e-01,9.99976e-01
1.151503026e+00,2.41363e-01,9.99999e-01,3.11984e-01,7.73653e-01,9.99980e-01
1.157260541e+00,2.84913e-01,9.99999e-01,3.66413e-01,7.77585e-01,9.99984e-01
1.163046844e+00,3.70254e-01,9.99999e-01,4.73803e-01,7.81458e-01,9.99990e-01
1.168862078e+00,4.64434e-01,9.99999e-01,5.91431e-01,7.85274e-01,9.99994e-01
1.174706389e+00,5.70482e-01,9.99999e-01,7.23016e-01,7.89032e-01,9.99997e-01
1.180579921e+00,6.50350e-01,9.99999e-01,8.20390e-01,7.92734e-01,9.99997e-01
1.186482820e+00,7.11956e-01,9.99990e-01,8.93999e-01,7.96379e-01,9.99998e-01
1.192415234e+00,7.33222e-01,9.78100e-01,9.36691e-01,7.99968e-01,9.99998e-01
1.198377311e+00,4.19316e-01,5.46402e-01,9.46444e-01,8.03503e-01,9.99998e-01
1.204369197e+00,1.52152e-17,1.94306e-17,9.49266e-01,8.06983e-01,9.99998e-01
1.210391043e+00,6.49712e-68,8.24204e-68,9.51394e-01,8.10408e-01,9.99998e-01
1.216442998e+00,6.60716e-59,8.33482e-59,9.58443e-01,8.13780e-01,9.99999e-01
1.222525213e+00,4.93476e-58,6.14284e-58,9.67500e-01,8.17099e-01,9.99999e-01
1.228637839e+00,6.57409e-45,8.13951e-45,9.77330e-01,8.20366e-01,9.99999e-01
1.234781029e+00,2.24077e-28,2.74083e-28,9.83105e-01,8.23581e-01,9.99999e-01
1.240954934e+00,5.10821e-19,6.22072e-19,9.89291e-01,8.26744e-01,9.99999e-01
1.247159708e+00,9.33223e-10,1.13013e-09,9.91647e-01,8.29857e-01,9.99999e-01
1.253395507e+00,1.60863e-06,1.94166e-06,9.92588e-01,8.32920e-01,9.99999e-01
1.259662485e+00,4.42082e-04,5.31677e-04,9.92969e-01,8.35933e-01,9.99999e-01
1.265960797e+00,1.12270e-02,1.34910e-02,9.88770e-01,8.38897e-01,9.99999e-01
1.272290601e+00,1.08166e-01,1.30308e-01,9.83550e-01,8.41813e-01,9.99999e-01
1.278652054e+00,1.07007e-01,1.29949e-01,9.65544e-01,8.44681e-01,9.99998e-01
1.285045314e+00,9.65653e-04,1.17072e-03,9.46368e-01,8.47502e-01,9.99998e-01
1.291470541e+00,1.52025e-08,1.90828e-08,8.95042e-01,8.50277e-01,9.99997e-01
1.297927893e+00,2.98884e-04,3.74706e-04,8.65375e-01,8.53005e-01,9.99995e-01
1.304417533e+00,2.28598e-02,3.12358e-02,8.30136e-01,8.55688e-01,9.99992e-01
1.310939621e+00,5.71588e-03,7.53542e-03,8.08580e-01,8.58326e-01,9.99987e-01
1.317494319e+00,1.14711e-23,1.51399e-23,7.93487e-01,8.60920e-01,9.99979e-01
1.324081790e+00,6.44877e-16,8.74476e-16,7.09292e-01,8.63471e-01,9.99966e-01
1.330702199e+00,1.22184e-09,2.44491e-09,3.02174e-01,8.65978e-01,9.99944e-01
1.337355710e+00,7.70824e-10,8.11075e-09,3.80219e-02,8.68443e-01,9.99893e-01
1.344042489e+00,1.06792e-10,3.13151e-09,1.32487e-03,8.70866e-01,9.99772e-01
1.350762701e+00,7.90835e-16,1.32262e-09,1.06840e-07,8.73247e-01,9.99637e-01
1.357516515e+00,1.90907e-15,3.16393e-06,6.51351e-11,8.75588e-01,9.99551e-01
1.364304097e+00,2.33550e-10,1.78063e-04,4.37874e-07,8.77889e-01,9.99519e-01
1.371125618e+00,1.58865e-06,1.17240e-02,6.92853e-05,8.80150e-01,9.99514e-01
1.377981246e+00,7.88925e-06,2.36632e-02,2.22561e-04,8.82373e-01,9.99478e-01
1.384871152e+00,3.10694e-07,1.13152e-01,2.08905e-06,8.84556e-01,9.99484e-01
1.391795508e+00,9.64054e-08,1.33288e-01,5.15877e-07,8.86702e-01,9.99558e-01
1.398754485e+00,2.47824e-06,2.85864e-01,8.43903e-06,8.88811e-01,9.99631e-01
1.405748258e+00,3.64969e-06,3.98976e-01,8.66216e-06,8.90882e-01,9.99669e-01
1.412776999e+00,4.71636e-06,5.58472e-01,8.05823e-06,8.92918e-01,9.99734e-01
1.419840884e+00,1.00518e-05,5.04940e-01,1.68622e-05,8.94918e-01,9.99801e-01
1.426940089e+00,7.99358e-05,3.08281e-02,2.32011e-04,8.96883e-01,9.99876e-01
1.434074789e+00,0.00000e+00,0.00000e+00,1.45824e-03,8.98813e-01,9.99923e-01
1.441245163e+00,0.00000e+00,0.00000e+00,5.28705e-03,9.00709e-01,9.99940e-01
1.448451389e+00,0.00000e+00,0.00000e+00,2.58345e-02,9.02571e-01,9.99950e-01
1.455693646e+00,0.00000e+00,0.00000e+00,8.26420e-02,9.04400e-01,9.99958e-01
1.462972114e+00,2.50506e-269,1.09528e-268,1.12492e-01,9.06197e-01,9.99964e-01
1.470286975e+00,1.51713e-112,7.38365e-112,7.91920e-02,9.07962e-01,9.99968e-01
