#,Wave/freq,Total,CO2,H2O,Rayleigh,CIA
4.000000000e-01,5.67781e-03,9.99999e-01,9.99989e-01,5.67787e-03,9.99999e-01
4.020000000e-01,6.28909e-03,9.99999e-01,9.99993e-01,6.28913e-03,9.99999e-01
4.040100000e-01,6.95140e-03,9.99999e-01,9.99996e-01,6.95142e-03,9.99999e-01
4.060300500e-01,7.66828e-03,9.99999e-01,9.99998e-01,7.66828e-03,9.99999e-01
4.080602003e-01,8.44268e-03,9.99999e-01,9.99999e-01,8.44268e-03,9.99999e-01
4.101005013e-01,9.27764e-03,9.99999e-01,9.99999e-01,9.27764e-03,9.99999e-01
4.121510038e-01,1.01762e-02,9.99999e-01,9.99999e-01,1.01762e-02,9.99999e-01
4.142117588e-01,1.11414e-02,9.99999e-01,9.99996e-01,1.11414e-02,9.99999e-01
4.162828176e-01,1.21762e-02,9.99999e-01,9.99986e-01,1.21764e-02,9.99999e-01
4.183642317e-01,1.32841e-02,9.99999e-01,9.99992e-01,1.32842e-02,9.99999e-01
4.204560528e-01,1.44678e-02,9.99999e-01,9.99994e-01,1.44678e-02,9.99999e-01
4.225583331e-01,1.57304e-02,9.99999e-01,9.99997e-01,1.57304e-02,9.99999e-01
4.246711247e-01,1.70749e-02,9.99999e-01,9.99998e-01,1.70749e-02,9.99999e-01
4.267944804e-01,1.85043e-02,9.99999e-01,9.99997e-01,1.85044e-02,9.99999e-01
4.289284528e-01,2.00216e-02,9.99999e-01,9.99997e-01,2.00216e-02,9.99999e-01
4.310730950e-01,2.16296e-02,9.99999e-01,9.99998e-01,2.16296e-02,9.99999e-01
4.332284605e-01,2.33311e-02,9.99999e-01,9.99999e-01,2.33311e-02,9.99999e-01
4.353946028e-01,2.51289e-02,9.99999e-01,9.99999e-01,2.51289e-02,9.99999e-01
4.375715758e-01,2.70255e-02,9.99999e-01,9.99998e-01,2.70255e-02,9.99999e-01
4.397594337e-01,2.90232e-02,9.99999e-01,9.99988e-01,2.90235e-02,9.99999e-01
4.419582309e-01,3.11236e-02,9.99999e-01,9.99942e-01,3.11254e-02,9.99999e-01
4.441680220e-01,3.33319e-02,9.99999e-01,9.99956e-01,3.33334e-02,9.99999e-01
4.463888621e-01,3.56481e-02,9.99999e-01,9.99954e-01,3.56497e-02,9.99999e-01
4.486208064e-01,3.80754e-02,9.99999e-01,9.99971e-01,3.80765e-02,9.99999e-01
4.508639105e-01,4.06150e-02,9.99999e-01,9.99986e-01,4.06155e-02,9.99999e-01
4.531182300e-01,4.32685e-02,9.99999e-01,9.99994e-01,4.32687e-02,9.99999e-01
4.553838212e-01,4.60375e-02,9.99999e-01,9.99995e-01,4.60376e-02,9.99999e-01
4.576607403e-01,4.89237e-02,9.99999e-01,9.99997e-01,4.89237e-02,9.99999e-01
4.599490440e-01,5.19283e-02,9.99999e-01,9.99998e-01,5.19284e-02,9.99999e-01
4.622487892e-01,5.50527e-02,9.99999e-01,9.99999e-01,5.50527e-02,9.99999e-01
4.645600332e-01,5.82977e-02,9.99999e-01,9.99998e-01,5.82977e-02,9.99999e-01
4.668828333e-01,6.16634e-02,9.99999e-01,9.99986e-01,6.16642e-02,9.99999e-01
4.692172475e-01,6.51509e-02,9.99999e-01,9.99971e-01,6.51528e-02,9.99999e-01
4.715633337e-01,6.87626e-02,9.99999e-01,9.99980e-01,6.87639e-02,9.99999e-01
4.739211504e-01,7.24966e-02,9.99999e-01,9.99981e-01,7.24979e-02,9.99999e-01
4.762907561e-01,7.63542e-02,9.99999e-01,9.99990e-01,7.63549e-02,9.99999e-01
4.786722099e-01,8.03345e-02,9.99999e-01,9.99995e-01,8.03348e-02,9.99999e-01
4.810655710e-01,8.44373e-02,9.99999e-01,9.99998e-01,8.44373e-02,9.99999e-01
4.834708988e-01,8.86611e-02,9.99999e-01,9.99988e-01,8.86621e-02,9.99999e-01
4.858882533e-01,9.30067e-02,9.99999e-01,9.99979e-01,9.30086e-02,9.99999e-01
4.883176946e-01,9.74742e-02,9.99999e-01,9.99982e-01,9.74759e-02,9.99999e-01
4.907592831e-01,1.02062e-01,9.99999e-01,9.99984e-01,1.02063e-01,9.99999e-01
4.932130795e-01,1.06768e-01,9.99999e-01,9.99988e-01,1.06769e-01,9.99999e-01
4.956791449e-01,1.11592e-01,9.99999e-01,9.99993e-01,1.11593e-01,9.99999e-01
4.981575406e-01,1.16529e-01,9.99999e-01,9.99970e-01,1.16533e-01,9.99999e-01
5.006483283e-01,1.21578e-01,9.99999e-01,9.99924e-01,1.21587e-01,9.99999e-01
5.031515699e-01,1.26707e-01,9.99999e-01,9.99621e-01,1.26755e-01,9.99999e-01
5.056673278e-01,1.32007e-01,9.99999e-01,9.99801e-01,1.32033e-01,9.99999e-01
5.081956644e-01,1.37386e-01,9.99999e-01,9.99749e-01,1.37420e-01,9.99999e-01
5.107366428e-01,1.42891e-01,9.99999e-01,9.99830e-01,1.42915e-01,9.99999e-01
5.132903260e-01,1.48499e-01,9.99999e-01,9.99903e-01,1.48514e-01,9.99999e-01
5.158567776e-01,1.54209e-01,9.99999e-01,9.99958e-01,1.54215e-01,9.99999e-01
5.184360615e-01,1.60013e-01,9.99999e-01,9.99983e-01,1.60016e-01,9.99999e-01
5.210282418e-01,1.65913e-01,9.99999e-01,9.99993e-01,1.65914e-01,9.99999e-01
5.236333830e-01,1.71902e-01,9.99999e-01,9.99974e-01,1.71906e-01,9.99999e-01
5.262515499e-01,1.77988e-01,9.99999e-01,9.99984e-01,1.77990e-01,9.99999e-01
5.288828077e-01,1.84161e-01,9.99999e-01,9.99985e-01,1.84163e-01,9.99999e-01
5.315272217e-01,1.90420e-01,9.99999e-01,9.99987e-01,1.90422e-01,9.99999e-01
5.341848578e-01,1.96762e-01,9.99999e-01,9.99991e-01,1.96763e-01,9.99999e-01
5.368557821e-01,2.03179e-01,9.99999e-01,9.99970e-01,2.03185e-01,9.99999e-01
5.395400610e-01,2.09660e-01,9.99999e-01,9.99894e-01,2.09682e-01,9.99999e-01
5.422377613e-01,2.16224e-01,9.99999e-01,9.99866e-01,2.16253e-01,9.99999e-01
5.449489501e-01,2.22866e-01,9.99999e-01,9.99874e-01,2.22894e-01,9.99999e-01
5.476736949e-01,2.29577e-01,9.99999e-01,9.99890e-01,2.29602e-01,9.99999e-01
5.504120634e-01,2.36354e-01,9.99999e-01,9.99920e-01,2.36373e-01,9.99999e-01
5.531641237e-01,2.43194e-01,9.99999e-01,9.99959e-01,2.43204e-01,9.99999e-01
5.559299443e-01,2.50087e-01,9.99999e-01,9.99980e-01,2.50092e-01,9.99999e-01
5.587095940e-01,2.57029e-01,9.99999e-01,9.99987e-01,2.57033e-01,9.99999e-01
5.615031420e-01,2.64020e-01,9.99999e-01,9.99986e-01,2.64023e-01,9.99999e-01
5.643106577e-01,2.71056e-01,9.99999e-01,9.99983e-01,2.71061e-01,9.99999e-01
5.671322110e-01,2.78088e-01,9.99999e-01,9.99808e-01,2.78141e-01,9.99999e-01
5.699678720e-01,2.85205e-01,9.99999e-01,9.99803e-01,2.85261e-01,9.99999e-01
5.728177114e-01,2.92356e-01,9.99999e-01,9.99792e-01,2.92417e-01,9.99999e-01
5.756818000e-01,2.99549e-01,9.99999e-01,9.99810e-01,2.99606e-01,9.99999e-01
5.785602090e-01,3.06773e-01,9.99999e-01,9.99835e-01,3.06824e-01,9.99999e-01
5.814530100e-01,3.14017e-01,9.99999e-01,9.99833e-01,3.14069e-01,9.99999e-01
5.843602750e-01,3.21272e-01,9.99999e-01,9.99800e-01,3.21336e-01,9.99999e-01
5.872820764e-01,3.28059e-01,9.99999e-01,9.98281e-01,3.28623e-01,9.99999e-01
5.902184868e-01,3.35236e-01,9.99999e-01,9.97942e-01,3.35927e-01,9.99999e-01
5.931695792e-01,3.42743e-01,9.99999e-01,9.98540e-01,3.43244e-01,9.99999e-01
5.961354271e-01,3.50011e-01,9.99999e-01,9.98404e-01,3.50571e-01,9.99999e-01
5.991161043e-01,3.57489e-01,9.99999e-01,9.98838e-01,3.57905e-01,9.99999e-01
6.021116848e-01,3.65002e-01,9.99999e-01,9.99341e-01,3.65243e-01,9.99999e-01
6.051222432e-01,3.72458e-01,9.99999e-01,9.99666e-01,3.72582e-01,9.99999e-01
6.081478544e-01,3.79864e-01,9.99999e-01,9.99855e-01,3.79919e-01,9.99999e-01
6.111885937e-01,3.87228e-01,9.99999e-01,9.99938e-01,3.87251e-01,9.99999e-01
6.142445367e-01,3.94566e-01,9.99999e-01,9.99972e-01,3.94577e-01,9.99999e-01
6.173157594e-01,4.01885e-01,9.99999e-01,9.99984e-01,4.01891e-01,9.99999e-01
6.204023382e-01,4.09188e-01,9.99999e-01,9.99986e-01,4.09193e-01,9.99999e-01
6.235043498e-01,4.16456e-01,9.99999e-01,9.99942e-01,4.16480e-01,9.99999e-01
6.266218716e-01,4.23622e-01,9.99999e-01,9.99702e-01,4.23748e-01,9.99999e-01
6.297549810e-01,4.30949e-01,9.99999e-01,9.99890e-01,4.30996e-01,9.99999e-01
6.329037559e-01,4.38127e-01,9.99999e-01,9.99785e-01,4.38221e-01,9.99999e-01
6.360682746e-01,4.45339e-01,9.99999e-01,9.99815e-01,4.45421e-01,9.99999e-01
6.392486160e-01,4.52486e-01,9.99999e-01,9.99762e-01,4.52594e-01,9.99999e-01
6.424448591e-01,4.59589e-01,9.99999e-01,9.99678e-01,4.59737e-01,9.99999e-01
6.456570834e-01,4.66152e-01,9.99999e-01,9.98509e-01,4.66848e-01,9.99999e-01
6.488853688e-01,4.73415e-01,9.99999e-01,9.98923e-01,4.73925e-01,9.99999e-01
6.521297956e-01,4.80440e-01,9.99999e-01,9.98902e-01,4.80967e-01,9.99999e-01
6.553904446e-01,4.87436e-01,9.99999e-01,9.98901e-01,4.87971e-01,9.99999e-01
6.586673968e-01,4.94474e-01,9.99999e-01,9.99064e-01,4.94936e-01,9.99999e-01
6.619607338e-01,5.01599e-01,9.99999e-01,9.99478e-01,5.01860e-01,9.99999e-01
6.652705375e-01,5.08582e-01,9.99999e-01,9.99686e-01,5.08741e-01,9.99999e-01
6.685968902e-01,5.15510e-01,9.99999e-01,9.99866e-01,5.15578e-01,9.99999e-01
6.719398746e-01,5.22334e-01,9.99999e-01,9.99932e-01,5.22369e-01,9.99999e-01
6.752995740e-01,5.29094e-01,9.99999e-01,9.99963e-01,5.29112e-01,9.99999e-01
6.786760719e-01,5.35779e-01,9.99999e-01,9.99946e-01,5.35807e-01,9.99999e-01
6.820694522e-01,5.42402e-01,9.99999e-01,9.99908e-01,5.42452e-01,9.99999e-01
6.854797995e-01,5.48981e-01,9.99999e-01,9.99882e-01,5.49046e-01,9.99999e-01
6.889071985e-01,5.55426e-01,9.99999e-01,9.99711e-01,5.55587e-01,9.99999e-01
6.923517345e-01,5.59458e-01,9.99999e-01,9.95345e-01,5.62074e-01,9.99999e-01
6.958134932e-01,5.67165e-01,9.99999e-01,9.97639e-01,5.68507e-01,9.99999e-01
6.992925606e-01,5.73562e-01,9.99999e-01,9.97700e-01,5.74884e-01,9.99999e-01
7.027890234e-01,5.79572e-01,9.99999e-01,9.97190e-01,5.81205e-01,9.99999e-01
7.063029686e-01,5.86079e-01,9.99999e-01,9.97635e-01,5.87468e-01,9.99999e-01
7.098344834e-01,5.92326e-01,9.99999e-01,9.97731e-01,5.93673e-01,9.99999e-01
7.133836558e-01,5.97976e-01,9.99999e-01,9.96926e-01,5.99819e-01,9.99999e-01
7.169505741e-01,5.91132e-01,9.99999e-01,9.75616e-01,6.05906e-01,9.99999e-01
7.205353270e-01,6.04765e-01,9.99999e-01,9.88288e-01,6.11932e-01,9.99999e-01
7.241380036e-01,6.08537e-01,9.99999e-01,9.84852e-01,6.17897e-01,9.99999e-01
7.277586936e-01,6.15278e-01,9.99999e-01,9.86337e-01,6.23801e-01,9.99999e-01
7.313974871e-01,6.20583e-01,9.99999e-01,9.85610e-01,6.29643e-01,9.99999e-01
7.350544745e-01,6.30406e-01,9.99999e-01,9.92105e-01,6.35423e-01,9.99999e-01
7.387297469e-01,6.37418e-01,9.99999e-01,9.94194e-01,6.41140e-01,9.99999e-01
7.424233956e-01,6.44961e-01,9.99999e-01,9.97165e-01,6.46794e-01,9.99999e-01
7.461355126e-01,6.51262e-01,9.99999e-01,9.98278e-01,6.52385e-01,9.99999e-01
7.498661902e-01,6.57387e-01,9.99999e-01,9.99200e-01,6.57912e-01,9.99999e-01
7.536155211e-01,6.63115e-01,9.99999e-01,9.99606e-01,6.63375e-01,9.99999e-01
7.573835987e-01,6.68640e-01,9.99999e-01,9.99797e-01,6.68775e-01,9.99999e-01
7.611705167e-01,6.74026e-01,9.99999e-01,9.99873e-01,6.74111e-01,9.99999e-01
7.649763693e-01,6.79329e-01,9.99999e-01,9.99920e-01,6.79382e-01,9.99999e-01
7.688012511e-01,6.84552e-01,9.99999e-01,9.99944e-01,6.84590e-01,9.99999e-01
7.726452574e-01,6.89702e-01,9.99999e-01,9.99954e-01,6.89733e-01,9.99999e-01
7.765084837e-01,6.94767e-01,9.99999e-01,9.99934e-01,6.94812e-01,9.99999e-01
7.803910261e-01,6.86523e-01,9.81260e-01,9.99717e-01,6.99827e-01,9.99999e-01
7.842929812e-01,6.52501e-01,9.26712e-01,9.99015e-01,7.04779e-01,9.99999e-01
7.882144461e-01,6.52172e-01,9.20790e-01,9.97994e-01,7.09666e-01,9.99999e-01
7.921555184e-01,6.80656e-01,9.53675e-01,9.98907e-01,7.14490e-01,9.99999e-01
7.961162960e-01,6.95700e-01,9.69147e-01,9.98040e-01,7.19250e-01,9.99999e-01
8.000968774e-01,7.10131e-01,9.83119e-01,9.97754e-01,7.23947e-01,9.99999e-01
8.040973618e-01,7.20597e-01,9.91268e-01,9.97749e-01,7.28581e-01,9.99999e-01
8.081178486e-01,7.26465e-01,9.95964e-01,9.94888e-01,7.33153e-01,9.99999e-01
8.121584379e-01,7.21180e-01,9.98768e-01,9.78855e-01,7.37662e-01,9.99999e-01
8.162192301e-01,7.23536e-01,9.99727e-01,9.75235e-01,7.42108e-01,9.99999e-01
8.203003262e-01,7.36962e-01,9.99995e-01,9.87234e-01,7.46493e-01,9.99999e-01
8.244018279e-01,7.37846e-01,9.99999e-01,9.82724e-01,7.50817e-01,9.99999e-01
8.285238370e-01,7.43796e-01,9.99999e-01,9.85057e-01,7.55079e-01,9.99999e-01
8.326664562e-01,7.47865e-01,9.99999e-01,9.84965e-01,7.59281e-01,9.99999e-01
8.368297885e-01,7.55241e-01,9.99999e-01,9.89282e-01,7.63422e-01,9.99999e-01
8.410139374e-01,7.62613e-01,9.99999e-01,9.93626e-01,7.67504e-01,9.99999e-01
8.452190071e-01,7.69117e-01,9.99999e-01,9.96877e-01,7.71526e-01,9.99999e-01
8.494451021e-01,7.74077e-01,9.99999e-01,9.98179e-01,7.75489e-01,9.99999e-01
8.536923276e-01,7.78558e-01,9.99999e-01,9.98927e-01,7.79393e-01,9.99999e-01
8.579607893e-01,7.82721e-01,9.99999e-01,9.99336e-01,7.83240e-01,9.99999e-01
8.622505932e-01,7.86698e-01,9.99999e-01,9.99579e-01,7.87029e-01,9.99999e-01
8.665618462e-01,7.51889e-01,9.51083e-01,9.99738e-01,7.90761e-01,9.99999e-01
8.708946554e-01,6.51883e-01,8.20801e-01,9.99700e-01,7.94436e-01,9.99999e-01
8.752491287e-01,6.82282e-01,8.55267e-01,9.99599e-01,7.98055e-01,9.99999e-01
8.796253743e-01,7.35977e-01,9.18615e-01,9.99443e-01,8.01619e-01,9.99999e-01
8.840235012e-01,7.70140e-01,9.57146e-01,9.99364e-01,8.05128e-01,9.99999e-01
8.884436187e-01,7.92958e-01,9.82998e-01,9.97626e-01,8.08582e-01,9.99999e-01
8.928858368e-01,7.86689e-01,9.93071e-01,9.75577e-01,8.11983e-01,9.99999e-01
8.973502660e-01,7.79482e-01,9.98324e-01,9.57620e-01,8.15330e-01,9.99998e-01
9.018370173e-01,8.00757e-01,9.99815e-01,9.78350e-01,8.18625e-01,9.99998e-01
9.063462024e-01,8.01960e-01,9.95049e-01,9.80556e-01,8.21867e-01,9.99998e-01
9.108779334e-01,7.91614e-01,9.89046e-01,9.70024e-01,8.25058e-01,9.99998e-01
9.154323231e-01,7.98135e-01,9.97455e-01,9.66132e-01,8.28198e-01,9.99998e-01
9.200094847e-01,7.78256e-01,9.61038e-01,9.73437e-01,8.31288e-01,9.99998e-01
9.246095321e-01,7.56962e-01,9.47360e-01,9.57169e-01,8.34327e-01,9.99997e-01
9.292325798e-01,6.01296e-01,9.57743e-01,7.47828e-01,8.37318e-01,9.99995e-01
9.338787427e-01,5.57315e-01,9.59783e-01,6.89347e-01,8.40259e-01,9.99994e-01
9.385481364e-01,7.05467e-01,9.70330e-01,8.61482e-01,8.43153e-01,9.99994e-01
9.432408771e-01,6.71864e-01,9.81812e-01,8.08427e-01,8.45999e-01,9.99993e-01
9.479570815e-01,6.24752e-01,9.90608e-01,7.42797e-01,8.48798e-01,9.99994e-01
9.526968669e-01,6.82354e-01,9.95472e-01,8.04770e-01,8.51551e-01,9.99995e-01
9.574603512e-01,7.00388e-01,9.98064e-01,8.21414e-01,8.54258e-01,9.99996e-01
9.622476530e-01,7.30674e-01,9.99396e-01,8.53174e-01,8.56920e-01,9.99997e-01
9.670588912e-01,7.84235e-01,9.99819e-01,9.12552e-01,8.59538e-01,9.99998e-01
9.718941857e-01,8.14334e-01,9.99987e-01,9.44591e-01,8.62112e-01,9.99998e-01
9.767536566e-01,8.24684e-01,9.99999e-01,9.53786e-01,8.64642e-01,9.99998e-01
9.816374249e-01,8.37382e-01,9.99999e-01,9.65694e-01,8.67129e-01,9.99999e-01
9.865456120e-01,8.50837e-01,9.99999e-01,9.78451e-01,8.69575e-01,9.99999e-01
9.914783401e-01,8.60317e-01,9.99999e-01,9.86626e-01,8.71978e-01,9.99999e-01
9.964357318e-01,8.67957e-01,9.99999e-01,9.92698e-01,8.74341e-01,9.99999e-01
1.001417910e+00,8.72826e-01,9.99999e-01,9.95621e-01,8.76663e-01,9.99999e-01
1.006425000e+00,8.76745e-01,9.99999e-01,9.97495e-01,8.78946e-01,9.99999e-01
1.011457125e+00,8.79823e-01,9.99999e-01,9.98449e-01,8.81189e-01,9.99999e-01
1.016514411e+00,8.82462e-01,9.99999e-01,9.98945e-01,8.83393e-01,9.99999e-01
1.021596983e+00,8.84788e-01,9.99969e-01,9.99158e-01,8.85559e-01,9.99999e-01
1.026704968e+00,8.85388e-01,9.98063e-01,9.99343e-01,8.87687e-01,9.99999e-01
1.031838492e+00,8.62327e-01,9.69597e-01,9.99524e-01,8.89779e-01,9.99999e-01
1.036997685e+00,2.47834e-01,2.77959e-01,9.99716e-01,8.91834e-01,9.99999e-01
1.042182673e+00,2.96590e-01,3.31916e-01,9.99660e-01,8.93852e-01,9.99999e-01
1.047393587e+00,2.73190e-01,3.05080e-01,9.99550e-01,8.95836e-01,9.99999e-01
1.052630555e+00,3.92316e-02,4.37196e-02,9.99382e-01,8.97784e-01,9.99999e-01
1.057893707e+00,7.56455e-02,8.41467e-02,9.98967e-01,8.99699e-01,9.99999e-01
1.063183176e+00,1.49278e-01,1.65801e-01,9.98303e-01,9.01579e-01,9.99999e-01
1.068499092e+00,2.69816e-01,2.99428e-01,9.97165e-01,9.03426e-01,9.99999e-01
1.073841587e+00,4.23492e-01,4.69245e-01,9.96673e-01,9.05240e-01,9.99999e-01
1.079210795e+00,5.60242e-01,6.20179e-01,9.95757e-01,9.07022e-01,9.99999e-01
1.084606849e+00,6.96151e-01,7.70875e-01,9.93568e-01,9.08772e-01,9.99999e-01
1.090029883e+00,7.88257e-01,8.73770e-01,9.90690e-01,9.10491e-01,9.99999e-01
1.095480033e+00,8.32364e-01,9.35864e-01,9.74901e-01,9.12179e-01,9.99998e-01
1.100957433e+00,8.29804e-01,9.68589e-01,9.37334e-01,9.13836e-01,9.99998e-01
1.106462220e+00,7.65362e-01,9.86923e-01,8.46902e-01,9.15464e-01,9.99997e-01
1.111994531e+00,6.43887e-01,9.95134e-01,7.05421e-01,9.17063e-01,9.99994e-01
1.117554504e+00,5.20658e-01,9.98817e-01,5.67380e-01,9.18632e-01,9.99992e-01
1.123142276e+00,6.03602e-01,9.99922e-01,6.56005e-01,9.20174e-01,9.99991e-01
1.128757988e+00,7.04871e-01,9.99999e-01,7.64768e-01,9.21687e-01,9.99990e-01
1.134401778e+00,4.91115e-01,9.99999e-01,5.31991e-01,9.23173e-01,9.99989e-01
1.140073787e+00,7.89281e-01,9.99999e-01,8.53623e-01,9.24632e-01,9.99991e-01
1.145774156e+00,6.64475e-01,9.99999e-01,7.17530e-01,9.26064e-01,9.99992e-01
1.151503026e+00,6.39012e-01,9.99999e-01,6.88987e-01,9.27470e-01,9.99993e-01
1.157260541e+00,6.84443e-01,9.99999e-01,7.36874e-01,9.28850e-01,9.99995e-01
1.163046844e+00,7.43199e-01,9.99999e-01,7.98964e-01,9.30205e-01,9.99996e-01
1.168862078e+00,7.97786e-01,9.99999e-01,8.56421e-01,9.31536e-01,9.99998e-01
1.174706389e+00,8.47752e-01,9.99999e-01,9.08784e-01,9.32842e-01,9.99998e-01
1.180579921e+00,8.81352e-01,9.99999e-01,9.43507e-01,9.34123e-01,9.99999e-01
1.186482820e+00,9.05158e-01,9.99994e-01,9.67692e-01,9.35382e-01,9.99999e-01
1.192415234e+00,9.12437e-01,9.93002e-01,9.81009e-01,9.36617e-01,9.99999e-01
1.198377311e+00,5.38628e-01,5.82196e-01,9.83934e-01,9.37829e-01,9.99999e-01
1.204369197e+00,9.74826e-07,1.04735e-06,9.84798e-01,9.39019e-01,9.99999e-01
1.210391043e+00,1.59899e-21,1.71459e-21,9.85468e-01,9.40186e-01,9.99999e-01
1.216442998e+00,7.10735e-19,7.60868e-19,9.87657e-01,9.41332e-01,9.99999e-01
1.222525213e+00,1.32848e-18,1.41673e-18,9.90372e-01,9.42457e-01,9.99999e-01
1.228637839e+00,2.55046e-14,2.71598e-14,9.93301e-01,9.43561e-01,9.99999e-01
1.234781029e+00,6.72513e-10,7.13498e-10,9.95029e-01,9.44644e-01,9.99999e-01
1.240954934e+00,1.06670e-06,1.13033e-06,9.96851e-01,9.45708e-01,9.99999e-01
1.247159708e+00,4.31788e-04,4.56867e-04,9.97550e-01,9.46751e-01,9.99999e-01
1.253395507e+00,1.36079e-02,1.43832e-02,9.97820e-01,9.47775e-01,9.99999e-01
1.259662485e+00,8.51855e-02,8.99470e-02,9.97924e-01,9.48779e-01,9.99999e-01
1.265960797e+00,2.35219e-01,2.48389e-01,9.96693e-01,9.49765e-01,9.99999e-01
1.272290601e+00,5.33671e-01,5.64133e-01,9.94786e-01,9.50733e-01,9.99999e-01
1.278652054e+00,4.65160e-01,4.93187e-01,9.89658e-01,9.51682e-01,9.99999e-01
1.285045314e+00,2.62435e-02,2.78142e-02,9.81277e-01,9.52613e-01,9.99999e-01
1.291470541e+00,3.19412e-03,3.43232e-03,9.67590e-01,9.53527e-01,9.99998e-01
1.297927893e+00,6.06076e-02,6.55062e-02,9.54182e-01,9.54424e-01,9.99998e-01
1.304417533e+00,3.20527e-01,3.53470e-01,9.46279e-01,9.55304e-01,9.99997e-01
1.310939621e+00,6.04171e-02,6.57141e-02,9.32535e-01,9.56167e-01,9.99995e-01
1.317494319e+00,7.07233e-08,7.72232e-08,9.33802e-01,9.57014e-01,9.99993e-01
1.324081790e+00,6.12095e-05,6.71336e-05,9.03609e-01,9.57845e-01,9.99989e-01
1.330702199e+00,1.55297e-03,2.10809e-03,6.36200e-01,9.58660e-01,9.99983e-01
1.337355710e+00,9.75432e-04,2.30911e-03,3.03732e-01,9.59460e-01,9.99968e-01
1.344042489e+00,4.20143e-05,3.44155e-04,4.52411e-02,9.60244e-01,9.99932e-01
1.350762701e+00,1.00744e-05,1.63455e-03,2.98476e-03,9.61014e-01,9.99893e-01
1.357516515e+00,1.30886e-05,1.48433e-02,4.46483e-04,9.61769e-01,9.99867e-01
1.364304097e+00,5.37789e-04,7.20799e-02,5.55871e-03,9.62510e-01,9.99858e-01
1.371125618e+00,9.36384e-03,2.50097e-01,3.11787e-02,9.63237e-01,9.99857e-01
1.377981246e+00,1.76511e-02,3.28935e-01,5.04253e-02,9.63950e-01,9.99846e-01
1.384871152e+00,2.57807e-03,5.23916e-01,4.62197e-03,9.64649e-01,9.99850e-01
1.391795508e+00,4.33753e-03,5.50593e-01,7.47798e-03,9.65335e-01,9.99873e-01
1.398754485e+00,1.01086e-02,6.92861e-01,1.46824e-02,9.66008e-01,9.99891e-01
1.405748258e+00,1.02377e-02,7.63046e-01,1.33125e-02,9.66668e-01,9.99902e-01
1.412776999e+00,1.29600e-02,8.43360e-01,1.55029e-02,9.67315e-01,9.99921e-01
1.419840884e+00,1.67724e-02,7.75808e-01,1.97001e-02,9.67951e-01,9.99941e-01
1.426940089e+00,1.26609e-02,1.01900e-01,4.76810e-02,9.68573e-01,9.99963e-01
1.434074789e+00,2.32209e-304,9.39520e-304,9.67481e-02,9.69185e-01,9.99977e-01
1.441245163e+00,0.00000e+00,0.00000e+00,1.76147e-01,9.69784e-01,9.99982e-01
1.448451389e+00,0.00000e+00,0.00000e+00,2.87623e-01,9.70372e-01,9.99985e-01
1.455693646e+00,4.75942e-165,7.34278e-165,4.50301e-01,9.70948e-01,9.99987e-01
1.462972114e+00,1.21600e-80,1.87495e-80,5.03982e-01,9.71514e-01,9.99989e-01
1.470286975e+00,1.27810e-34,2.03517e-34,4.48575e-01,9.72069e-01,9.99990e-01
