#,Wave/freq,Total,CO2,H2O,Rayleigh,CIA
4.000000000e-01,2.78036e-05,9.99999e-01,9.99978e-01,2.78042e-05,9.99999e-01
4.020000000e-01,3.42128e-05,9.99999e-01,9.99986e-01,3.42132e-05,9.99999e-01
4.040100000e-01,4.19182e-05,9.99999e-01,9.99994e-01,4.19184e-05,9.99999e-01
4.060300500e-01,5.11531e-05,9.99999e-01,9.99998e-01,5.11532e-05,9.99999e-01
4.080602003e-01,6.21775e-05,9.99999e-01,9.99999e-01,6.21775e-05,9.99999e-01
4.101005013e-01,7.52869e-05,9.99999e-01,9.99999e-01,7.52869e-05,9.99999e-01
4.121510038e-01,9.08164e-05,9.99999e-01,9.99998e-01,9.08164e-05,9.99999e-01
4.142117588e-01,1.09144e-04,9.99999e-01,9.99993e-01,1.09144e-04,9.99999e-01
4.162828176e-01,1.30692e-04,9.99999e-01,9.99974e-01,1.30695e-04,9.99999e-01
4.183642317e-01,1.55943e-04,9.99999e-01,9.99984e-01,1.55946e-04,9.99999e-01
4.204560528e-01,1.85425e-04,9.99999e-01,9.99990e-01,1.85426e-04,9.99999e-01
4.225583331e-01,2.19727e-04,9.99999e-01,9.99996e-01,2.19728e-04,9.99999e-01
4.246711247e-01,2.59502e-04,9.99999e-01,9.99996e-01,2.59502e-04,9.99999e-01
4.267944804e-01,3.05470e-04,9.99999e-01,9.99995e-01,3.05472e-04,9.99999e-01
4.289284528e-01,3.58427e-04,9.99999e-01,9.99996e-01,3.58428e-04,9.99999e-01
4.310730950e-01,4.19237e-04,9.99999e-01,9.99998e-01,4.19238e-04,9.99999e-01
4.332284605e-01,4.88850e-04,9.99999e-01,9.99999e-01,4.88850e-04,9.99999e-01
4.353946028e-01,5.68293e-04,9.99999e-01,9.99999e-01,5.68293e-04,9.99999e-01
4.375715758e-01,6.58683e-04,9.99999e-01,9.99997e-01,6.58685e-04,9.99999e-01
4.397594337e-01,7.61214e-04,9.99999e-01,9.99977e-01,7.61231e-04,9.99999e-01
4.419582309e-01,8.77133e-04,9.99999e-01,9.99887e-01,8.77232e-04,9.99999e-01
4.441680220e-01,1.00799e-03,9.99999e-01,9.99910e-01,1.00808e-03,9.99999e-01
4.463888621e-01,1.15516e-03,9.99999e-01,9.99907e-01,1.15527e-03,9.99999e-01
4.486208064e-01,1.32032e-03,9.99999e-01,9.99942e-01,1.32039e-03,9.99999e-01
4.508639105e-01,1.50510e-03,9.99999e-01,9.99972e-01,1.50514e-03,9.99999e-01
4.531182300e-01,1.71128e-03,9.99999e-01,9.99988e-01,1.71130e-03,9.99999e-01
4.553838212e-01,1.94076e-03,9.99999e-01,9.99992e-01,1.94077e-03,9.99999e-01
4.576607403e-01,2.19555e-03,9.99999e-01,9.99996e-01,2.19555e-03,9.99999e-01
4.599490440e-01,2.47773e-03,9.99999e-01,9.99997e-01,2.47774e-03,9.99999e-01
4.622487892e-01,2.78952e-03,9.99999e-01,9.99999e-01,2.78952e-03,9.99999e-01
4.645600332e-01,3.13318e-03,9.99999e-01,9.99997e-01,3.13319e-03,9.99999e-01
4.668828333e-01,3.51103e-03,9.99999e-01,9.99972e-01,3.51113e-03,9.99999e-01
4.692172475e-01,3.92559e-03,9.99999e-01,9.99941e-01,3.92582e-03,9.99999e-01
4.715633337e-01,4.37965e-03,9.99999e-01,9.99961e-01,4.37982e-03,9.99999e-01
4.739211504e-01,4.87559e-03,9.99999e-01,9.99963e-01,4.87577e-03,9.99999e-01
4.762907561e-01,5.41629e-03,9.99999e-01,9.99980e-01,5.41639e-03,9.99999e-01
4.786722099e-01,6.00442e-03,9.99999e-01,9.99991e-01,6.00447e-03,9.99999e-01
4.810655710e-01,6.64285e-03,9.99999e-01,9.99997e-01,6.64286e-03,9.99999e-01
4.834708988e-01,7.33432e-03,9.99999e-01,9.99977e-01,7.33448e-03,9.99999e-01
4.858882533e-01,8.08194e-03,9.99999e-01,9.99958e-01,8.08227e-03,9.99999e-01
4.883176946e-01,8.88894e-03,9.99999e-01,9.99965e-01,8.88924e-03,9.99999e-01
4.907592831e-01,9.75812e-03,9.99999e-01,9.99968e-01,9.75843e-03,9.99999e-01
4.932130795e-01,1.06926e-02,9.99999e-01,9.99977e-01,1.06929e-02,9.99999e-01
4.956791449e-01,1.16955e-02,9.99999e-01,9.99987e-01,1.16957e-02,9.99999e-01
4.981575406e-01,1.27691e-02,9.99999e-01,9.99941e-01,1.27699e-02,9.99999e-01
5.006483283e-01,1.39165e-02,9.99999e-01,9.99849e-01,1.39185e-02,9.99999e-01
5.031515699e-01,1.51332e-02,9.99999e-01,9.99237e-01,1.51448e-02,9.99999e-01
5.056673278e-01,1.64449e-02,9.99999e-01,9.99596e-01,1.64515e-02,9.99999e-01
5.081956644e-01,1.78328e-02,9.99999e-01,9.99490e-01,1.78419e-02,9.99999e-01
5.107366428e-01,1.93121e-02,9.99999e-01,9.99655e-01,1.93188e-02,9.99999e-01
5.132903260e-01,2.08809e-02,9.99999e-01,9.99802e-01,2.08850e-02,9.99999e-01
5.158567776e-01,2.25417e-02,9.99999e-01,9.99916e-01,2.25436e-02,9.99999e-01
5.184360615e-01,2.42963e-02,9.99999e-01,9.99966e-01,2.42971e-02,9.99999e-01
5.210282418e-01,2.61480e-02,9.99999e-01,9.99987e-01,2.61483e-02,9.99999e-01
5.236333830e-01,2.80984e-02,9.99999e-01,9.99949e-01,2.80998e-02,9.99999e-01
5.262515499e-01,3.01531e-02,9.99999e-01,9.99968e-01,3.01540e-02,9.99999e-01
5.288828077e-01,3.23124e-02,9.99999e-01,9.99971e-01,3.23133e-02,9.99999e-01
5.315272217e-01,3.45792e-02,9.99999e-01,9.99974e-01,3.45800e-02,9.99999e-01
5.341848578e-01,3.69556e-02,9.99999e-01,9.99983e-01,3.69562e-02,9.99999e-01
5.368557821e-01,3.94415e-02,9.99999e-01,9.99941e-01,3.94438e-02,9.99999e-01
5.395400610e-01,4.20360e-02,9.99999e-01,9.99791e-01,4.20448e-02,9.99999e-01
5.422377613e-01,4.47486e-02,9.99999e-01,9.99728e-01,4.47607e-02,9.99999e-01
5.449489501e-01,4.75813e-02,9.99999e-01,9.99748e-01,4.75932e-02,9.99999e-01
5.476736949e-01,5.05324e-02,9.99999e-01,9.99776e-01,5.05437e-02,9.99999e-01
5.504120634e-01,5.36046e-02,9.99999e-01,9.99837e-01,5.36133e-02,9.99999e-01
5.531641237e-01,5.67985e-02,9.99999e-01,9.99918e-01,5.68032e-02,9.99999e-01
5.559299443e-01,6.01118e-02,9.99999e-01,9.99960e-01,6.01142e-02,9.99999e-01
5.587095940e-01,6.35454e-02,9.99999e-01,9.99974e-01,6.35470e-02,9.99999e-01
5.615031420e-01,6.71004e-02,9.99999e-01,9.99972e-01,6.71022e-02,9.99999e-01
5.643106577e-01,7.07780e-02,9.99999e-01,9.99968e-01,7.07802e-02,9.99999e-01
5.671322110e-01,7.45532e-02,9.99999e-01,9.99626e-01,7.45811e-02,9.99999e-01
5.699678720e-01,7.84733e-02,9.99999e-01,9.99596e-01,7.85050e-02,9.99999e-01
5.728177114e-01,8.25172e-02,9.99999e-01,9.99582e-01,8.25516e-02,9.99999e-01
5.756818000e-01,8.66875e-02,9.99999e-01,9.99615e-01,8.67207e-02,9.99999e-01
5.785602090e-01,9.09813e-02,9.99999e-01,9.99664e-01,9.10118e-02,9.99999e-01
5.814530100e-01,9.53921e-02,9.99999e-01,9.99663e-01,9.54241e-02,9.99999e-01
5.843602750e-01,9.99170e-02,9.99999e-01,9.99601e-01,9.99568e-02,9.99999e-01
5.872820764e-01,1.04249e-01,9.99999e-01,9.96562e-01,1.04609e-01,9.99999e-01
5.902184868e-01,1.08922e-01,9.99999e-01,9.95816e-01,1.09379e-01,9.99999e-01
5.931695792e-01,1.13929e-01,9.99999e-01,9.97047e-01,1.14266e-01,9.99999e-01
5.961354271e-01,1.18882e-01,9.99999e-01,9.96760e-01,1.19269e-01,9.99999e-01
5.991161043e-01,1.24091e-01,9.99999e-01,9.97635e-01,1.24385e-01,9.99999e-01
6.021116848e-01,1.29439e-01,9.99999e-01,9.98656e-01,1.29613e-01,9.99999e-01
6.051222432e-01,1.34859e-01,9.99999e-01,9.99319e-01,1.34951e-01,9.99999e-01
6.081478544e-01,1.40355e-01,9.99999e-01,9.99706e-01,1.40397e-01,9.99999e-01
6.111885937e-01,1.45930e-01,9.99999e-01,9.99875e-01,1.45948e-01,9.99999e-01
6.142445367e-01,1.51594e-01,9.99999e-01,9.99944e-01,1.51603e-01,9.99999e-01
6.173157594e-01,1.57354e-01,9.99999e-01,9.99968e-01,1.57359e-01,9.99999e-01
6.204023382e-01,1.63208e-01,9.99999e-01,9.99973e-01,1.63213e-01,9.99999e-01
6.235043498e-01,1.69143e-01,9.99999e-01,9.99886e-01,1.69162e-01,9.99999e-01
6.266218716e-01,1.75100e-01,9.99999e-01,9.99398e-01,1.75205e-01,9.99999e-01
6.297549810e-01,1.81298e-01,9.99999e-01,9.99779e-01,1.81338e-01,9.99999e-01
6.329037559e-01,1.87476e-01,9.99999e-01,9.99563e-01,1.87558e-01,9.99999e-01
6.360682746e-01,1.93790e-01,9.99999e-01,9.99628e-01,1.93862e-01,9.99999e-01
6.392486160e-01,2.00151e-01,9.99999e-01,9.99518e-01,2.00247e-01,9.99999e-01
6.424448591e-01,2.06578e-01,9.99999e-01,9.99358e-01,2.06710e-01,9.99999e-01
6.456570834e-01,2.12614e-01,9.99999e-01,9.97023e-01,2.13248e-01,9.99999e-01
6.488853688e-01,2.19376e-01,9.99999e-01,9.97807e-01,2.19858e-01,9.99999e-01
6.521297956e-01,2.26029e-01,9.99999e-01,9.97764e-01,2.26535e-01,9.99999e-01
6.553904446e-01,2.32763e-01,9.99999e-01,9.97790e-01,2.33278e-01,9.99999e-01
6.586673968e-01,2.39625e-01,9.99999e-01,9.98094e-01,2.40082e-01,9.99999e-01
6.619607338e-01,2.46672e-01,9.99999e-01,9.98898e-01,2.46944e-01,9.99999e-01
6.652705375e-01,2.53699e-01,9.99999e-01,9.99361e-01,2.53861e-01,9.99999e-01
6.685968902e-01,2.60753e-01,9.99999e-01,9.99703e-01,2.60830e-01,9.99999e-01
6.719398746e-01,2.67810e-01,9.99999e-01,9.99862e-01,2.67846e-01,9.99999e-01
6.752995740e-01,2.74887e-01,9.99999e-01,9.99925e-01,2.74907e-01,9.99999e-01
6.786760719e-01,2.81979e-01,9.99999e-01,9.99892e-01,2.82010e-01,9.99999e-01
6.820694522e-01,2.89097e-01,9.99999e-01,9.99816e-01,2.89150e-01,9.99999e-01
6.854797995e-01,2.96254e-01,9.99999e-01,9.99763e-01,2.96324e-01,9.99999e-01
6.889071985e-01,3.03357e-01,9.99999e-01,9.99432e-01,3.03529e-01,9.99999e-01
6.923517345e-01,3.07872e-01,9.99999e-01,9.90700e-01,3.10762e-01,9.99999e-01
6.958134932e-01,3.16462e-01,9.99999e-01,9.95101e-01,3.18020e-01,9.99999e-01
6.992925606e-01,3.23801e-01,9.99999e-01,9.95396e-01,3.25298e-01,9.99999e-01
7.027890234e-01,3.30697e-01,9.99999e-01,9.94293e-01,3.32595e-01,9.99999e-01
7.063029686e-01,3.38276e-01,9.99999e-01,9.95203e-01,3.39906e-01,9.99999e-01
7.098344834e-01,3.45631e-01,9.99999e-01,9.95397e-01,3.47229e-01,9.99999e-01
7.133836558e-01,3.52401e-01,9.99999e-01,9.93910e-01,3.54560e-01,9.99999e-01
7.169505741e-01,3.44449e-01,9.99999e-01,9.51787e-01,3.61897e-01,9.99998e-01
7.205353270e-01,3.60335e-01,9.99999e-01,9.75894e-01,3.69236e-01,9.99998e-01
7.241380036e-01,3.65176e-01,9.99999e-01,9.69732e-01,3.76574e-01,9.99998e-01
7.277586936e-01,3.73403e-01,9.99999e-01,9.72633e-01,3.83909e-01,9.99998e-01
7.313974871e-01,3.79826e-01,9.99999e-01,9.70830e-01,3.91238e-01,9.99999e-01
7.350544745e-01,3.92175e-01,9.99999e-01,9.83985e-01,3.98558e-01,9.99999e-01
7.387297469e-01,4.01073e-01,9.99999e-01,9.88190e-01,4.05866e-01,9.99999e-01
7.424233956e-01,4.10763e-01,9.99999e-01,9.94199e-01,4.13160e-01,9.99999e-01
7.461355126e-01,4.18959e-01,9.99999e-01,9.96485e-01,4.20437e-01,9.99999e-01
7.498661902e-01,4.26993e-01,9.99999e-01,9.98359e-01,4.27694e-01,9.99999e-01
7.536155211e-01,4.34581e-01,9.99999e-01,9.99196e-01,4.34930e-01,9.99999e-01
7.573835987e-01,4.41959e-01,9.99999e-01,9.99586e-01,4.42142e-01,9.99999e-01
7.611705167e-01,4.49212e-01,9.99999e-01,9.99742e-01,4.49327e-01,9.99999e-01
7.649763693e-01,4.56410e-01,9.99999e-01,9.99838e-01,4.56484e-01,9.99999e-01
7.688012511e-01,4.63558e-01,9.99999e-01,9.99887e-01,4.63610e-01,9.99999e-01
7.726452574e-01,4.70659e-01,9.99999e-01,9.99907e-01,4.70703e-01,9.99999e-01
7.765084837e-01,4.77699e-01,9.99999e-01,9.99869e-01,4.77761e-01,9.99999e-01
7.803910261e-01,4.68367e-01,9.66663e-01,9.99436e-01,4.84783e-01,9.99999e-01
7.842929812e-01,4.21048e-01,8.57798e-01,9.98036e-01,4.91766e-01,9.99999e-01
7.882144461e-01,4.21761e-01,8.49016e-01,9.95938e-01,4.98709e-01,9.99999e-01
7.921555184e-01,4.58578e-01,9.08964e-01,9.97764e-01,5.05609e-01,9.99999e-01
7.961162960e-01,4.78752e-01,9.37856e-01,9.96075e-01,5.12467e-01,9.99999e-01
8.000968774e-01,4.99276e-01,9.65856e-01,9.95454e-01,5.19278e-01,9.99999e-01
8.040973618e-01,5.14300e-01,9.82128e-01,9.95456e-01,5.26044e-01,9.99999e-01
8.081178486e-01,5.23006e-01,9.91776e-01,9.89815e-01,5.32761e-01,9.99999e-01
8.121584379e-01,5.15530e-01,9.97441e-01,9.58122e-01,5.39429e-01,9.99998e-01
8.162192301e-01,5.18566e-01,9.99434e-01,9.50202e-01,5.46046e-01,9.99998e-01
8.203003262e-01,5.38841e-01,9.99990e-01,9.75090e-01,5.52611e-01,9.99998e-01
8.244018279e-01,5.39477e-01,9.99999e-01,9.64863e-01,5.59123e-01,9.99998e-01
8.285238370e-01,5.48671e-01,9.99999e-01,9.70102e-01,5.65581e-01,9.99998e-01
8.326664562e-01,5.54658e-01,9.99999e-01,9.69709e-01,5.71983e-01,9.99999e-01
8.368297885e-01,5.65760e-01,9.99999e-01,9.78264e-01,5.78330e-01,9.99999e-01
8.410139374e-01,5.77038e-01,9.99999e-01,9.87031e-01,5.84619e-01,9.99999e-01
8.452190071e-01,5.87081e-01,9.99999e-01,9.93618e-01,5.90851e-01,9.99999e-01
8.494451021e-01,5.94816e-01,9.99999e-01,9.96301e-01,5.97024e-01,9.99999e-01
8.536923276e-01,6.01816e-01,9.99999e-01,9.97807e-01,6.03138e-01,9.99999e-01
8.579607893e-01,6.08371e-01,9.99999e-01,9.98651e-01,6.09192e-01,9.99999e-01
8.622505932e-01,6.14657e-01,9.99999e-01,9.99142e-01,6.15185e-01,9.99999e-01
8.665618462e-01,5.75030e-01,9.26271e-01,9.99470e-01,6.21117e-01,9.99999e-01
8.708946554e-01,4.24898e-01,6.78077e-01,9.99394e-01,6.26987e-01,9.99999e-01
8.752491287e-01,4.62034e-01,7.30721e-01,9.99189e-01,6.32795e-01,9.99999e-01
8.796253743e-01,5.36798e-01,8.41577e-01,9.98879e-01,6.38541e-01,9.99999e-01
8.840235012e-01,5.88377e-01,9.14463e-01,9.98719e-01,6.44224e-01,9.99999e-01
8.884436187e-01,6.24427e-01,9.65309e-01,9.95375e-01,6.49843e-01,9.99999e-01
8.928858368e-01,6.15138e-01,9.85822e-01,9.51950e-01,6.55400e-01,9.99998e-01
8.973502660e-01,6.03397e-01,9.96527e-01,9.16120e-01,6.60892e-01,9.99998e-01
9.018370173e-01,6.36830e-01,9.99616e-01,9.56097e-01,6.66321e-01,9.99998e-01
9.063462024e-01,6.39864e-01,9.90365e-01,9.61598e-01,6.71686e-01,9.99998e-01
9.108779334e-01,6.22764e-01,9.77743e-01,9.40585e-01,6.76987e-01,9.99997e-01
9.154323231e-01,6.33026e-01,9.94706e-01,9.32718e-01,6.82223e-01,9.99997e-01
9.200094847e-01,6.04915e-01,9.26749e-01,9.46834e-01,6.87396e-01,9.99997e-01
9.246095321e-01,5.71116e-01,8.95732e-01,9.18899e-01,6.92504e-01,9.99995e-01
9.292325798e-01,3.66119e-01,9.17767e-01,5.66736e-01,6.97549e-01,9.99991e-01
9.338787427e-01,3.12470e-01,9.19986e-01,4.79157e-01,7.02529e-01,9.99989e-01
9.385481364e-01,4.96141e-01,9.40569e-01,7.42957e-01,7.07446e-01,9.99988e-01
9.432408771e-01,4.56090e-01,9.63128e-01,6.63441e-01,7.12298e-01,9.99987e-01
9.479570815e-01,4.00402e-01,9.80940e-01,5.68632e-01,7.17088e-01,9.99989e-01
9.526968669e-01,4.67348e-01,9.90756e-01,6.52964e-01,7.21814e-01,9.99991e-01
9.574603512e-01,4.88638e-01,9.96036e-01,6.75114e-01,7.26476e-01,9.99993e-01
9.622476530e-01,5.29996e-01,9.98761e-01,7.25800e-01,7.31076e-01,9.99995e-01
9.670588912e-01,6.11391e-01,9.99628e-01,8.31425e-01,7.35614e-01,9.99997e-01
9.718941857e-01,6.59412e-01,9.99973e-01,8.91013e-01,7.40089e-01,9.99998e-01
9.767536566e-01,6.76510e-01,9.99999e-01,9.08674e-01,7.44502e-01,9.99998e-01
9.816374249e-01,6.97485e-01,9.99999e-01,9.31404e-01,7.48853e-01,9.99998e-01
9.865456120e-01,7.20436e-01,9.99999e-01,9.56571e-01,7.53143e-01,9.99999e-01
9.914783401e-01,7.36881e-01,9.99999e-01,9.72943e-01,7.57373e-01,9.99999e-01
9.964357318e-01,7.50251e-01,9.99999e-01,9.85173e-01,7.61541e-01,9.99999e-01
1.001417910e+00,7.58827e-01,9.99999e-01,9.91088e-01,7.65650e-01,9.99999e-01
1.006425000e+00,7.65787e-01,9.99999e-01,9.94916e-01,7.69699e-01,9.99999e-01
1.011457125e+00,7.71243e-01,9.99999e-01,9.96838e-01,7.73689e-01,9.99999e-01
1.016514411e+00,7.75952e-01,9.99999e-01,9.97854e-01,7.77620e-01,9.99999e-01
1.021596983e+00,7.80120e-01,9.99951e-01,9.98290e-01,7.81493e-01,9.99999e-01
1.026704968e+00,7.81316e-01,9.96242e-01,9.98667e-01,7.85308e-01,9.99999e-01
1.031838492e+00,7.54523e-01,9.57122e-01,9.99029e-01,7.89066e-01,9.99999e-01
1.036997685e+00,1.20436e-01,1.51988e-01,9.99424e-01,7.92767e-01,9.99999e-01
1.042182673e+00,9.27889e-02,1.16579e-01,9.99314e-01,7.96412e-01,9.99999e-01
1.047393587e+00,1.11851e-01,1.39926e-01,9.99090e-01,8.00001e-01,9.99999e-01
1.052630555e+00,2.99035e-03,3.72489e-03,9.98753e-01,8.03535e-01,9.99999e-01
1.057893707e+00,7.59673e-03,9.42651e-03,9.97921e-01,8.07014e-01,9.99999e-01
1.063183176e+00,2.59206e-02,3.20616e-02,9.96578e-01,8.10439e-01,9.99999e-01
1.068499092e+00,7.41389e-02,9.15407e-02,9.94272e-01,8.13811e-01,9.99999e-01
1.073841587e+00,1.78806e-01,2.20074e-01,9.93305e-01,8.17129e-01,9.99999e-01
1.079210795e+00,3.12150e-01,3.83485e-01,9.91413e-01,8.20395e-01,9.99999e-01
1.084606849e+00,4.79633e-01,5.89640e-01,9.87039e-01,8.23610e-01,9.99999e-01
1.090029883e+00,6.17225e-01,7.60240e-01,9.81483e-01,8.26773e-01,9.99998e-01
1.095480033e+00,6.89305e-01,8.73564e-01,9.50289e-01,8.29885e-01,9.99998e-01
1.100957433e+00,6.86079e-01,9.36963e-01,8.78495e-01,8.32947e-01,9.99997e-01
1.106462220e+00,5.86665e-01,9.73418e-01,7.20255e-01,8.35960e-01,9.99994e-01
1.111994531e+00,4.16904e-01,9.90064e-01,5.01582e-01,8.38924e-01,9.99989e-01
1.117554504e+00,2.75915e-01,9.97559e-01,3.28408e-01,8.41839e-01,9.99985e-01
1.123142276e+00,3.74379e-01,9.99838e-01,4.43246e-01,8.44707e-01,9.99983e-01
1.128757988e+00,5.01878e-01,9.99999e-01,5.92177e-01,8.47528e-01,9.99981e-01
1.134401778e+00,2.81835e-01,9.99999e-01,3.31460e-01,8.50302e-01,9.99979e-01
1.140073787e+00,6.23168e-01,9.99999e-01,7.30546e-01,8.53030e-01,9.99983e-01
1.145774156e+00,4.45699e-01,9.99999e-01,5.20858e-01,8.55712e-01,9.99986e-01
1.151503026e+00,4.15870e-01,9.99999e-01,4.84504e-01,8.58350e-01,9.99987e-01
1.157260541e+00,4.68075e-01,9.99999e-01,5.43681e-01,8.60944e-01,9.99990e-01
1.163046844e+00,5.49763e-01,9.99999e-01,6.36676e-01,8.63494e-01,9.99993e-01
1.168862078e+00,6.32371e-01,9.99999e-01,7.30221e-01,8.66000e-01,9.99996e-01
1.174706389e+00,7.15306e-01,9.99999e-01,8.23644e-01,8.68465e-01,9.99998e-01
1.180579921e+00,7.73790e-01,9.99999e-01,8.88508e-01,8.70888e-01,9.99998e-01
1.186482820e+00,8.16858e-01,9.99993e-01,9.35408e-01,8.73269e-01,9.99998e-01
1.192415234e+00,8.31078e-01,9.86683e-01,9.61805e-01,8.75609e-01,9.99998e-01
1.198377311e+00,4.79717e-01,5.61619e-01,9.67743e-01,8.77910e-01,9.99998e-01
1.204369197e+00,2.36288e-11,2.73311e-11,9.69437e-01,8.80171e-01,9.99999e-01
1.210391043e+00,2.47253e-41,2.84860e-41,9.70750e-01,8.82393e-01,9.99999e-01
1.216442998e+00,5.67954e-36,6.52163e-36,9.75035e-01,8.84576e-01,9.99999e-01
1.222525213e+00,1.88085e-35,2.14268e-35,9.80522e-01,8.86722e-01,9.99999e-01
1.228637839e+00,1.84792e-27,2.09877e-27,9.86441e-01,8.88830e-01,9.99999e-01
1.234781029e+00,8.44053e-18,9.51566e-18,9.89908e-01,8.90901e-01,9.99999e-01
1.240954934e+00,4.93627e-12,5.55104e-12,9.93611e-01,8.92936e-01,9.99999e-01
1.247159708e+00,1.10100e-06,1.23395e-06,9.95020e-01,8.94936e-01,9.99999e-01
1.253395507e+00,2.52497e-04,2.82455e-04,9.95581e-01,8.96900e-01,9.99999e-01
1.259662485e+00,8.24855e-03,9.20795e-03,9.95807e-01,8.98830e-01,9.99999e-01
1.265960797e+00,5.92176e-02,6.60970e-02,9.93299e-01,9.00726e-01,9.99999e-01
1.272290601e+00,2.59014e-01,2.89530e-01,9.90165e-01,9.02588e-01,9.99999e-01
1.278652054e+00,2.42120e-01,2.72174e-01,9.79308e-01,9.04417e-01,9.99999e-01
1.285045314e+00,6.43825e-03,7.22472e-03,9.67620e-01,9.06213e-01,9.99998e-01
1.291470541e+00,1.50031e-05,1.72390e-05,9.35930e-01,9.07978e-01,9.99998e-01
1.297927893e+00,3.93667e-03,4.51655e-03,9.17169e-01,9.09711e-01,9.99997e-01
1.304417533e+00,1.01790e-01,1.23357e-01,8.94555e-01,9.11413e-01,9.99995e-01
1.310939621e+00,2.57431e-02,3.04297e-02,8.80454e-01,9.13084e-01,9.99992e-01
1.317494319e+00,1.05149e-14,1.24567e-14,8.70631e-01,9.14726e-01,9.99987e-01
1.324081790e+00,3.30753e-10,3.98150e-10,8.13143e-01,9.16337e-01,9.99979e-01
1.330702199e+00,3.49893e-06,5.68513e-06,4.50756e-01,9.17920e-01,9.99966e-01
1.337355710e+00,1.78226e-06,7.46959e-06,1.25865e-01,9.19474e-01,9.99936e-01
1.344042489e+00,2.84028e-07,2.30437e-06,7.48089e-03,9.21000e-01,9.99864e-01
1.350762701e+00,4.14247e-10,3.47410e-06,3.13485e-05,9.22499e-01,9.99783e-01
1.357516515e+00,6.15785e-10,3.19258e-04,4.45377e-07,9.23970e-01,9.99732e-01
1.364304097e+00,8.45647e-07,5.24167e-03,8.22471e-05,9.25414e-01,9.99713e-01
1.371125618e+00,1.78208e-04,6.46536e-02,1.78594e-03,9.26832e-01,9.99711e-01
1.377981246e+00,5.81990e-04,1.05717e-01,4.54982e-03,9.28224e-01,9.99689e-01
1.384871152e+00,3.84358e-05,2.70407e-01,1.20427e-04,9.29591e-01,9.99692e-01
1.391795508e+00,3.90505e-05,2.98484e-01,1.11031e-04,9.30932e-01,9.99736e-01
1.398754485e+00,2.48352e-04,4.74071e-01,5.22038e-04,9.32249e-01,9.99780e-01
1.405748258e+00,2.89160e-04,5.77126e-01,4.86758e-04,9.33542e-01,9.99802e-01
1.412776999e+00,3.44481e-04,7.06504e-01,4.84018e-04,9.34811e-01,9.99841e-01
1.419840884e+00,6.13934e-04,6.37697e-01,8.38658e-04,9.36056e-01,9.99881e-01
1.426940089e+00,1.17040e-03,5.85795e-02,3.80568e-03,9.37279e-01,9.99926e-01
1.434074789e+00,0.00000e+00,0.00000e+00,1.42696e-02,9.38479e-01,9.99953e-01
1.441245163e+00,0.00000e+00,0.00000e+00,3.67378e-02,9.39657e-01,9.99964e-01
1.448451389e+00,0.00000e+00,0.00000e+00,9.65481e-02,9.40812e-01,9.99970e-01
1.455693646e+00,0.00000e+00,0.00000e+00,2.09419e-01,9.41947e-01,9.99975e-01
1.462972114e+00,3.22497e-161,7.76032e-161,2.59779e-01,9.43060e-01,9.99978e-01
1.470286975e+00,6.71997e-68,1.72355e-67,2.07821e-01,9.44153e-01,9.99980e-01
