#,Wave/freq,Total,CO2,H2O,Rayleigh,CIA
4.000000000e-01,3.40718e-03,9.99999e-01,9.99988e-01,3.40722e-03,9.99999e-01
4.020000000e-01,3.81230e-03,9.99999e-01,9.99992e-01,3.81232e-03,9.99999e-01
4.040100000e-01,4.25565e-03,9.99999e-01,9.99996e-01,4.25566e-03,9.99999e-01
4.060300500e-01,4.74024e-03,9.99999e-01,9.99998e-01,4.74025e-03,9.99999e-01
4.080602003e-01,5.26877e-03,9.99999e-01,9.99999e-01,5.26878e-03,9.99999e-01
4.101005013e-01,5.84402e-03,9.99999e-01,9.99999e-01,5.84402e-03,9.99999e-01
4.121510038e-01,6.46881e-03,9.99999e-01,9.99999e-01,6.46881e-03,9.99999e-01
4.142117588e-01,7.14603e-03,9.99999e-01,9.99996e-01,7.14605e-03,9.99999e-01
4.162828176e-01,7.87858e-03,9.99999e-01,9.99985e-01,7.87868e-03,9.99999e-01
4.183642317e-01,8.66963e-03,9.99999e-01,9.99991e-01,8.66970e-03,9.99999e-01
4.204560528e-01,9.52207e-03,9.99999e-01,9.99994e-01,9.52212e-03,9.99999e-01
4.225583331e-01,1.04390e-02,9.99999e-01,9.99997e-01,1.04390e-02,9.99999e-01
4.246711247e-01,1.14234e-02,9.99999e-01,9.99997e-01,1.14234e-02,9.99999e-01
4.267944804e-01,1.24784e-02,9.99999e-01,9.99997e-01,1.24784e-02,9.99999e-01
4.289284528e-01,1.36070e-02,9.99999e-01,9.99997e-01,1.36070e-02,9.99999e-01
4.310730950e-01,1.48124e-02,9.99999e-01,9.99998e-01,1.48124e-02,9.99999e-01
4.332284605e-01,1.60976e-02,9.99999e-01,9.99999e-01,1.60976e-02,9.99999e-01
4.353946028e-01,1.74655e-02,9.99999e-01,9.99999e-01,1.74655e-02,9.99999e-01
4.375715758e-01,1.89192e-02,9.99999e-01,9.99998e-01,1.89192e-02,9.99999e-01
4.397594337e-01,2.04613e-02,9.99999e-01,9.99987e-01,2.04616e-02,9.99999e-01
4.419582309e-01,2.20940e-02,9.99999e-01,9.99936e-01,2.20954e-02,9.99999e-01
4.441680220e-01,2.38224e-02,9.99999e-01,9.99952e-01,2.38235e-02,9.99999e-01
4.463888621e-01,2.56474e-02,9.99999e-01,9.99949e-01,2.56486e-02,9.99999e-01
4.486208064e-01,2.75725e-02,9.99999e-01,9.99968e-01,2.75733e-02,9.99999e-01
4.508639105e-01,2.95997e-02,9.99999e-01,9.99985e-01,2.96001e-02,9.99999e-01
4.531182300e-01,3.17312e-02,9.99999e-01,9.99993e-01,3.17314e-02,9.99999e-01
4.553838212e-01,3.39693e-02,9.99999e-01,9.99995e-01,3.39694e-02,9.99999e-01
4.576607403e-01,3.63164e-02,9.99999e-01,9.99997e-01,3.63164e-02,9.99999e-01
4.599490440e-01,3.87743e-02,9.99999e-01,9.99998e-01,3.87743e-02,9.99999e-01
4.622487892e-01,4.13451e-02,9.99999e-01,9.99999e-01,4.13451e-02,9.99999e-01
4.645600332e-01,4.40304e-02,9.99999e-01,9.99998e-01,4.40305e-02,9.99999e-01
4.668828333e-01,4.68313e-02,9.99999e-01,9.99984e-01,4.68320e-02,9.99999e-01
4.692172475e-01,4.97495e-02,9.99999e-01,9.99968e-01,4.97511e-02,9.99999e-01
4.715633337e-01,5.27880e-02,9.99999e-01,9.99979e-01,5.27891e-02,9.99999e-01
4.739211504e-01,5.59459e-02,9.99999e-01,9.99980e-01,5.59470e-02,9.99999e-01
4.762907561e-01,5.92253e-02,9.99999e-01,9.99989e-01,5.92259e-02,9.99999e-01
4.786722099e-01,6.26261e-02,9.99999e-01,9.99995e-01,6.26264e-02,9.99999e-01
4.810655710e-01,6.61491e-02,9.99999e-01,9.99998e-01,6.61492e-02,9.99999e-01
4.834708988e-01,6.97937e-02,9.99999e-01,9.99987e-01,6.97946e-02,9.99999e-01
4.858882533e-01,7.35613e-02,9.99999e-01,9.99977e-01,7.35630e-02,9.99999e-01
4.883176946e-01,7.74529e-02,9.99999e-01,9.99980e-01,7.74543e-02,9.99999e-01
4.907592831e-01,8.14671e-02,9.99999e-01,9.99982e-01,8.14685e-02,9.99999e-01
4.932130795e-01,8.56042e-02,9.99999e-01,9.99987e-01,8.56052e-02,9.99999e-01
4.956791449e-01,8.98635e-02,9.99999e-01,9.99993e-01,8.98641e-02,9.99999e-01
4.981575406e-01,9.42414e-02,9.99999e-01,9.99967e-01,9.42443e-02,9.99999e-01
5.006483283e-01,9.87371e-02,9.99999e-01,9.99916e-01,9.87453e-02,9.99999e-01
5.031515699e-01,1.03323e-01,9.99999e-01,9.99584e-01,1.03366e-01,9.99999e-01
5.056673278e-01,1.08081e-01,9.99999e-01,9.99781e-01,1.08105e-01,9.99999e-01
5.081956644e-01,1.12930e-01,9.99999e-01,9.99724e-01,1.12961e-01,9.99999e-01
5.107366428e-01,1.17911e-01,9.99999e-01,9.99814e-01,1.17933e-01,9.99999e-01
5.132903260e-01,1.23007e-01,9.99999e-01,9.99893e-01,1.23019e-01,9.99999e-01
5.158567776e-01,1.28212e-01,9.99999e-01,9.99955e-01,1.28218e-01,9.99999e-01
5.184360615e-01,1.33525e-01,9.99999e-01,9.99981e-01,1.33527e-01,9.99999e-01
5.210282418e-01,1.38944e-01,9.99999e-01,9.99992e-01,1.38945e-01,9.99999e-01
5.236333830e-01,1.44464e-01,9.99999e-01,9.99972e-01,1.44468e-01,9.99999e-01
5.262515499e-01,1.50093e-01,9.99999e-01,9.99982e-01,1.50096e-01,9.99999e-01
5.288828077e-01,1.55823e-01,9.99999e-01,9.99983e-01,1.55825e-01,9.99999e-01
5.315272217e-01,1.61651e-01,9.99999e-01,9.99986e-01,1.61654e-01,9.99999e-01
5.341848578e-01,1.67577e-01,9.99999e-01,9.99990e-01,1.67578e-01,9.99999e-01
5.368557821e-01,1.73591e-01,9.99999e-01,9.99967e-01,1.73597e-01,9.99999e-01
5.395400610e-01,1.79685e-01,9.99999e-01,9.99884e-01,1.79706e-01,9.99999e-01
5.422377613e-01,1.85876e-01,9.99999e-01,9.99853e-01,1.85903e-01,9.99999e-01
5.449489501e-01,1.92159e-01,9.99999e-01,9.99862e-01,1.92185e-01,9.99999e-01
5.476736949e-01,1.98525e-01,9.99999e-01,9.99879e-01,1.98549e-01,9.99999e-01
5.504120634e-01,2.04974e-01,9.99999e-01,9.99912e-01,2.04992e-01,9.99999e-01
5.531641237e-01,2.11501e-01,9.99999e-01,9.99955e-01,2.11510e-01,9.99999e-01
5.559299443e-01,2.18097e-01,9.99999e-01,9.99978e-01,2.18101e-01,9.99999e-01
5.587095940e-01,2.24758e-01,9.99999e-01,9.99986e-01,2.24761e-01,9.99999e-01
5.615031420e-01,2.31483e-01,9.99999e-01,9.99984e-01,2.31487e-01,9.99999e-01
5.643106577e-01,2.38271e-01,9.99999e-01,9.99982e-01,2.38275e-01,9.99999e-01
5.671322110e-01,2.45071e-01,9.99999e-01,9.99789e-01,2.45122e-01,9.99999e-01
5.699678720e-01,2.51971e-01,9.99999e-01,9.99784e-01,2.52025e-01,9.99999e-01
5.728177114e-01,2.58922e-01,9.99999e-01,9.99772e-01,2.58980e-01,9.99999e-01
5.756818000e-01,2.65929e-01,9.99999e-01,9.99791e-01,2.65985e-01,9.99999e-01
5.785602090e-01,2.72985e-01,9.99999e-01,9.99818e-01,2.73034e-01,9.99999e-01
5.814530100e-01,2.80075e-01,9.99999e-01,9.99817e-01,2.80126e-01,9.99999e-01
5.843602750e-01,2.87193e-01,9.99999e-01,9.99780e-01,2.87256e-01,9.99999e-01
5.872820764e-01,2.93865e-01,9.99999e-01,9.98110e-01,2.94422e-01,9.99999e-01
5.902184868e-01,3.00938e-01,9.99999e-01,9.97739e-01,3.01619e-01,9.99999e-01
5.931695792e-01,3.08350e-01,9.99999e-01,9.98395e-01,3.08845e-01,9.99999e-01
5.961354271e-01,3.15543e-01,9.99999e-01,9.98247e-01,3.16097e-01,9.99999e-01
5.991161043e-01,3.22957e-01,9.99999e-01,9.98723e-01,3.23370e-01,9.99999e-01
6.021116848e-01,3.30423e-01,9.99999e-01,9.99276e-01,3.30662e-01,9.99999e-01
6.051222432e-01,3.37846e-01,9.99999e-01,9.99634e-01,3.37969e-01,9.99999e-01
6.081478544e-01,3.45235e-01,9.99999e-01,9.99841e-01,3.45289e-01,9.99999e-01
6.111885937e-01,3.52595e-01,9.99999e-01,9.99933e-01,3.52619e-01,9.99999e-01
6.142445367e-01,3.59943e-01,9.99999e-01,9.99969e-01,3.59954e-01,9.99999e-01
6.173157594e-01,3.67287e-01,9.99999e-01,9.99983e-01,3.67293e-01,9.99999e-01
6.204023382e-01,3.74626e-01,9.99999e-01,9.99985e-01,3.74632e-01,9.99999e-01
6.235043498e-01,3.81944e-01,9.99999e-01,9.99936e-01,3.81968e-01,9.99999e-01
6.266218716e-01,3.89172e-01,9.99999e-01,9.99673e-01,3.89299e-01,9.99999e-01
6.297549810e-01,3.96574e-01,9.99999e-01,9.99879e-01,3.96621e-01,9.99999e-01
6.329037559e-01,4.03837e-01,9.99999e-01,9.99764e-01,4.03932e-01,9.99999e-01
6.360682746e-01,4.11147e-01,9.99999e-01,9.99797e-01,4.11230e-01,9.99999e-01
6.392486160e-01,4.18403e-01,9.99999e-01,9.99738e-01,4.18512e-01,9.99999e-01
6.424448591e-01,4.25625e-01,9.99999e-01,9.99646e-01,4.25775e-01,9.99999e-01
6.456570834e-01,4.32307e-01,9.99999e-01,9.98360e-01,4.33017e-01,9.99999e-01
6.488853688e-01,4.39715e-01,9.99999e-01,9.98817e-01,4.40235e-01,9.99999e-01
6.521297956e-01,4.46889e-01,9.99999e-01,9.98794e-01,4.47428e-01,9.99999e-01
6.553904446e-01,4.54044e-01,9.99999e-01,9.98793e-01,4.54592e-01,9.99999e-01
6.586673968e-01,4.61252e-01,9.99999e-01,9.98972e-01,4.61726e-01,9.99999e-01
6.619607338e-01,4.68560e-01,9.99999e-01,9.99427e-01,4.68828e-01,9.99999e-01
6.652705375e-01,4.75733e-01,9.99999e-01,9.99656e-01,4.75896e-01,9.99999e-01
6.685968902e-01,4.82857e-01,9.99999e-01,9.99853e-01,4.82928e-01,9.99999e-01
6.719398746e-01,4.89885e-01,9.99999e-01,9.99925e-01,4.89921e-01,9.99999e-01
6.752995740e-01,4.96855e-01,9.99999e-01,9.99960e-01,4.96875e-01,9.99999e-01
6.786760719e-01,5.03757e-01,9.99999e-01,9.99940e-01,5.03787e-01,9.99999e-01
6.820694522e-01,5.10604e-01,9.99999e-01,9.99898e-01,5.10656e-01,9.99999e-01
6.854797995e-01,5.17413e-01,9.99999e-01,9.99870e-01,5.17480e-01,9.99999e-01
6.889071985e-01,5.24039e-01,9.99999e-01,9.99582e-01,5.24258e-01,9.99999e-01
6.923517345e-01,5.28261e-01,9.99999e-01,9.94864e-01,5.30988e-01,9.99999e-01
6.958134932e-01,5.36277e-01,9.99999e-01,9.97411e-01,5.37669e-01,9.99999e-01
6.992925606e-01,5.42923e-01,9.99999e-01,9.97471e-01,5.44299e-01,9.99999e-01
7.027890234e-01,5.49178e-01,9.99999e-01,9.96913e-01,5.50878e-01,9.99999e-01
7.063029686e-01,5.55956e-01,9.99999e-01,9.97402e-01,5.57404e-01,9.99999e-01
7.098344834e-01,5.62471e-01,9.99999e-01,9.97507e-01,5.63876e-01,9.99999e-01
7.133836558e-01,5.68366e-01,9.99999e-01,9.96618e-01,5.70294e-01,9.99999e-01
7.169505741e-01,5.61220e-01,9.99999e-01,9.73231e-01,5.76655e-01,9.99999e-01
7.205353270e-01,5.75478e-01,9.99999e-01,9.87164e-01,5.82960e-01,9.99999e-01
7.241380036e-01,5.79406e-01,9.99999e-01,9.83365e-01,5.89207e-01,9.99999e-01
7.277586936e-01,5.86464e-01,9.99999e-01,9.84997e-01,5.95396e-01,9.99999e-01
7.313974871e-01,5.92029e-01,9.99999e-01,9.84212e-01,6.01525e-01,9.99999e-01
7.350544745e-01,6.02329e-01,9.99999e-01,9.91332e-01,6.07595e-01,9.99999e-01
7.387297469e-01,6.09694e-01,9.99999e-01,9.93626e-01,6.13604e-01,9.99999e-01
7.424233956e-01,6.17625e-01,9.99999e-01,9.96888e-01,6.19552e-01,9.99999e-01
7.461355126e-01,6.24257e-01,9.99999e-01,9.98109e-01,6.25439e-01,9.99999e-01
7.498661902e-01,6.30710e-01,9.99999e-01,9.99122e-01,6.31264e-01,9.99999e-01
7.536155211e-01,6.36751e-01,9.99999e-01,9.99567e-01,6.37026e-01,9.99999e-01
7.573835987e-01,6.42583e-01,9.99999e-01,9.99777e-01,6.42726e-01,9.99999e-01
7.611705167e-01,6.48273e-01,9.99999e-01,9.99861e-01,6.48362e-01,9.99999e-01
7.649763693e-01,6.53878e-01,9.99999e-01,9.99912e-01,6.53935e-01,9.99999e-01
7.688012511e-01,6.59405e-01,9.99999e-01,9.99939e-01,6.59445e-01,9.99999e-01
7.726452574e-01,6.64857e-01,9.99999e-01,9.99949e-01,6.64890e-01,9.99999e-01
7.765084837e-01,6.70224e-01,9.99999e-01,9.99928e-01,6.70272e-01,9.99999e-01
7.803910261e-01,6.61484e-01,9.79418e-01,9.99689e-01,6.75590e-01,9.99999e-01
7.842929812e-01,6.25687e-01,9.19955e-01,9.98917e-01,6.80843e-01,9.99999e-01
7.882144461e-01,6.25320e-01,9.13466e-01,9.97797e-01,6.86033e-01,9.99999e-01
7.921555184e-01,6.55291e-01,9.49228e-01,9.98800e-01,6.91158e-01,9.99999e-01
7.961162960e-01,6.71234e-01,9.66183e-01,9.97846e-01,6.96220e-01,9.99999e-01
8.000968774e-01,6.86535e-01,9.81478e-01,9.97533e-01,7.01217e-01,9.99999e-01
8.040973618e-01,6.97658e-01,9.90419e-01,9.97527e-01,7.06150e-01,9.99999e-01
8.081178486e-01,7.03895e-01,9.95568e-01,9.94380e-01,7.11020e-01,9.99999e-01
8.121584379e-01,6.98265e-01,9.98649e-01,9.76778e-01,7.15826e-01,9.99999e-01
8.162192301e-01,7.00795e-01,9.99701e-01,9.72845e-01,7.20569e-01,9.99999e-01
8.203003262e-01,7.15068e-01,9.99995e-01,9.85966e-01,7.25248e-01,9.99999e-01
8.244018279e-01,7.16056e-01,9.99999e-01,9.81080e-01,7.29865e-01,9.99999e-01
8.285238370e-01,7.22368e-01,9.99999e-01,9.83591e-01,7.34419e-01,9.99999e-01
8.326664562e-01,7.26718e-01,9.99999e-01,9.83499e-01,7.38910e-01,9.99999e-01
8.368297885e-01,7.34596e-01,9.99999e-01,9.88237e-01,7.43340e-01,9.99999e-01
8.410139374e-01,7.42476e-01,9.99999e-01,9.93003e-01,7.47707e-01,9.99999e-01
8.452190071e-01,7.49436e-01,9.99999e-01,9.96571e-01,7.52014e-01,9.99999e-01
8.494451021e-01,7.54747e-01,9.99999e-01,9.98000e-01,7.56259e-01,9.99999e-01
8.536923276e-01,7.59549e-01,9.99999e-01,9.98822e-01,7.60444e-01,9.99999e-01
8.579607893e-01,7.64012e-01,9.99999e-01,9.99271e-01,7.64568e-01,9.99999e-01
8.622505932e-01,7.68279e-01,9.99999e-01,9.99538e-01,7.68633e-01,9.99999e-01
8.665618462e-01,7.31770e-01,9.47368e-01,9.99713e-01,7.72639e-01,9.99999e-01
8.708946554e-01,6.25356e-01,8.05523e-01,9.99670e-01,7.76585e-01,9.99999e-01
8.752491287e-01,6.57278e-01,8.42516e-01,9.99559e-01,7.80474e-01,9.99999e-01
8.796253743e-01,7.14127e-01,9.11071e-01,9.99387e-01,7.84304e-01,9.99999e-01
8.840235012e-01,7.50566e-01,9.53060e-01,9.99301e-01,7.88077e-01,9.99999e-01
8.884436187e-01,7.75008e-01,9.81354e-01,9.97384e-01,7.91793e-01,9.99999e-01
8.928858368e-01,7.68262e-01,9.92398e-01,9.73178e-01,7.95453e-01,9.99999e-01
8.973502660e-01,7.60564e-01,9.98162e-01,9.53560e-01,7.99056e-01,9.99998e-01
9.018370173e-01,7.83409e-01,9.99798e-01,9.76276e-01,8.02605e-01,9.99998e-01
9.063462024e-01,7.84659e-01,9.94551e-01,9.78644e-01,8.06098e-01,9.99998e-01
9.108779334e-01,7.73570e-01,9.87979e-01,9.67117e-01,8.09538e-01,9.99998e-01
9.154323231e-01,7.80576e-01,9.97211e-01,9.62862e-01,8.12923e-01,9.99998e-01
9.200094847e-01,7.59357e-01,9.57349e-01,9.70873e-01,8.16256e-01,9.99998e-01
9.246095321e-01,7.36468e-01,9.42355e-01,9.52994e-01,8.19536e-01,9.99997e-01
9.292325798e-01,5.72310e-01,9.53663e-01,7.27097e-01,8.22764e-01,9.99995e-01
9.338787427e-01,5.26963e-01,9.55938e-01,6.65463e-01,8.25940e-01,9.99993e-01
9.385481364e-01,6.82033e-01,9.67465e-01,8.49369e-01,8.29066e-01,9.99993e-01
9.432408771e-01,6.46575e-01,9.80047e-01,7.92293e-01,8.32142e-01,9.99992e-01
9.479570815e-01,5.97518e-01,9.89690e-01,7.22640e-01,8.35167e-01,9.99993e-01
9.526968669e-01,6.57822e-01,9.95030e-01,7.88564e-01,8.38144e-01,9.99995e-01
9.574603512e-01,6.76460e-01,9.97875e-01,8.05931e-01,8.41072e-01,9.99996e-01
9.622476530e-01,7.08590e-01,9.99338e-01,8.40147e-01,8.43953e-01,9.99997e-01
9.670588912e-01,7.65729e-01,9.99801e-01,9.04452e-01,8.46786e-01,9.99998e-01
9.718941857e-01,7.98004e-01,9.99986e-01,9.39313e-01,8.49572e-01,9.99998e-01
9.767536566e-01,8.09148e-01,9.99999e-01,9.49356e-01,8.52312e-01,9.99998e-01
9.816374249e-01,8.22852e-01,9.99999e-01,9.62392e-01,8.55006e-01,9.99999e-01
9.865456120e-01,8.37382e-01,9.99999e-01,9.76360e-01,8.57656e-01,9.99999e-01
9.914783401e-01,8.47634e-01,9.99999e-01,9.85321e-01,8.60261e-01,9.99999e-01
9.964357318e-01,8.55906e-01,9.99999e-01,9.91982e-01,8.62823e-01,9.99999e-01
1.001417910e+00,8.61182e-01,9.99999e-01,9.95193e-01,8.65341e-01,9.99999e-01
1.006425000e+00,8.65430e-01,9.99999e-01,9.97249e-01,8.67817e-01,9.99999e-01
1.011457125e+00,8.68769e-01,9.99999e-01,9.98297e-01,8.70250e-01,9.99999e-01
1.016514411e+00,8.71632e-01,9.99999e-01,9.98841e-01,8.72642e-01,9.99999e-01
1.021596983e+00,8.74157e-01,9.99965e-01,9.99076e-01,8.74994e-01,9.99999e-01
1.026704968e+00,8.74803e-01,9.97866e-01,9.99278e-01,8.77305e-01,9.99999e-01
1.031838492e+00,8.50350e-01,9.67264e-01,9.99477e-01,8.79576e-01,9.99999e-01
1.036997685e+00,2.26459e-01,2.56878e-01,9.99688e-01,8.81808e-01,9.99999e-01
1.042182673e+00,2.64681e-01,2.99516e-01,9.99626e-01,8.84002e-01,9.99999e-01
1.047393587e+00,2.48373e-01,2.80406e-01,9.99506e-01,8.86157e-01,9.99999e-01
1.052630555e+00,3.00681e-02,3.38680e-02,9.99321e-01,8.88275e-01,9.99999e-01
1.057893707e+00,6.01505e-02,6.76167e-02,9.98865e-01,8.90356e-01,9.99999e-01
1.063183176e+00,1.25494e-01,1.40834e-01,9.98135e-01,8.92401e-01,9.99999e-01
1.068499092e+00,2.37783e-01,2.66601e-01,9.96885e-01,8.94410e-01,9.99999e-01
1.073841587e+00,3.89831e-01,4.36336e-01,9.96344e-01,8.96384e-01,9.99999e-01
1.079210795e+00,5.29595e-01,5.92156e-01,9.95340e-01,8.98323e-01,9.99999e-01
1.084606849e+00,6.71925e-01,7.51569e-01,9.92934e-01,9.00227e-01,9.99999e-01
1.090029883e+00,7.70035e-01,8.62294e-01,9.89765e-01,9.02098e-01,9.99999e-01
1.095480033e+00,8.17466e-01,9.29815e-01,9.72441e-01,9.03936e-01,9.99998e-01
1.100957433e+00,8.14669e-01,9.65561e-01,9.31342e-01,9.05741e-01,9.99998e-01
1.106462220e+00,7.45488e-01,9.85652e-01,8.33168e-01,9.07514e-01,9.99996e-01
1.111994531e+00,6.16952e-01,9.94658e-01,6.82016e-01,9.09255e-01,9.99994e-01
1.117554504e+00,4.89036e-01,9.98703e-01,5.37455e-01,9.10965e-01,9.99992e-01
1.123142276e+00,5.75871e-01,9.99915e-01,6.31031e-01,9.12645e-01,9.99990e-01
1.128757988e+00,6.81648e-01,9.99999e-01,7.45552e-01,9.14294e-01,9.99989e-01
1.134401778e+00,4.63526e-01,9.99999e-01,5.06085e-01,9.15914e-01,9.99988e-01
1.140073787e+00,7.71229e-01,9.99999e-01,8.40580e-01,9.17504e-01,9.99990e-01
1.145774156e+00,6.38979e-01,9.99999e-01,6.95252e-01,9.19066e-01,9.99992e-01
1.151503026e+00,6.12427e-01,9.99999e-01,6.65252e-01,9.20599e-01,9.99993e-01
1.157260541e+00,6.59663e-01,9.99999e-01,7.15391e-01,9.22105e-01,9.99994e-01
1.163046844e+00,7.22008e-01,9.99999e-01,7.81749e-01,9.23583e-01,9.99996e-01
1.168862078e+00,7.80290e-01,9.99999e-01,8.43525e-01,9.25034e-01,9.99998e-01
1.174706389e+00,8.34096e-01,9.99999e-01,9.00305e-01,9.26459e-01,9.99998e-01
1.180579921e+00,8.70461e-01,9.99999e-01,9.38140e-01,9.27858e-01,9.99998e-01
1.186482820e+00,8.96306e-01,9.99994e-01,9.64571e-01,9.29231e-01,9.99999e-01
1.192415234e+00,9.04204e-01,9.92292e-01,9.79157e-01,9.30579e-01,9.99999e-01
1.198377311e+00,5.30790e-01,5.78137e-01,9.82361e-01,9.31903e-01,9.99999e-01
1.204369197e+00,3.50690e-07,3.79458e-07,9.83311e-01,9.33202e-01,9.99999e-01
1.210391043e+00,1.99527e-23,2.15431e-23,9.84046e-01,9.34477e-01,9.99999e-01
1.216442998e+00,1.61101e-20,1.73629e-20,9.86452e-01,9.35729e-01,9.99999e-01
1.222525213e+00,3.15453e-20,3.38543e-20,9.89429e-01,9.36957e-01,9.99999e-01
1.228637839e+00,1.35971e-15,1.45694e-15,9.92643e-01,9.38163e-01,9.99999e-01
1.234781029e+00,1.15529e-10,1.23285e-10,9.94541e-01,9.39347e-01,9.99999e-01
1.240954934e+00,3.26042e-07,3.47469e-07,9.96541e-01,9.40509e-01,9.99999e-01
1.247159708e+00,2.26476e-04,2.40958e-04,9.97309e-01,9.41649e-01,9.99999e-01
1.253395507e+00,9.19922e-03,9.77649e-03,9.97606e-01,9.42768e-01,9.99999e-01
1.259662485e+00,6.77507e-02,7.19215e-02,9.97718e-01,9.43866e-01,9.99999e-01
1.265960797e+00,2.05598e-01,2.18273e-01,9.96367e-01,9.44943e-01,9.99999e-01
1.272290601e+00,5.02255e-01,5.33830e-01,9.94271e-01,9.46001e-01,9.99999e-01
1.278652054e+00,4.34362e-01,4.63154e-01,9.88640e-01,9.47039e-01,9.99999e-01
1.285045314e+00,2.12395e-02,2.26315e-02,9.79441e-01,9.48057e-01,9.99999e-01
1.291470541e+00,1.88283e-03,2.03670e-03,9.64439e-01,9.49057e-01,9.99998e-01
1.297927893e+00,4.87981e-02,5.30941e-02,9.49769e-01,9.50037e-01,9.99998e-01
1.304417533e+00,2.86949e-01,3.19410e-01,9.41152e-01,9.51000e-01,9.99997e-01
1.310939621e+00,5.26719e-02,5.77451e-02,9.26146e-01,9.51944e-01,9.99995e-01
1.317494319e+00,1.50515e-08,1.65680e-08,9.27542e-01,9.52870e-01,9.99992e-01
1.324081790e+00,3.07952e-05,3.40388e-05,8.94617e-01,9.53779e-01,9.99987e-01
1.330702199e+00,8.52834e-04,1.18222e-03,6.11876e-01,9.54671e-01,9.99980e-01
1.337355710e+00,5.37145e-04,1.36668e-03,2.72401e-01,9.55546e-01,9.99965e-01
1.344042489e+00,1.85069e-05,1.75942e-04,3.50214e-02,9.56405e-01,9.99926e-01
1.350762701e+00,3.70869e-06,8.95384e-04,1.85980e-03,9.57247e-01,9.99882e-01
1.357516515e+00,4.86751e-06,1.01464e-02,2.24409e-04,9.58074e-01,9.99854e-01
1.364304097e+00,2.84017e-04,5.59673e-02,3.64963e-03,9.58885e-01,9.99844e-01
1.371125618e+00,6.28669e-03,2.19479e-01,2.32982e-02,9.59680e-01,9.99843e-01
1.377981246e+00,1.25095e-02,2.95007e-01,3.94101e-02,9.60461e-01,9.99831e-01
1.384871152e+00,1.63609e-03,4.91854e-01,3.09527e-03,9.61226e-01,9.99836e-01
1.391795508e+00,2.72005e-03,5.19386e-01,4.92348e-03,9.61977e-01,9.99861e-01
1.398754485e+00,7.00805e-03,6.68301e-01,1.05507e-02,9.62714e-01,9.99880e-01
1.405748258e+00,7.06952e-03,7.43130e-01,9.42391e-03,9.63437e-01,9.99892e-01
1.412776999e+00,8.98768e-03,8.29405e-01,1.09257e-02,9.64146e-01,9.99913e-01
1.419840884e+00,1.19944e-02,7.58722e-01,1.42909e-02,9.64842e-01,9.99935e-01
1.426940089e+00,9.90274e-03,9.57667e-02,3.68977e-02,9.65524e-01,9.99959e-01
1.434074789e+00,0.00000e+00,0.00000e+00,7.97261e-02,9.66193e-01,9.99974e-01
1.441245163e+00,0.00000e+00,0.00000e+00,1.50558e-01,9.66850e-01,9.99980e-01
1.448451389e+00,0.00000e+00,0.00000e+00,2.57581e-01,9.67494e-01,9.99983e-01
1.455693646e+00,3.94438e-181,6.35165e-181,4.17979e-01,9.68126e-01,9.99986e-01
1.462972114e+00,2.19370e-88,3.53028e-88,4.72088e-01,9.68745e-01,9.99988e-01
1.470286975e+00,8.07893e-38,1.34652e-37,4.15827e-01,9.69353e-01,9.99989e-01
