#,Wave/freq,Total,CO2,H2O,Rayleigh,CIA
4.000000000e-01,6.74577e-09,9.99999e-01,9.99962e-01,6.74602e-09,9.99999e-01
4.020000000e-01,9.78585e-09,9.99999e-01,9.99976e-01,9.78607e-09,9.99999e-01
4.040100000e-01,1.40867e-08,9.99999e-01,9.99989e-01,1.40868e-08,9.99999e-01
4.060300500e-01,2.01323e-08,9.99999e-01,9.99997e-01,2.01323e-08,9.99999e-01
4.080602003e-01,2.85700e-08,9.99999e-01,9.99998e-01,2.85701e-08,9.99999e-01
4.101005013e-01,4.02648e-08,9.99999e-01,9.99999e-01,4.02648e-08,9.99999e-01
4.121510038e-01,5.63633e-08,9.99999e-01,9.99998e-01,5.63633e-08,9.99999e-01
4.142117588e-01,7.83751e-08,9.99999e-01,9.99989e-01,7.83759e-08,9.99999e-01
4.162828176e-01,1.08273e-07,9.99999e-01,9.99953e-01,1.08278e-07,9.99999e-01
4.183642317e-01,1.48632e-07,9.99999e-01,9.99972e-01,1.48636e-07,9.99999e-01
4.204560528e-01,2.02761e-07,9.99999e-01,9.99982e-01,2.02765e-07,9.99999e-01
4.225583331e-01,2.74912e-07,9.99999e-01,9.99993e-01,2.74913e-07,9.99999e-01
4.246711247e-01,3.70498e-07,9.99999e-01,9.99994e-01,3.70500e-07,9.99999e-01
4.267944804e-01,4.96383e-07,9.99999e-01,9.99992e-01,4.96387e-07,9.99999e-01
4.289284528e-01,6.61213e-07,9.99999e-01,9.99993e-01,6.61216e-07,9.99999e-01
4.310730950e-01,8.75802e-07,9.99999e-01,9.99997e-01,8.75804e-07,9.99999e-01
4.332284605e-01,1.15361e-06,9.99999e-01,9.99998e-01,1.15361e-06,9.99999e-01
4.353946028e-01,1.51129e-06,9.99999e-01,9.99999e-01,1.51129e-06,9.99999e-01
4.375715758e-01,1.96933e-06,9.99999e-01,9.99994e-01,1.96934e-06,9.99999e-01
4.397594337e-01,2.55273e-06,9.99999e-01,9.99959e-01,2.55283e-06,9.99999e-01
4.419582309e-01,3.29161e-06,9.99999e-01,9.99794e-01,3.29228e-06,9.99999e-01
4.441680220e-01,4.22398e-06,9.99999e-01,9.99841e-01,4.22465e-06,9.99999e-01
4.463888621e-01,5.39352e-06,9.99999e-01,9.99834e-01,5.39441e-06,9.99999e-01
4.486208064e-01,6.85420e-06,9.99999e-01,9.99897e-01,6.85491e-06,9.99999e-01
4.508639105e-01,8.66927e-06,9.99999e-01,9.99951e-01,8.66968e-06,9.99999e-01
4.531182300e-01,1.09140e-05,9.99999e-01,9.99980e-01,1.09142e-05,9.99999e-01
4.553838212e-01,1.36772e-05,9.99999e-01,9.99986e-01,1.36774e-05,9.99999e-01
4.576607403e-01,1.70638e-05,9.99999e-01,9.99993e-01,1.70639e-05,9.99999e-01
4.599490440e-01,2.11960e-05,9.99999e-01,9.99995e-01,2.11961e-05,9.99999e-01
4.622487892e-01,2.62165e-05,9.99999e-01,9.99998e-01,2.62165e-05,9.99999e-01
4.645600332e-01,3.22900e-05,9.99999e-01,9.99996e-01,3.22901e-05,9.99999e-01
4.668828333e-01,3.96054e-05,9.99999e-01,9.99950e-01,3.96074e-05,9.99999e-01
4.692172475e-01,4.83822e-05,9.99999e-01,9.99895e-01,4.83872e-05,9.99999e-01
4.715633337e-01,5.88760e-05,9.99999e-01,9.99931e-01,5.88800e-05,9.99999e-01
4.739211504e-01,7.13664e-05,9.99999e-01,9.99934e-01,7.13710e-05,9.99999e-01
4.762907561e-01,8.61808e-05,9.99999e-01,9.99966e-01,8.61836e-05,9.99999e-01
4.786722099e-01,1.03682e-04,9.99999e-01,9.99985e-01,1.03684e-04,9.99999e-01
4.810655710e-01,1.24282e-04,9.99999e-01,9.99995e-01,1.24282e-04,9.99999e-01
4.834708988e-01,1.48435e-04,9.99999e-01,9.99959e-01,1.48441e-04,9.99999e-01
4.858882533e-01,1.76663e-04,9.99999e-01,9.99926e-01,1.76675e-04,9.99999e-01
4.883176946e-01,2.09545e-04,9.99999e-01,9.99938e-01,2.09558e-04,9.99999e-01
4.907592831e-01,2.47710e-04,9.99999e-01,9.99944e-01,2.47723e-04,9.99999e-01
4.932130795e-01,2.91862e-04,9.99999e-01,9.99960e-01,2.91874e-04,9.99999e-01
4.956791449e-01,3.42774e-04,9.99999e-01,9.99978e-01,3.42781e-04,9.99999e-01
4.981575406e-01,4.01248e-04,9.99999e-01,9.99895e-01,4.01290e-04,9.99999e-01
5.006483283e-01,4.68199e-04,9.99999e-01,9.99727e-01,4.68326e-04,9.99999e-01
5.031515699e-01,5.44149e-04,9.99999e-01,9.98629e-01,5.44896e-04,9.99999e-01
5.056673278e-01,6.31634e-04,9.99999e-01,9.99277e-01,6.32091e-04,9.99999e-01
5.081956644e-01,7.30426e-04,9.99999e-01,9.99089e-01,7.31092e-04,9.99999e-01
5.107366428e-01,8.42654e-04,9.99999e-01,9.99385e-01,8.43172e-04,9.99999e-01
5.132903260e-01,9.69359e-04,9.99999e-01,9.99648e-01,9.69699e-04,9.99999e-01
5.158567776e-01,1.11197e-03,9.99999e-01,9.99851e-01,1.11214e-03,9.99999e-01
5.184360615e-01,1.27197e-03,9.99999e-01,9.99940e-01,1.27205e-03,9.99999e-01
5.210282418e-01,1.45107e-03,9.99999e-01,9.99977e-01,1.45110e-03,9.99999e-01
5.236333830e-01,1.65090e-03,9.99999e-01,9.99910e-01,1.65105e-03,9.99999e-01
5.262515499e-01,1.87367e-03,9.99999e-01,9.99943e-01,1.87377e-03,9.99999e-01
5.288828077e-01,2.12112e-03,9.99999e-01,9.99948e-01,2.12123e-03,9.99999e-01
5.315272217e-01,2.39538e-03,9.99999e-01,9.99954e-01,2.39549e-03,9.99999e-01
5.341848578e-01,2.69864e-03,9.99999e-01,9.99969e-01,2.69872e-03,9.99999e-01
5.368557821e-01,3.03287e-03,9.99999e-01,9.99895e-01,3.03318e-03,9.99999e-01
5.395400610e-01,3.39996e-03,9.99999e-01,9.99622e-01,3.40124e-03,9.99999e-01
5.422377613e-01,3.80350e-03,9.99999e-01,9.99515e-01,3.80534e-03,9.99999e-01
5.449489501e-01,4.24610e-03,9.99999e-01,9.99547e-01,4.24802e-03,9.99999e-01
5.476736949e-01,4.73002e-03,9.99999e-01,9.99601e-01,4.73190e-03,9.99999e-01
5.504120634e-01,5.25816e-03,9.99999e-01,9.99710e-01,5.25968e-03,9.99999e-01
5.531641237e-01,5.83328e-03,9.99999e-01,9.99854e-01,5.83413e-03,9.99999e-01
5.559299443e-01,6.45763e-03,9.99999e-01,9.99929e-01,6.45808e-03,9.99999e-01
5.587095940e-01,7.13412e-03,9.99999e-01,9.99955e-01,7.13444e-03,9.99999e-01
5.615031420e-01,7.86574e-03,9.99999e-01,9.99950e-01,7.86613e-03,9.99999e-01
5.643106577e-01,8.65567e-03,9.99999e-01,9.99943e-01,8.65615e-03,9.99999e-01
5.671322110e-01,9.50103e-03,9.99999e-01,9.99315e-01,9.50754e-03,9.99999e-01
5.699678720e-01,1.04159e-02,9.99999e-01,9.99283e-01,1.04233e-02,9.99999e-01
5.728177114e-01,1.13980e-02,9.99999e-01,9.99248e-01,1.14066e-02,9.99999e-01
5.756818000e-01,1.24518e-02,9.99999e-01,9.99311e-01,1.24604e-02,9.99999e-01
5.785602090e-01,1.35797e-02,9.99999e-01,9.99400e-01,1.35878e-02,9.99999e-01
5.814530100e-01,1.47830e-02,9.99999e-01,9.99397e-01,1.47919e-02,9.99999e-01
5.843602750e-01,1.60641e-02,9.99999e-01,9.99278e-01,1.60757e-02,9.99999e-01
5.872820764e-01,1.73342e-02,9.99999e-01,9.93800e-01,1.74423e-02,9.99999e-01
5.902184868e-01,1.87533e-02,9.99999e-01,9.92526e-01,1.88945e-02,9.99999e-01
5.931695792e-01,2.03272e-02,9.99999e-01,9.94708e-01,2.04354e-02,9.99999e-01
5.961354271e-01,2.19398e-02,9.99999e-01,9.94206e-01,2.20677e-02,9.99999e-01
5.991161043e-01,2.36937e-02,9.99999e-01,9.95774e-01,2.37942e-02,9.99999e-01
6.021116848e-01,2.55563e-02,9.99999e-01,9.97601e-01,2.56177e-02,9.99999e-01
6.051222432e-01,2.75073e-02,9.99999e-01,9.98786e-01,2.75407e-02,9.99999e-01
6.081478544e-01,2.95503e-02,9.99999e-01,9.99475e-01,2.95658e-02,9.99999e-01
6.111885937e-01,3.16883e-02,9.99999e-01,9.99778e-01,3.16954e-02,9.99999e-01
6.142445367e-01,3.39283e-02,9.99999e-01,9.99900e-01,3.39316e-02,9.99999e-01
6.173157594e-01,3.62748e-02,9.99999e-01,9.99944e-01,3.62768e-02,9.99999e-01
6.204023382e-01,3.87311e-02,9.99999e-01,9.99953e-01,3.87329e-02,9.99999e-01
6.235043498e-01,4.12933e-02,9.99999e-01,9.99793e-01,4.13018e-02,9.99999e-01
6.266218716e-01,4.39378e-02,9.99999e-01,9.98920e-01,4.39852e-02,9.99999e-01
6.297549810e-01,4.67663e-02,9.99999e-01,9.99603e-01,4.67848e-02,9.99999e-01
6.329037559e-01,4.96632e-02,9.99999e-01,9.99218e-01,4.97020e-02,9.99999e-01
6.360682746e-01,5.27028e-02,9.99999e-01,9.99332e-01,5.27380e-02,9.99999e-01
6.392486160e-01,5.58457e-02,9.99999e-01,9.99136e-01,5.58939e-02,9.99999e-01
6.424448591e-01,5.91021e-02,9.99999e-01,9.98839e-01,5.91708e-02,9.99999e-01
6.456570834e-01,6.22329e-02,9.99999e-01,9.94622e-01,6.25693e-02,9.99999e-01
6.488853688e-01,6.58313e-02,9.99999e-01,9.96084e-01,6.60900e-02,9.99999e-01
6.521297956e-01,6.94552e-02,9.99999e-01,9.96009e-01,6.97335e-02,9.99999e-01
6.553904446e-01,7.32071e-02,9.99999e-01,9.96017e-01,7.34998e-02,9.99999e-01
6.586673968e-01,7.71257e-02,9.99999e-01,9.96596e-01,7.73891e-02,9.99999e-01
6.619607338e-01,8.12468e-02,9.99999e-01,9.98102e-01,8.14013e-02,9.99999e-01
6.652705375e-01,8.54386e-02,9.99999e-01,9.98860e-01,8.55360e-02,9.99999e-01
6.685968902e-01,8.97493e-02,9.99999e-01,9.99515e-01,8.97928e-02,9.99999e-01
6.719398746e-01,9.41480e-02,9.99999e-01,9.99754e-01,9.41711e-02,9.99999e-01
6.752995740e-01,9.86569e-02,9.99999e-01,9.99866e-01,9.86700e-02,9.99999e-01
6.786760719e-01,1.03269e-01,9.99999e-01,9.99806e-01,1.03289e-01,9.99999e-01
6.820694522e-01,1.07990e-01,9.99999e-01,9.99670e-01,1.08026e-01,9.99999e-01
6.854797995e-01,1.12832e-01,9.99999e-01,9.99574e-01,1.12880e-01,9.99999e-01
6.889071985e-01,1.17728e-01,9.99999e-01,9.98962e-01,1.17850e-01,9.99999e-01
6.923517345e-01,1.20879e-01,9.99999e-01,9.83275e-01,1.22935e-01,9.99999e-01
6.958134932e-01,1.27026e-01,9.99999e-01,9.91371e-01,1.28131e-01,9.99999e-01
6.992925606e-01,1.32332e-01,9.99999e-01,9.91705e-01,1.33439e-01,9.99999e-01
7.027890234e-01,1.37440e-01,9.99999e-01,9.89811e-01,1.38854e-01,9.99999e-01
7.063029686e-01,1.43138e-01,9.99999e-01,9.91422e-01,1.44376e-01,9.99999e-01
7.098344834e-01,1.48768e-01,9.99999e-01,9.91768e-01,1.50002e-01,9.99999e-01
7.133836558e-01,1.54013e-01,9.99999e-01,9.88974e-01,1.55730e-01,9.99999e-01
7.169505741e-01,1.47847e-01,9.99999e-01,9.15142e-01,1.61557e-01,9.99998e-01
7.205353270e-01,1.60432e-01,9.99999e-01,9.57916e-01,1.67480e-01,9.99998e-01
7.241380036e-01,1.64193e-01,9.99999e-01,9.46375e-01,1.73497e-01,9.99998e-01
7.277586936e-01,1.70895e-01,9.99999e-01,9.51511e-01,1.79604e-01,9.99998e-01
7.313974871e-01,1.76259e-01,9.99999e-01,9.48647e-01,1.85800e-01,9.99998e-01
7.350544745e-01,1.86622e-01,9.99999e-01,9.71581e-01,1.92081e-01,9.99999e-01
7.387297469e-01,1.94279e-01,9.99999e-01,9.79011e-01,1.98444e-01,9.99999e-01
7.424233956e-01,2.02773e-01,9.99999e-01,9.89688e-01,2.04885e-01,9.99999e-01
7.461355126e-01,2.10078e-01,9.99999e-01,9.93734e-01,2.11402e-01,9.99999e-01
7.498661902e-01,2.17356e-01,9.99999e-01,9.97083e-01,2.17992e-01,9.99999e-01
7.536155211e-01,2.24329e-01,9.99999e-01,9.98565e-01,2.24651e-01,9.99999e-01
7.573835987e-01,2.31205e-01,9.99999e-01,9.99261e-01,2.31375e-01,9.99999e-01
7.611705167e-01,2.38053e-01,9.99999e-01,9.99540e-01,2.38163e-01,9.99999e-01
7.649763693e-01,2.44938e-01,9.99999e-01,9.99711e-01,2.45009e-01,9.99999e-01
7.688012511e-01,2.51860e-01,9.99999e-01,9.99799e-01,2.51911e-01,9.99999e-01
7.726452574e-01,2.58823e-01,9.99999e-01,9.99834e-01,2.58865e-01,9.99999e-01
7.765084837e-01,2.65806e-01,9.99999e-01,9.99764e-01,2.65869e-01,9.99999e-01
7.803910261e-01,2.56942e-01,9.42373e-01,9.98981e-01,2.72917e-01,9.99999e-01
7.842929812e-01,2.13653e-01,7.65526e-01,9.96448e-01,2.80008e-01,9.99999e-01
7.882144461e-01,2.14339e-01,7.51572e-01,9.92728e-01,2.87138e-01,9.99999e-01
7.921555184e-01,2.47257e-01,8.43364e-01,9.96018e-01,2.94303e-01,9.99999e-01
7.961162960e-01,2.67124e-01,8.92190e-01,9.92928e-01,3.01500e-01,9.99999e-01
8.000968774e-01,2.87833e-01,9.39939e-01,9.91859e-01,3.08726e-01,9.99999e-01
8.040973618e-01,3.03532e-01,9.68478e-01,9.91851e-01,3.15977e-01,9.99999e-01
8.081178486e-01,3.12694e-01,9.85365e-01,9.81665e-01,3.23250e-01,9.99999e-01
8.121584379e-01,3.04697e-01,9.95483e-01,9.25921e-01,3.30541e-01,9.99998e-01
8.162192301e-01,3.08216e-01,9.99000e-01,9.13173e-01,3.37849e-01,9.99998e-01
8.203003262e-01,3.29843e-01,9.99985e-01,9.55611e-01,3.45169e-01,9.99998e-01
8.244018279e-01,3.31152e-01,9.99999e-01,9.39446e-01,3.52498e-01,9.99998e-01
8.285238370e-01,3.40766e-01,9.99999e-01,9.47010e-01,3.59833e-01,9.99998e-01
8.326664562e-01,3.47560e-01,9.99999e-01,9.46588e-01,3.67172e-01,9.99998e-01
8.368297885e-01,3.60108e-01,9.99999e-01,9.61543e-01,3.74511e-01,9.99999e-01
8.410139374e-01,3.73054e-01,9.99999e-01,9.76973e-01,3.81847e-01,9.99999e-01
8.452190071e-01,3.84761e-01,9.99999e-01,9.88650e-01,3.89178e-01,9.99999e-01
8.494451021e-01,3.93879e-01,9.99999e-01,9.93387e-01,3.96500e-01,9.99999e-01
8.536923276e-01,4.02234e-01,9.99999e-01,9.96092e-01,4.03812e-01,9.99999e-01
8.579607893e-01,4.10119e-01,9.99999e-01,9.97588e-01,4.11110e-01,9.99999e-01
8.622505932e-01,4.17752e-01,9.99999e-01,9.98469e-01,4.18392e-01,9.99999e-01
8.665618462e-01,3.80686e-01,8.95155e-01,9.99051e-01,4.25655e-01,9.99999e-01
8.708946554e-01,2.21252e-01,5.11619e-01,9.98912e-01,4.32897e-01,9.99999e-01
8.752491287e-01,2.54393e-01,5.78815e-01,9.98545e-01,4.40116e-01,9.99999e-01
8.796253743e-01,3.29467e-01,7.37967e-01,9.97983e-01,4.47309e-01,9.99999e-01
8.840235012e-01,3.86886e-01,8.53194e-01,9.97697e-01,4.54474e-01,9.99999e-01
8.884436187e-01,4.29998e-01,9.39319e-01,9.91551e-01,4.61609e-01,9.99999e-01
8.928858368e-01,4.18362e-01,9.74919e-01,9.15177e-01,4.68711e-01,9.99998e-01
8.973502660e-01,4.04735e-01,9.93870e-01,8.55733e-01,4.75780e-01,9.99997e-01
9.018370173e-01,4.45765e-01,9.99323e-01,9.23860e-01,4.82812e-01,9.99997e-01
9.063462024e-01,4.49000e-01,9.82563e-01,9.32051e-01,4.89806e-01,9.99996e-01
9.108779334e-01,4.28141e-01,9.60690e-01,8.96359e-01,4.96760e-01,9.99996e-01
9.154323231e-01,4.40813e-01,9.90684e-01,8.83118e-01,5.03673e-01,9.99996e-01
9.200094847e-01,4.09827e-01,8.77161e-01,9.07453e-01,5.10543e-01,9.99995e-01
9.246095321e-01,3.67621e-01,8.22054e-01,8.59435e-01,5.17368e-01,9.99992e-01
9.292325798e-01,1.72206e-01,8.57863e-01,3.73665e-01,5.24146e-01,9.99985e-01
9.338787427e-01,1.33029e-01,8.62342e-01,2.83975e-01,5.30877e-01,9.99980e-01
9.385481364e-01,2.92262e-01,8.96528e-01,6.00337e-01,5.37559e-01,9.99980e-01
9.432408771e-01,2.54251e-01,9.35284e-01,4.96632e-01,5.44190e-01,9.99977e-01
9.479570815e-01,2.04781e-01,9.66206e-01,3.83696e-01,5.50770e-01,9.99980e-01
9.526968669e-01,2.64797e-01,9.83588e-01,4.82014e-01,5.57297e-01,9.99985e-01
9.574603512e-01,2.82038e-01,9.92950e-01,5.03431e-01,5.63770e-01,9.99988e-01
9.622476530e-01,3.24381e-01,9.97797e-01,5.70033e-01,5.70188e-01,9.99992e-01
9.670588912e-01,4.16083e-01,9.99340e-01,7.22114e-01,5.76551e-01,9.99995e-01
9.718941857e-01,4.74452e-01,9.99953e-01,8.14047e-01,5.82857e-01,9.99996e-01
9.767536566e-01,4.96548e-01,9.99999e-01,8.42886e-01,5.89105e-01,9.99997e-01
9.816374249e-01,5.24445e-01,9.99999e-01,8.80985e-01,5.95294e-01,9.99998e-01
9.865456120e-01,5.55610e-01,9.99999e-01,9.23822e-01,6.01425e-01,9.99998e-01
9.914783401e-01,5.78431e-01,9.99999e-01,9.52157e-01,6.07495e-01,9.99999e-01
9.964357318e-01,5.97347e-01,9.99999e-01,9.73660e-01,6.13506e-01,9.99999e-01
1.001417910e+00,6.09626e-01,9.99999e-01,9.84131e-01,6.19455e-01,9.99999e-01
1.006425000e+00,6.19661e-01,9.99999e-01,9.90914e-01,6.25343e-01,9.99999e-01
1.011457125e+00,6.27609e-01,9.99999e-01,9.94359e-01,6.31168e-01,9.99999e-01
1.016514411e+00,6.34489e-01,9.99999e-01,9.96164e-01,6.36932e-01,9.99999e-01
1.021596983e+00,6.40603e-01,9.99898e-01,9.96941e-01,6.42632e-01,9.99999e-01
1.026704968e+00,6.42276e-01,9.93118e-01,9.97613e-01,6.48270e-01,9.99999e-01
1.031838492e+00,6.08034e-01,9.31482e-01,9.98267e-01,6.53844e-01,9.99999e-01
1.036997685e+00,5.74480e-02,8.71966e-02,9.98969e-01,6.59354e-01,9.99999e-01
1.042182673e+00,1.80052e-02,2.71112e-02,9.98768e-01,6.64801e-01,9.99999e-01
1.047393587e+00,3.06932e-02,4.58624e-02,9.98368e-01,6.70184e-01,9.99999e-01
1.052630555e+00,8.76711e-05,1.29983e-04,9.97760e-01,6.75502e-01,9.99999e-01
1.057893707e+00,2.98420e-04,4.39332e-04,9.96261e-01,6.80757e-01,9.99999e-01
1.063183176e+00,2.15342e-03,3.15174e-03,9.93857e-01,6.85948e-01,9.99999e-01
1.068499092e+00,1.05747e-02,1.54222e-02,9.89742e-01,6.91074e-01,9.99999e-01
1.073841587e+00,4.86140e-02,7.05035e-02,9.87995e-01,6.96137e-01,9.99999e-01
1.079210795e+00,1.29307e-01,1.86876e-01,9.84665e-01,7.01135e-01,9.99999e-01
1.084606849e+00,2.71351e-01,3.92704e-01,9.76860e-01,7.06069e-01,9.99998e-01
1.090029883e+00,4.22845e-01,6.14168e-01,9.66838e-01,7.10940e-01,9.99998e-01
1.095480033e+00,5.14358e-01,7.86321e-01,9.12310e-01,7.15747e-01,9.99997e-01
1.100957433e+00,5.09629e-01,8.90398e-01,7.92689e-01,7.20491e-01,9.99995e-01
1.106462220e+00,3.87396e-01,9.53139e-01,5.58835e-01,7.25171e-01,9.99990e-01
1.111994531e+00,2.15387e-01,9.82359e-01,2.99811e-01,7.29789e-01,9.99982e-01
1.117554504e+00,1.07456e-01,9.95677e-01,1.46786e-01,7.34344e-01,9.99974e-01
1.123142276e+00,1.90360e-01,9.99716e-01,2.57676e-01,7.38837e-01,9.99970e-01
1.128757988e+00,3.00815e-01,9.99999e-01,4.04733e-01,7.43267e-01,9.99967e-01
1.134401778e+00,1.46545e-01,9.99999e-01,1.96018e-01,7.47636e-01,9.99964e-01
1.140073787e+00,4.32601e-01,9.99999e-01,5.75327e-01,7.51943e-01,9.99970e-01
1.145774156e+00,2.47116e-01,9.99999e-01,3.26799e-01,7.56189e-01,9.99975e-01
1.151503026e+00,2.20827e-01,9.99999e-01,2.90424e-01,7.60375e-01,9.99978e-01
1.157260541e+00,2.62632e-01,9.99999e-01,3.43539e-01,7.64501e-01,9.99983e-01
1.163046844e+00,3.47688e-01,9.99999e-01,4.52389e-01,7.68567e-01,9.99989e-01
1.168862078e+00,4.42044e-01,9.99999e-01,5.72173e-01,7.72573e-01,9.99994e-01
1.174706389e+00,5.49961e-01,9.99999e-01,7.08239e-01,7.76521e-01,9.99996e-01
1.180579921e+00,6.32269e-01,9.99999e-01,8.10177e-01,7.80410e-01,9.99997e-01
1.186482820e+00,6.96026e-01,9.99985e-01,8.87527e-01,7.84241e-01,9.99998e-01
1.192415234e+00,7.17587e-01,9.75909e-01,9.32648e-01,7.88015e-01,9.99998e-01
1.198377311e+00,4.08907e-01,5.42427e-01,9.42885e-01,7.91732e-01,9.99998e-01
1.204369197e+00,1.40391e-18,1.82270e-18,9.45954e-01,7.95393e-01,9.99998e-01
1.210391043e+00,2.33738e-72,3.01311e-72,9.48227e-01,7.98997e-01,9.99998e-01
1.216442998e+00,9.67658e-63,1.23997e-62,9.55835e-01,8.02547e-01,9.99999e-01
1.222525213e+00,8.27955e-62,1.04599e-61,9.65412e-01,8.06041e-01,9.99999e-01
1.228637839e+00,8.11758e-48,1.01960e-47,9.75845e-01,8.09481e-01,9.99999e-01
1.234781029e+00,3.82201e-30,4.73890e-30,9.82020e-01,8.12868e-01,9.99999e-01
1.240954934e+00,3.65779e-20,4.51397e-20,9.88589e-01,8.16201e-01,9.99999e-01
1.247159708e+00,2.89402e-10,3.55019e-10,9.91107e-01,8.19482e-01,9.99999e-01
1.253395507e+00,7.23040e-07,8.83864e-07,9.92095e-01,8.22711e-01,9.99999e-01
1.259662485e+00,2.80646e-04,3.41742e-04,9.92481e-01,8.25888e-01,9.99999e-01
1.265960797e+00,8.93975e-03,1.08753e-02,9.88024e-01,8.29015e-01,9.99999e-01
1.272290601e+00,1.09752e-01,1.34071e-01,9.81218e-01,8.32091e-01,9.99999e-01
1.278652054e+00,9.25258e-02,1.13835e-01,9.63029e-01,8.35118e-01,9.99998e-01
1.285045314e+00,5.40976e-04,6.63880e-04,9.33963e-01,8.38095e-01,9.99998e-01
1.291470541e+00,4.89396e-09,6.24235e-09,8.87806e-01,8.41024e-01,9.99997e-01
1.297927893e+00,6.76739e-04,8.63668e-04,8.44429e-01,8.43905e-01,9.99995e-01
1.304417533e+00,1.80314e-02,2.51379e-02,8.19815e-01,8.46739e-01,9.99992e-01
1.310939621e+00,3.09708e-03,4.14931e-03,7.77973e-01,8.49526e-01,9.99986e-01
1.317494319e+00,2.02740e-25,2.73174e-25,7.81786e-01,8.52267e-01,9.99977e-01
1.324081790e+00,7.43002e-17,1.02839e-16,6.92983e-01,8.54962e-01,9.99964e-01
1.330702199e+00,3.24314e-10,6.77915e-10,2.78581e-01,8.57613e-01,9.99940e-01
1.337355710e+00,2.18191e-10,2.68889e-09,3.10627e-02,8.60219e-01,9.99886e-01
1.344042489e+00,2.86218e-11,1.05000e-09,1.02859e-03,8.62781e-01,9.99757e-01
1.350762701e+00,8.85632e-17,3.73539e-10,4.14772e-08,8.65300e-01,9.99612e-01
1.357516515e+00,2.37322e-16,1.57287e-06,1.52062e-11,8.67776e-01,9.99520e-01
1.364304097e+00,6.21432e-11,1.04413e-04,1.90897e-07,8.70210e-01,9.99486e-01
1.371125618e+00,7.65864e-07,9.02832e-03,4.28200e-05,8.72603e-01,9.99482e-01
1.377981246e+00,3.89766e-06,1.86148e-02,1.34354e-04,8.74955e-01,9.99443e-01
1.384871152e+00,1.41931e-07,9.83647e-02,1.08522e-06,8.77267e-01,9.99459e-01
1.391795508e+00,3.65191e-08,1.17545e-01,2.15837e-07,8.79539e-01,9.99541e-01
1.398754485e+00,1.23745e-06,2.63629e-01,4.57179e-06,8.81772e-01,9.99606e-01
1.405748258e+00,1.74871e-06,3.76797e-01,4.39256e-06,8.83966e-01,9.99646e-01
1.412776999e+00,2.44023e-06,5.38663e-01,4.30340e-06,8.86122e-01,9.99716e-01
1.419840884e+00,5.16644e-06,4.81631e-01,8.97217e-06,8.88241e-01,9.99787e-01
1.426940089e+00,5.27576e-05,2.73230e-02,1.57642e-04,8.90322e-01,9.99868e-01
1.434074789e+00,0.00000e+00,0.00000e+00,1.03169e-03,8.92368e-01,9.99917e-01
1.441245163e+00,0.00000e+00,0.00000e+00,3.88822e-03,8.94377e-01,9.99935e-01
1.448451389e+00,0.00000e+00,0.00000e+00,2.10900e-02,8.96351e-01,9.99946e-01
1.455693646e+00,0.00000e+00,0.00000e+00,7.23077e-02,8.98291e-01,9.99955e-01
1.462972114e+00,2.12104e-287,1.02471e-286,9.82041e-02,9.00196e-01,9.99962e-01
1.470286975e+00,5.22104e-120,2.82816e-119,6.80185e-02,9.02067e-01,9.99966e-01
