#,Wave/freq,Total,CO2,H2O,Rayleigh,CIA
4.000000000e-01,2.84730e-02,9.99999e-01,9.99992e-01,2.84732e-02,9.99999e-01
4.020000000e-01,3.05488e-02,9.99999e-01,9.99995e-01,3.05490e-02,9.99999e-01
4.040100000e-01,3.27281e-02,9.99999e-01,9.99997e-01,3.27281e-02,9.99999e-01
4.060300500e-01,3.50151e-02,9.99999e-01,9.99999e-01,3.50151e-02,9.99999e-01
4.080602003e-01,3.74119e-02,9.99999e-01,9.99999e-01,3.74119e-02,9.99999e-01
4.101005013e-01,3.99206e-02,9.99999e-01,9.99999e-01,3.99206e-02,9.99999e-01
4.121510038e-01,4.25428e-02,9.99999e-01,9.99999e-01,4.25428e-02,9.99999e-01
4.142117588e-01,4.52803e-02,9.99999e-01,9.99997e-01,4.52804e-02,9.99999e-01
4.162828176e-01,4.81344e-02,9.99999e-01,9.99990e-01,4.81348e-02,9.99999e-01
4.183642317e-01,5.11072e-02,9.99999e-01,9.99994e-01,5.11075e-02,9.99999e-01
4.204560528e-01,5.41993e-02,9.99999e-01,9.99996e-01,5.41994e-02,9.99999e-01
4.225583331e-01,5.74118e-02,9.99999e-01,9.99998e-01,5.74119e-02,9.99999e-01
4.246711247e-01,6.07455e-02,9.99999e-01,9.99998e-01,6.07455e-02,9.99999e-01
4.267944804e-01,6.42011e-02,9.99999e-01,9.99998e-01,6.42012e-02,9.99999e-01
4.289284528e-01,6.77792e-02,9.99999e-01,9.99998e-01,6.77793e-02,9.99999e-01
4.310730950e-01,7.14802e-02,9.99999e-01,9.99999e-01,7.14802e-02,9.99999e-01
4.332284605e-01,7.53040e-02,9.99999e-01,9.99999e-01,7.53040e-02,9.99999e-01
4.353946028e-01,7.92508e-02,9.99999e-01,9.99999e-01,7.92509e-02,9.99999e-01
4.375715758e-01,8.33203e-02,9.99999e-01,9.99998e-01,8.33204e-02,9.99999e-01
4.397594337e-01,8.75116e-02,9.99999e-01,9.99991e-01,8.75123e-02,9.99999e-01
4.419582309e-01,9.18225e-02,9.99999e-01,9.99960e-01,9.18261e-02,9.99999e-01
4.441680220e-01,9.62580e-02,9.99999e-01,9.99969e-01,9.62609e-02,9.99999e-01
4.463888621e-01,1.00813e-01,9.99999e-01,9.99968e-01,1.00816e-01,9.99999e-01
4.486208064e-01,1.05488e-01,9.99999e-01,9.99980e-01,1.05490e-01,9.99999e-01
4.508639105e-01,1.10281e-01,9.99999e-01,9.99990e-01,1.10282e-01,9.99999e-01
4.531182300e-01,1.15191e-01,9.99999e-01,9.99995e-01,1.15191e-01,9.99999e-01
4.553838212e-01,1.20215e-01,9.99999e-01,9.99997e-01,1.20215e-01,9.99999e-01
4.576607403e-01,1.25352e-01,9.99999e-01,9.99998e-01,1.25352e-01,9.99999e-01
4.599490440e-01,1.30601e-01,9.99999e-01,9.99998e-01,1.30601e-01,9.99999e-01
4.622487892e-01,1.35959e-01,9.99999e-01,9.99999e-01,1.35959e-01,9.99999e-01
4.645600332e-01,1.41425e-01,9.99999e-01,9.99998e-01,1.41425e-01,9.99999e-01
4.668828333e-01,1.46994e-01,9.99999e-01,9.99990e-01,1.46996e-01,9.99999e-01
4.692172475e-01,1.52666e-01,9.99999e-01,9.99979e-01,1.52669e-01,9.99999e-01
4.715633337e-01,1.58442e-01,9.99999e-01,9.99986e-01,1.58444e-01,9.99999e-01
4.739211504e-01,1.64314e-01,9.99999e-01,9.99987e-01,1.64316e-01,9.99999e-01
4.762907561e-01,1.70282e-01,9.99999e-01,9.99993e-01,1.70283e-01,9.99999e-01
4.786722099e-01,1.76342e-01,9.99999e-01,9.99996e-01,1.76343e-01,9.99999e-01
4.810655710e-01,1.82492e-01,9.99999e-01,9.99998e-01,1.82492e-01,9.99999e-01
4.834708988e-01,1.88727e-01,9.99999e-01,9.99991e-01,1.88728e-01,9.99999e-01
4.858882533e-01,1.95045e-01,9.99999e-01,9.99985e-01,1.95048e-01,9.99999e-01
4.883176946e-01,2.01445e-01,9.99999e-01,9.99987e-01,2.01448e-01,9.99999e-01
4.907592831e-01,2.07923e-01,9.99999e-01,9.99989e-01,2.07925e-01,9.99999e-01
4.932130795e-01,2.14475e-01,9.99999e-01,9.99992e-01,2.14476e-01,9.99999e-01
4.956791449e-01,2.21098e-01,9.99999e-01,9.99995e-01,2.21099e-01,9.99999e-01
4.981575406e-01,2.27784e-01,9.99999e-01,9.99979e-01,2.27789e-01,9.99999e-01
5.006483283e-01,2.34531e-01,9.99999e-01,9.99948e-01,2.34543e-01,9.99999e-01
5.031515699e-01,2.41296e-01,9.99999e-01,9.99740e-01,2.41358e-01,9.99999e-01
5.056673278e-01,2.48197e-01,9.99999e-01,9.99862e-01,2.48231e-01,9.99999e-01
5.081956644e-01,2.55114e-01,9.99999e-01,9.99827e-01,2.55158e-01,9.99999e-01
5.107366428e-01,2.62105e-01,9.99999e-01,9.99883e-01,2.62136e-01,9.99999e-01
5.132903260e-01,2.69143e-01,9.99999e-01,9.99933e-01,2.69161e-01,9.99999e-01
5.158567776e-01,2.76222e-01,9.99999e-01,9.99971e-01,2.76230e-01,9.99999e-01
5.184360615e-01,2.83336e-01,9.99999e-01,9.99988e-01,2.83339e-01,9.99999e-01
5.210282418e-01,2.90485e-01,9.99999e-01,9.99995e-01,2.90486e-01,9.99999e-01
5.236333830e-01,2.97661e-01,9.99999e-01,9.99982e-01,2.97666e-01,9.99999e-01
5.262515499e-01,3.04874e-01,9.99999e-01,9.99988e-01,3.04877e-01,9.99999e-01
5.288828077e-01,3.12112e-01,9.99999e-01,9.99989e-01,3.12115e-01,9.99999e-01
5.315272217e-01,3.19374e-01,9.99999e-01,9.99991e-01,3.19377e-01,9.99999e-01
5.341848578e-01,3.26657e-01,9.99999e-01,9.99993e-01,3.26659e-01,9.99999e-01
5.368557821e-01,3.33952e-01,9.99999e-01,9.99979e-01,3.33958e-01,9.99999e-01
5.395400610e-01,3.41248e-01,9.99999e-01,9.99928e-01,3.41272e-01,9.99999e-01
5.422377613e-01,3.48565e-01,9.99999e-01,9.99907e-01,3.48596e-01,9.99999e-01
5.449489501e-01,3.55898e-01,9.99999e-01,9.99914e-01,3.55929e-01,9.99999e-01
5.476736949e-01,3.63239e-01,9.99999e-01,9.99924e-01,3.63266e-01,9.99999e-01
5.504120634e-01,3.70585e-01,9.99999e-01,9.99944e-01,3.70605e-01,9.99999e-01
5.531641237e-01,3.77933e-01,9.99999e-01,9.99971e-01,3.77943e-01,9.99999e-01
5.559299443e-01,3.85272e-01,9.99999e-01,9.99986e-01,3.85277e-01,9.99999e-01
5.587095940e-01,3.92601e-01,9.99999e-01,9.99991e-01,3.92605e-01,9.99999e-01
5.615031420e-01,3.99919e-01,9.99999e-01,9.99990e-01,3.99922e-01,9.99999e-01
5.643106577e-01,4.07224e-01,9.99999e-01,9.99988e-01,4.07228e-01,9.99999e-01
5.671322110e-01,4.14465e-01,9.99999e-01,9.99870e-01,4.14519e-01,9.99999e-01
5.699678720e-01,4.21735e-01,9.99999e-01,9.99863e-01,4.21793e-01,9.99999e-01
5.728177114e-01,4.28985e-01,9.99999e-01,9.99857e-01,4.29046e-01,9.99999e-01
5.756818000e-01,4.36221e-01,9.99999e-01,9.99869e-01,4.36278e-01,9.99999e-01
5.785602090e-01,4.43434e-01,9.99999e-01,9.99886e-01,4.43485e-01,9.99999e-01
5.814530100e-01,4.50613e-01,9.99999e-01,9.99885e-01,4.50665e-01,9.99999e-01
5.843602750e-01,4.57753e-01,9.99999e-01,9.99863e-01,4.57816e-01,9.99999e-01
5.872820764e-01,4.64389e-01,9.99999e-01,9.98823e-01,4.64936e-01,9.99999e-01
5.902184868e-01,4.71353e-01,9.99999e-01,9.98580e-01,4.72023e-01,9.99999e-01
5.931695792e-01,4.78593e-01,9.99999e-01,9.98995e-01,4.79074e-01,9.99999e-01
5.961354271e-01,4.85555e-01,9.99999e-01,9.98900e-01,4.86089e-01,9.99999e-01
5.991161043e-01,4.92670e-01,9.99999e-01,9.99198e-01,4.93065e-01,9.99999e-01
6.021116848e-01,4.99773e-01,9.99999e-01,9.99545e-01,5.00000e-01,9.99999e-01
6.051222432e-01,5.06776e-01,9.99999e-01,9.99769e-01,5.06892e-01,9.99999e-01
6.081478544e-01,5.13690e-01,9.99999e-01,9.99900e-01,5.13741e-01,9.99999e-01
6.111885937e-01,5.20523e-01,9.99999e-01,9.99957e-01,5.20545e-01,9.99999e-01
6.142445367e-01,5.27291e-01,9.99999e-01,9.99980e-01,5.27301e-01,9.99999e-01
6.173157594e-01,5.34004e-01,9.99999e-01,9.99989e-01,5.34009e-01,9.99999e-01
6.204023382e-01,5.40663e-01,9.99999e-01,9.99990e-01,5.40667e-01,9.99999e-01
6.235043498e-01,5.47254e-01,9.99999e-01,9.99960e-01,5.47275e-01,9.99999e-01
6.266218716e-01,5.53717e-01,9.99999e-01,9.99795e-01,5.53830e-01,9.99999e-01
6.297549810e-01,5.60290e-01,9.99999e-01,9.99924e-01,5.60332e-01,9.99999e-01
6.329037559e-01,5.66696e-01,9.99999e-01,9.99851e-01,5.66780e-01,9.99999e-01
6.360682746e-01,5.73100e-01,9.99999e-01,9.99873e-01,5.73172e-01,9.99999e-01
6.392486160e-01,5.79413e-01,9.99999e-01,9.99836e-01,5.79508e-01,9.99999e-01
6.424448591e-01,5.85658e-01,9.99999e-01,9.99780e-01,5.85787e-01,9.99999e-01
6.456570834e-01,5.91405e-01,9.99999e-01,9.98980e-01,5.92008e-01,9.99999e-01
6.488853688e-01,5.97726e-01,9.99999e-01,9.99257e-01,5.98170e-01,9.99999e-01
6.521297956e-01,6.03815e-01,9.99999e-01,9.99242e-01,6.04272e-01,9.99999e-01
6.553904446e-01,6.09854e-01,9.99999e-01,9.99245e-01,6.10315e-01,9.99999e-01
6.586673968e-01,6.15899e-01,9.99999e-01,9.99354e-01,6.16297e-01,9.99999e-01
6.619607338e-01,6.21993e-01,9.99999e-01,9.99640e-01,6.22217e-01,9.99999e-01
6.652705375e-01,6.27940e-01,9.99999e-01,9.99783e-01,6.28076e-01,9.99999e-01
6.685968902e-01,6.33814e-01,9.99999e-01,9.99907e-01,6.33872e-01,9.99999e-01
6.719398746e-01,6.39577e-01,9.99999e-01,9.99953e-01,6.39606e-01,9.99999e-01
6.752995740e-01,6.45261e-01,9.99999e-01,9.99974e-01,6.45277e-01,9.99999e-01
6.786760719e-01,6.50861e-01,9.99999e-01,9.99963e-01,6.50885e-01,9.99999e-01
6.820694522e-01,6.56389e-01,9.99999e-01,9.99937e-01,6.56430e-01,9.99999e-01
6.854797995e-01,6.61857e-01,9.99999e-01,9.99919e-01,6.61910e-01,9.99999e-01
6.889071985e-01,6.67196e-01,9.99999e-01,9.99803e-01,6.67327e-01,9.99999e-01
6.923517345e-01,6.70536e-01,9.99999e-01,9.96811e-01,6.72680e-01,9.99999e-01
6.958134932e-01,6.76854e-01,9.99999e-01,9.98355e-01,6.77969e-01,9.99999e-01
6.992925606e-01,6.82118e-01,9.99999e-01,9.98425e-01,6.83193e-01,9.99999e-01
7.027890234e-01,6.87021e-01,9.99999e-01,9.98062e-01,6.88354e-01,9.99999e-01
7.063029686e-01,6.92321e-01,9.99999e-01,9.98370e-01,6.93451e-01,9.99999e-01
7.098344834e-01,6.97391e-01,9.99999e-01,9.98436e-01,6.98483e-01,9.99999e-01
7.133836558e-01,7.01978e-01,9.99999e-01,9.97904e-01,7.03451e-01,9.99999e-01
7.169505741e-01,6.96464e-01,9.99999e-01,9.83212e-01,7.08356e-01,9.99999e-01
7.205353270e-01,7.07369e-01,9.99999e-01,9.91828e-01,7.13197e-01,9.99999e-01
7.241380036e-01,7.10486e-01,9.99999e-01,9.89569e-01,7.17974e-01,9.99999e-01
7.277586936e-01,7.15886e-01,9.99999e-01,9.90586e-01,7.22689e-01,9.99999e-01
7.313974871e-01,7.20090e-01,9.99999e-01,9.90032e-01,7.27340e-01,9.99999e-01
7.350544745e-01,7.27936e-01,9.99999e-01,9.94545e-01,7.31928e-01,9.99999e-01
7.387297469e-01,7.33500e-01,9.99999e-01,9.95988e-01,7.36453e-01,9.99999e-01
7.424233956e-01,7.39464e-01,9.99999e-01,9.98038e-01,7.40917e-01,9.99999e-01
7.461355126e-01,7.44432e-01,9.99999e-01,9.98810e-01,7.45318e-01,9.99999e-01
7.498661902e-01,7.49244e-01,9.99999e-01,9.99446e-01,7.49658e-01,9.99999e-01
7.536155211e-01,7.53733e-01,9.99999e-01,9.99728e-01,7.53937e-01,9.99999e-01
7.573835987e-01,7.58049e-01,9.99999e-01,9.99859e-01,7.58155e-01,9.99999e-01
7.611705167e-01,7.62247e-01,9.99999e-01,9.99912e-01,7.62313e-01,9.99999e-01
7.649763693e-01,7.66369e-01,9.99999e-01,9.99945e-01,7.66410e-01,9.99999e-01
7.688012511e-01,7.70419e-01,9.99999e-01,9.99961e-01,7.70448e-01,9.99999e-01
7.726452574e-01,7.74403e-01,9.99999e-01,9.99968e-01,7.74427e-01,9.99999e-01
7.765084837e-01,7.78313e-01,9.99999e-01,9.99955e-01,7.78347e-01,9.99999e-01
7.803910261e-01,7.72140e-01,9.87313e-01,9.99807e-01,7.82209e-01,9.99999e-01
7.842929812e-01,7.45018e-01,9.48468e-01,9.99327e-01,7.86014e-01,9.99999e-01
7.882144461e-01,7.44923e-01,9.44510e-01,9.98619e-01,7.89761e-01,9.99999e-01
7.921555184e-01,7.67400e-01,9.67891e-01,9.99244e-01,7.93452e-01,9.99999e-01
7.961162960e-01,7.78944e-01,9.78547e-01,9.98658e-01,7.97086e-01,9.99999e-01
8.000968774e-01,7.90085e-01,9.88311e-01,9.98454e-01,8.00665e-01,9.99999e-01
8.040973618e-01,7.98083e-01,9.93944e-01,9.98453e-01,8.04188e-01,9.99999e-01
8.081178486e-01,8.02590e-01,9.97211e-01,9.96502e-01,8.07657e-01,9.99999e-01
8.121584379e-01,7.98600e-01,9.99141e-01,9.85464e-01,8.11072e-01,9.99999e-01
8.162192301e-01,8.00291e-01,9.99810e-01,9.82819e-01,8.14434e-01,9.99999e-01
8.203003262e-01,8.10612e-01,9.99996e-01,9.91282e-01,8.17743e-01,9.99999e-01
8.244018279e-01,8.11087e-01,9.99999e-01,9.87926e-01,8.20999e-01,9.99999e-01
8.285238370e-01,8.15722e-01,9.99999e-01,9.89708e-01,8.24204e-01,9.99999e-01
8.326664562e-01,8.18760e-01,9.99999e-01,9.89607e-01,8.27357e-01,9.99999e-01
8.368297885e-01,8.24306e-01,9.99999e-01,9.92588e-01,8.30460e-01,9.99999e-01
8.410139374e-01,8.29842e-01,9.99999e-01,9.95594e-01,8.33513e-01,9.99999e-01
8.452190071e-01,8.34711e-01,9.99999e-01,9.97840e-01,8.36517e-01,9.99999e-01
8.494451021e-01,8.38419e-01,9.99999e-01,9.98744e-01,8.39472e-01,9.99999e-01
8.536923276e-01,8.41754e-01,9.99999e-01,9.99258e-01,8.42378e-01,9.99999e-01
8.579607893e-01,8.44851e-01,9.99999e-01,9.99542e-01,8.45237e-01,9.99999e-01
8.622505932e-01,8.47803e-01,9.99999e-01,9.99709e-01,8.48049e-01,9.99999e-01
8.665618462e-01,8.20384e-01,9.64403e-01,9.99819e-01,8.50814e-01,9.99999e-01
8.708946554e-01,7.43758e-01,8.71563e-01,9.99793e-01,8.53534e-01,9.99999e-01
8.752491287e-01,7.67840e-01,8.97034e-01,9.99724e-01,8.56208e-01,9.99999e-01
8.796253743e-01,8.09468e-01,9.42871e-01,9.99617e-01,8.58837e-01,9.99999e-01
8.840235012e-01,8.35348e-01,9.70150e-01,9.99563e-01,8.61423e-01,9.99999e-01
8.884436187e-01,8.52384e-01,9.88175e-01,9.98395e-01,8.63965e-01,9.99999e-01
8.928858368e-01,8.47850e-01,9.95195e-01,9.83226e-01,8.66464e-01,9.99999e-01
8.973502660e-01,8.42372e-01,9.98834e-01,9.70569e-01,8.68920e-01,9.99999e-01
9.018370173e-01,8.58078e-01,9.99871e-01,9.84910e-01,8.71335e-01,9.99999e-01
9.063462024e-01,8.59174e-01,9.96638e-01,9.86644e-01,8.73709e-01,9.99999e-01
9.108779334e-01,8.51416e-01,9.92416e-01,9.79283e-01,8.76042e-01,9.99998e-01
9.154323231e-01,8.56223e-01,9.98223e-01,9.76546e-01,8.78335e-01,9.99998e-01
9.200094847e-01,8.41341e-01,9.73007e-01,9.81583e-01,8.80588e-01,9.99998e-01
9.246095321e-01,8.25714e-01,9.63330e-01,9.70685e-01,8.82803e-01,9.99998e-01
9.292325798e-01,7.03882e-01,9.70826e-01,8.18217e-01,8.84979e-01,9.99996e-01
9.338787427e-01,6.66190e-01,9.72032e-01,7.71604e-01,8.87118e-01,9.99995e-01
9.385481364e-01,7.85285e-01,9.79427e-01,9.01255e-01,8.89219e-01,9.99995e-01
9.432408771e-01,7.59334e-01,9.87394e-01,8.62596e-01,8.91284e-01,9.99995e-01
9.479570815e-01,7.20920e-01,9.93509e-01,8.12171e-01,8.93312e-01,9.99995e-01
9.526968669e-01,7.66625e-01,9.96867e-01,8.58865e-01,8.95305e-01,9.99996e-01
9.574603512e-01,7.81951e-01,9.98660e-01,8.72626e-01,8.97263e-01,9.99997e-01
9.622476530e-01,8.05148e-01,9.99582e-01,8.95785e-01,8.99186e-01,9.99998e-01
9.670588912e-01,8.45720e-01,9.99874e-01,9.38682e-01,9.01076e-01,9.99998e-01
9.718941857e-01,8.68134e-01,9.99990e-01,9.61469e-01,9.02932e-01,9.99998e-01
9.767536566e-01,8.75734e-01,9.99999e-01,9.67924e-01,9.04755e-01,9.99999e-01
9.816374249e-01,8.84962e-01,9.99999e-01,9.76191e-01,9.06545e-01,9.99999e-01
9.865456120e-01,8.94748e-01,9.99999e-01,9.85076e-01,9.08304e-01,9.99999e-01
9.914783401e-01,9.01618e-01,9.99999e-01,9.90754e-01,9.10031e-01,9.99999e-01
9.964357318e-01,9.07129e-01,9.99999e-01,9.94956e-01,9.11727e-01,9.99999e-01
1.001417910e+00,9.10631e-01,9.99999e-01,9.96975e-01,9.13393e-01,9.99999e-01
1.006425000e+00,9.13450e-01,9.99999e-01,9.98273e-01,9.15029e-01,9.99999e-01
1.011457125e+00,9.15654e-01,9.99999e-01,9.98929e-01,9.16635e-01,9.99999e-01
1.016514411e+00,9.17545e-01,9.99999e-01,9.99272e-01,9.18212e-01,9.99999e-01
1.021596983e+00,9.19211e-01,9.99980e-01,9.99420e-01,9.19761e-01,9.99999e-01
1.026704968e+00,9.19662e-01,9.98692e-01,9.99547e-01,9.21282e-01,9.99999e-01
1.031838492e+00,9.02368e-01,9.78200e-01,9.99671e-01,9.22775e-01,9.99999e-01
1.036997685e+00,3.42252e-01,3.70369e-01,9.99804e-01,9.24241e-01,9.99999e-01
1.042182673e+00,4.27238e-01,4.61641e-01,9.99766e-01,9.25681e-01,9.99999e-01
1.047393587e+00,3.75885e-01,4.05559e-01,9.99690e-01,9.27094e-01,9.99999e-01
1.052630555e+00,9.43441e-02,1.01647e-01,9.99575e-01,9.28481e-01,9.99999e-01
1.057893707e+00,1.59534e-01,1.71673e-01,9.99291e-01,9.29843e-01,9.99999e-01
1.063183176e+00,2.61560e-01,2.81171e-01,9.98834e-01,9.31180e-01,9.99999e-01
1.068499092e+00,4.03531e-01,4.33533e-01,9.98049e-01,9.32492e-01,9.99999e-01
1.073841587e+00,5.50707e-01,5.91020e-01,9.97715e-01,9.33780e-01,9.99999e-01
1.079210795e+00,6.69635e-01,7.18181e-01,9.97077e-01,9.35045e-01,9.99999e-01
1.084606849e+00,7.78588e-01,8.35205e-01,9.95573e-01,9.36286e-01,9.99999e-01
1.090029883e+00,8.48700e-01,9.11026e-01,9.93626e-01,9.37505e-01,9.99999e-01
1.095480033e+00,8.81235e-01,9.55211e-01,9.82735e-01,9.38700e-01,9.99999e-01
1.100957433e+00,8.79536e-01,9.78201e-01,9.56579e-01,9.39874e-01,9.99998e-01
1.106462220e+00,8.32066e-01,9.90939e-01,8.92190e-01,9.41026e-01,9.99997e-01
1.111994531e+00,7.37697e-01,9.96633e-01,7.85562e-01,9.42156e-01,9.99996e-01
1.117554504e+00,6.35962e-01,9.99178e-01,6.74728e-01,9.43266e-01,9.99994e-01
1.123142276e+00,7.02125e-01,9.99945e-01,7.43531e-01,9.44355e-01,9.99994e-01
1.128757988e+00,7.84541e-01,9.99999e-01,8.29835e-01,9.45423e-01,9.99993e-01
1.134401778e+00,5.96289e-01,9.99999e-01,6.30016e-01,9.46472e-01,9.99992e-01
1.140073787e+00,8.49456e-01,9.99999e-01,8.96527e-01,9.47501e-01,9.99994e-01
1.145774156e+00,7.52845e-01,9.99999e-01,7.93716e-01,9.48511e-01,9.99994e-01
1.151503026e+00,7.32161e-01,9.99999e-01,7.71102e-01,9.49502e-01,9.99995e-01
1.157260541e+00,7.69436e-01,9.99999e-01,8.09531e-01,9.50474e-01,9.99996e-01
1.163046844e+00,8.14504e-01,9.99999e-01,8.56087e-01,9.51428e-01,9.99997e-01
1.168862078e+00,8.55689e-01,9.99999e-01,8.98489e-01,9.52364e-01,9.99998e-01
1.174706389e+00,8.92370e-01,9.99999e-01,9.36101e-01,9.53283e-01,9.99999e-01
1.180579921e+00,9.16640e-01,9.99999e-01,9.60653e-01,9.54184e-01,9.99999e-01
1.186482820e+00,9.33681e-01,9.99996e-01,9.77609e-01,9.55068e-01,9.99999e-01
1.192415234e+00,9.38958e-01,9.95278e-01,9.86879e-01,9.55936e-01,9.99999e-01
1.198377311e+00,5.73200e-01,6.04768e-01,9.88921e-01,9.56787e-01,9.99999e-01
1.204369197e+00,2.50061e-05,2.62720e-05,9.89508e-01,9.57622e-01,9.99999e-01
1.210391043e+00,1.64192e-15,1.72272e-15,9.89971e-01,9.58442e-01,9.99999e-01
1.216442998e+00,1.15968e-13,1.21540e-13,9.91470e-01,9.59246e-01,9.99999e-01
1.222525213e+00,1.97193e-13,2.06155e-13,9.93355e-01,9.60034e-01,9.99999e-01
1.228637839e+00,2.83078e-10,2.95613e-10,9.95381e-01,9.60808e-01,9.99999e-01
1.234781029e+00,1.96097e-07,2.04275e-07,9.96570e-01,9.61567e-01,9.99999e-01
1.240954934e+00,4.71318e-05,4.90509e-05,9.97829e-01,9.62312e-01,9.99999e-01
1.247159708e+00,3.78085e-03,3.93106e-03,9.98310e-01,9.63042e-01,9.99999e-01
1.253395507e+00,4.81072e-02,4.99801e-02,9.98499e-01,9.63759e-01,9.99999e-01
1.259662485e+00,1.77754e-01,1.84542e-01,9.98572e-01,9.64462e-01,9.99999e-01
1.265960797e+00,3.62574e-01,3.76455e-01,9.97721e-01,9.65151e-01,9.99999e-01
1.272290601e+00,6.46937e-01,6.72155e-01,9.96417e-01,9.65828e-01,9.99999e-01
1.278652054e+00,5.82354e-01,6.06418e-01,9.92883e-01,9.66491e-01,9.99999e-01
1.285045314e+00,5.88312e-02,6.13110e-02,9.87105e-01,9.67142e-01,9.99999e-01
1.291470541e+00,1.74888e-02,1.83974e-02,9.77627e-01,9.67781e-01,9.99999e-01
1.297927893e+00,1.26201e-01,1.33458e-01,9.68275e-01,9.68407e-01,9.99998e-01
1.304417533e+00,4.55365e-01,4.87402e-01,9.62680e-01,9.69021e-01,9.99998e-01
1.310939621e+00,1.41513e-01,1.50119e-01,9.57260e-01,9.69624e-01,9.99997e-01
1.317494319e+00,9.98217e-06,1.06207e-05,9.53876e-01,9.70215e-01,9.99995e-01
1.324081790e+00,2.09714e-04,2.24758e-04,9.31374e-01,9.70794e-01,9.99992e-01
1.330702199e+00,1.06034e-02,1.33760e-02,7.25320e-01,9.71363e-01,9.99988e-01
1.337355710e+00,5.07280e-03,8.81245e-03,4.62719e-01,9.71920e-01,9.99978e-01
1.344042489e+00,1.04083e-03,3.78541e-03,1.12673e-01,9.72467e-01,9.99953e-01
1.350762701e+00,2.57102e-04,1.12471e-02,1.44524e-02,9.73004e-01,9.99926e-01
1.357516515e+00,3.20857e-04,5.09651e-02,4.11616e-03,9.73530e-01,9.99908e-01
1.364304097e+00,4.26688e-03,1.61107e-01,2.20357e-02,9.74046e-01,9.99902e-01
1.371125618e+00,3.44631e-02,3.79374e-01,8.13960e-02,9.74552e-01,9.99901e-01
1.377981246e+00,5.43284e-02,4.64171e-01,1.13481e-01,9.75048e-01,9.99894e-01
1.384871152e+00,1.20615e-02,6.39721e-01,1.82068e-02,9.75535e-01,9.99897e-01
1.391795508e+00,1.97403e-02,6.62132e-01,2.90918e-02,9.76012e-01,9.99912e-01
1.398754485e+00,3.36394e-02,7.76398e-01,4.36086e-02,9.76481e-01,9.99925e-01
1.405748258e+00,3.48038e-02,8.29514e-01,4.18308e-02,9.76940e-01,9.99932e-01
1.412776999e+00,4.28906e-02,8.88956e-01,4.86933e-02,9.77390e-01,9.99945e-01
1.419840884e+00,5.06454e-02,8.35799e-01,5.69023e-02,9.77832e-01,9.99959e-01
1.426940089e+00,2.83044e-02,1.24827e-01,1.10820e-01,9.78265e-01,9.99974e-01
1.434074789e+00,3.94974e-210,1.03338e-209,1.83310e-01,9.78689e-01,9.99984e-01
1.441245163e+00,2.84592e-309,6.14695e-309,2.92908e-01,9.79106e-01,9.99987e-01
1.448451389e+00,2.45286e-254,3.86495e-254,4.12283e-01,9.79514e-01,9.99989e-01
1.455693646e+00,2.85625e-114,3.84919e-114,5.71522e-01,9.79915e-01,9.99991e-01
1.462972114e+00,3.44608e-56,4.64270e-56,6.21123e-01,9.80308e-01,9.99992e-01
1.470286975e+00,1.63831e-24,2.25989e-24,5.71910e-01,9.80693e-01,9.99993e-01
