#,Wave/freq,Total,CO2,H2O,Rayleigh,CIA
4.000000000e-01,2.43147e-07,9.99999e-01,9.99969e-01,2.43154e-07,9.99999e-01
4.020000000e-01,3.28591e-07,9.99999e-01,9.99980e-01,3.28597e-07,9.99999e-01
4.040100000e-01,4.41288e-07,9.99999e-01,9.99991e-01,4.41291e-07,9.99999e-01
4.060300500e-01,5.89192e-07,9.99999e-01,9.99997e-01,5.89194e-07,9.99999e-01
4.080602003e-01,7.82187e-07,9.99999e-01,9.99998e-01,7.82187e-07,9.99999e-01
4.101005013e-01,1.03260e-06,9.99999e-01,9.99999e-01,1.03260e-06,9.99999e-01
4.121510038e-01,1.35573e-06,9.99999e-01,9.99998e-01,1.35573e-06,9.99999e-01
4.142117588e-01,1.77041e-06,9.99999e-01,9.99991e-01,1.77042e-06,9.99999e-01
4.162828176e-01,2.29972e-06,9.99999e-01,9.99962e-01,2.29981e-06,9.99999e-01
4.183642317e-01,2.97203e-06,9.99999e-01,9.99977e-01,2.97209e-06,9.99999e-01
4.204560528e-01,3.82144e-06,9.99999e-01,9.99986e-01,3.82149e-06,9.99999e-01
4.225583331e-01,4.88928e-06,9.99999e-01,9.99994e-01,4.88931e-06,9.99999e-01
4.246711247e-01,6.22509e-06,9.99999e-01,9.99995e-01,6.22512e-06,9.99999e-01
4.267944804e-01,7.88812e-06,9.99999e-01,9.99993e-01,7.88817e-06,9.99999e-01
4.289284528e-01,9.94882e-06,9.99999e-01,9.99994e-01,9.94886e-06,9.99999e-01
4.310730950e-01,1.24905e-05,9.99999e-01,9.99997e-01,1.24905e-05,9.99999e-01
4.332284605e-01,1.56111e-05,9.99999e-01,9.99998e-01,1.56111e-05,9.99999e-01
4.353946028e-01,1.94257e-05,9.99999e-01,9.99999e-01,1.94257e-05,9.99999e-01
4.375715758e-01,2.40680e-05,9.99999e-01,9.99995e-01,2.40681e-05,9.99999e-01
4.397594337e-01,2.96932e-05,9.99999e-01,9.99967e-01,2.96941e-05,9.99999e-01
4.419582309e-01,3.64775e-05,9.99999e-01,9.99836e-01,3.64835e-05,9.99999e-01
4.441680220e-01,4.46375e-05,9.99999e-01,9.99870e-01,4.46433e-05,9.99999e-01
4.463888621e-01,5.44034e-05,9.99999e-01,9.99865e-01,5.44107e-05,9.99999e-01
4.486208064e-01,6.60509e-05,9.99999e-01,9.99916e-01,6.60564e-05,9.99999e-01
4.508639105e-01,7.98849e-05,9.99999e-01,9.99960e-01,7.98880e-05,9.99999e-01
4.531182300e-01,9.62523e-05,9.99999e-01,9.99984e-01,9.62538e-05,9.99999e-01
4.553838212e-01,1.15545e-04,9.99999e-01,9.99989e-01,1.15546e-04,9.99999e-01
4.576607403e-01,1.38205e-04,9.99999e-01,9.99994e-01,1.38206e-04,9.99999e-01
4.599490440e-01,1.64725e-04,9.99999e-01,9.99996e-01,1.64725e-04,9.99999e-01
4.622487892e-01,1.95654e-04,9.99999e-01,9.99998e-01,1.95654e-04,9.99999e-01
4.645600332e-01,2.31601e-04,9.99999e-01,9.99997e-01,2.31601e-04,9.99999e-01
4.668828333e-01,2.73230e-04,9.99999e-01,9.99960e-01,2.73241e-04,9.99999e-01
4.692172475e-01,3.21289e-04,9.99999e-01,9.99915e-01,3.21316e-04,9.99999e-01
4.715633337e-01,3.76622e-04,9.99999e-01,9.99944e-01,3.76643e-04,9.99999e-01
4.739211504e-01,4.40089e-04,9.99999e-01,9.99946e-01,4.40112e-04,9.99999e-01
4.762907561e-01,5.12684e-04,9.99999e-01,9.99972e-01,5.12698e-04,9.99999e-01
4.786722099e-01,5.95450e-04,9.99999e-01,9.99988e-01,5.95456e-04,9.99999e-01
4.810655710e-01,6.89530e-04,9.99999e-01,9.99996e-01,6.89532e-04,9.99999e-01
4.834708988e-01,7.96136e-04,9.99999e-01,9.99967e-01,7.96161e-04,9.99999e-01
4.858882533e-01,9.16617e-04,9.99999e-01,9.99940e-01,9.16672e-04,9.99999e-01
4.883176946e-01,1.05244e-03,9.99999e-01,9.99949e-01,1.05249e-03,9.99999e-01
4.907592831e-01,1.20508e-03,9.99999e-01,9.99954e-01,1.20514e-03,9.99999e-01
4.932130795e-01,1.37619e-03,9.99999e-01,9.99967e-01,1.37624e-03,9.99999e-01
4.956791449e-01,1.56749e-03,9.99999e-01,9.99982e-01,1.56751e-03,9.99999e-01
4.981575406e-01,1.78064e-03,9.99999e-01,9.99915e-01,1.78079e-03,9.99999e-01
5.006483283e-01,2.01755e-03,9.99999e-01,9.99782e-01,2.01799e-03,9.99999e-01
5.031515699e-01,2.27863e-03,9.99999e-01,9.98893e-01,2.28115e-03,9.99999e-01
5.056673278e-01,2.57089e-03,9.99999e-01,9.99414e-01,2.57239e-03,9.99999e-01
5.081956644e-01,2.89180e-03,9.99999e-01,9.99261e-01,2.89394e-03,9.99999e-01
5.107366428e-01,3.24649e-03,9.99999e-01,9.99500e-01,3.24811e-03,9.99999e-01
5.132903260e-01,3.63629e-03,9.99999e-01,9.99714e-01,3.63733e-03,9.99999e-01
5.158567776e-01,4.06360e-03,9.99999e-01,9.99878e-01,4.06409e-03,9.99999e-01
5.184360615e-01,4.53076e-03,9.99999e-01,9.99951e-01,4.53098e-03,9.99999e-01
5.210282418e-01,5.04058e-03,9.99999e-01,9.99981e-01,5.04067e-03,9.99999e-01
5.236333830e-01,5.59549e-03,9.99999e-01,9.99927e-01,5.59590e-03,9.99999e-01
5.262515499e-01,6.19919e-03,9.99999e-01,9.99954e-01,6.19947e-03,9.99999e-01
5.288828077e-01,6.85399e-03,9.99999e-01,9.99958e-01,6.85427e-03,9.99999e-01
5.315272217e-01,7.56294e-03,9.99999e-01,9.99962e-01,7.56321e-03,9.99999e-01
5.341848578e-01,8.32908e-03,9.99999e-01,9.99975e-01,8.32927e-03,9.99999e-01
5.368557821e-01,9.15470e-03,9.99999e-01,9.99915e-01,9.15546e-03,9.99999e-01
5.395400610e-01,1.00418e-02,9.99999e-01,9.99698e-01,1.00448e-02,9.99999e-01
5.422377613e-01,1.09961e-02,9.99999e-01,9.99606e-01,1.10004e-02,9.99999e-01
5.449489501e-01,1.20209e-02,9.99999e-01,9.99635e-01,1.20253e-02,9.99999e-01
5.476736949e-01,1.31183e-02,9.99999e-01,9.99675e-01,1.31226e-02,9.99999e-01
5.504120634e-01,1.42919e-02,9.99999e-01,9.99764e-01,1.42953e-02,9.99999e-01
5.531641237e-01,1.55446e-02,9.99999e-01,9.99881e-01,1.55465e-02,9.99999e-01
5.559299443e-01,1.68782e-02,9.99999e-01,9.99942e-01,1.68792e-02,9.99999e-01
5.587095940e-01,1.82958e-02,9.99999e-01,9.99963e-01,1.82964e-02,9.99999e-01
5.615031420e-01,1.98003e-02,9.99999e-01,9.99959e-01,1.98011e-02,9.99999e-01
5.643106577e-01,2.13951e-02,9.99999e-01,9.99954e-01,2.13960e-02,9.99999e-01
5.671322110e-01,2.30716e-02,9.99999e-01,9.99458e-01,2.30841e-02,9.99999e-01
5.699678720e-01,2.48535e-02,9.99999e-01,9.99413e-01,2.48681e-02,9.99999e-01
5.728177114e-01,2.67343e-02,9.99999e-01,9.99393e-01,2.67505e-02,9.99999e-01
5.756818000e-01,2.87180e-02,9.99999e-01,9.99442e-01,2.87340e-02,9.99999e-01
5.785602090e-01,3.08060e-02,9.99999e-01,9.99513e-01,3.08210e-02,9.99999e-01
5.814530100e-01,3.29977e-02,9.99999e-01,9.99512e-01,3.30138e-02,9.99999e-01
5.843602750e-01,3.52942e-02,9.99999e-01,9.99421e-01,3.53146e-02,9.99999e-01
5.872820764e-01,3.75378e-02,9.99999e-01,9.95020e-01,3.77256e-02,9.99999e-01
5.902184868e-01,4.00044e-02,9.99999e-01,9.93930e-01,4.02486e-02,9.99999e-01
5.931695792e-01,4.27020e-02,9.99999e-01,9.95719e-01,4.28855e-02,9.99999e-01
5.961354271e-01,4.54235e-02,9.99999e-01,9.95300e-01,4.56379e-02,9.99999e-01
5.991161043e-01,4.83409e-02,9.99999e-01,9.96568e-01,4.85074e-02,9.99999e-01
6.021116848e-01,5.13947e-02,9.99999e-01,9.98049e-01,5.14951e-02,9.99999e-01
6.051222432e-01,5.45485e-02,9.99999e-01,9.99012e-01,5.46024e-02,9.99999e-01
6.081478544e-01,5.78057e-02,9.99999e-01,9.99574e-01,5.78303e-02,9.99999e-01
6.111885937e-01,6.11684e-02,9.99999e-01,9.99819e-01,6.11795e-02,9.99999e-01
6.142445367e-01,6.46455e-02,9.99999e-01,9.99919e-01,6.46507e-02,9.99999e-01
6.173157594e-01,6.82414e-02,9.99999e-01,9.99955e-01,6.82445e-02,9.99999e-01
6.204023382e-01,7.19584e-02,9.99999e-01,9.99962e-01,7.19610e-02,9.99999e-01
6.235043498e-01,7.57882e-02,9.99999e-01,9.99836e-01,7.58006e-02,9.99999e-01
6.266218716e-01,7.96935e-02,9.99999e-01,9.99126e-01,7.97631e-02,9.99999e-01
6.297549810e-01,8.38214e-02,9.99999e-01,9.99679e-01,8.38482e-02,9.99999e-01
6.329037559e-01,8.79999e-02,9.99999e-01,9.99365e-01,8.80557e-02,9.99999e-01
6.360682746e-01,9.23353e-02,9.99999e-01,9.99461e-01,9.23850e-02,9.99999e-01
6.392486160e-01,9.67676e-02,9.99999e-01,9.99301e-01,9.68352e-02,9.99999e-01
6.424448591e-01,1.01311e-01,9.99999e-01,9.99070e-01,1.01406e-01,9.99999e-01
6.456570834e-01,1.05637e-01,9.99999e-01,9.95687e-01,1.06095e-01,9.99999e-01
6.488853688e-01,1.10489e-01,9.99999e-01,9.96275e-01,1.10902e-01,9.99999e-01
6.521297956e-01,1.15450e-01,9.99999e-01,9.96756e-01,1.15825e-01,9.99999e-01
6.553904446e-01,1.20477e-01,9.99999e-01,9.96795e-01,1.20864e-01,9.99999e-01
6.586673968e-01,1.25667e-01,9.99999e-01,9.97233e-01,1.26015e-01,9.99999e-01
6.619607338e-01,1.31068e-01,9.99999e-01,9.98400e-01,1.31278e-01,9.99999e-01
6.652705375e-01,1.36523e-01,9.99999e-01,9.99072e-01,1.36650e-01,9.99999e-01
6.685968902e-01,1.42068e-01,9.99999e-01,9.99568e-01,1.42129e-01,9.99999e-01
6.719398746e-01,1.47684e-01,9.99999e-01,9.99799e-01,1.47714e-01,9.99999e-01
6.752995740e-01,1.53384e-01,9.99999e-01,9.99891e-01,1.53400e-01,9.99999e-01
6.786760719e-01,1.59163e-01,9.99999e-01,9.99844e-01,1.59187e-01,9.99999e-01
6.820694522e-01,1.65028e-01,9.99999e-01,9.99733e-01,1.65072e-01,9.99999e-01
6.854797995e-01,1.70992e-01,9.99999e-01,9.99656e-01,1.71051e-01,9.99999e-01
6.889071985e-01,1.76977e-01,9.99999e-01,9.99177e-01,1.77122e-01,9.99999e-01
6.923517345e-01,1.80817e-01,9.99999e-01,9.86545e-01,1.83283e-01,9.99999e-01
6.958134932e-01,1.88182e-01,9.99999e-01,9.92888e-01,1.89529e-01,9.99999e-01
6.992925606e-01,1.94553e-01,9.99999e-01,9.93331e-01,1.95859e-01,9.99999e-01
7.027890234e-01,2.00596e-01,9.99999e-01,9.91727e-01,2.02269e-01,9.99999e-01
7.063029686e-01,2.07305e-01,9.99999e-01,9.93044e-01,2.08756e-01,9.99999e-01
7.098344834e-01,2.13880e-01,9.99999e-01,9.93325e-01,2.15317e-01,9.99999e-01
7.133836558e-01,2.19993e-01,9.99999e-01,9.91189e-01,2.21948e-01,9.99999e-01
7.169505741e-01,2.12878e-01,9.99999e-01,9.31035e-01,2.28647e-01,9.99998e-01
7.205353270e-01,2.27221e-01,9.99999e-01,9.65218e-01,2.35409e-01,9.99998e-01
7.241380036e-01,2.31684e-01,9.99999e-01,9.56456e-01,2.42232e-01,9.99998e-01
7.277586936e-01,2.39297e-01,9.99999e-01,9.60600e-01,2.49112e-01,9.99998e-01
7.313974871e-01,2.45281e-01,9.99999e-01,9.57960e-01,2.56045e-01,9.99998e-01
7.350544745e-01,2.56939e-01,9.99999e-01,9.76844e-01,2.63029e-01,9.99999e-01
7.387297469e-01,2.65442e-01,9.99999e-01,9.82900e-01,2.70060e-01,9.99999e-01
7.424233956e-01,2.74803e-01,9.99999e-01,9.91585e-01,2.77134e-01,9.99999e-01
7.461355126e-01,2.82799e-01,9.99999e-01,9.94899e-01,2.84249e-01,9.99999e-01
7.498661902e-01,2.90706e-01,9.99999e-01,9.97618e-01,2.91400e-01,9.99999e-01
7.536155211e-01,2.98236e-01,9.99999e-01,9.98833e-01,2.98584e-01,9.99999e-01
7.573835987e-01,3.05615e-01,9.99999e-01,9.99398e-01,3.05799e-01,9.99999e-01
7.611705167e-01,3.12923e-01,9.99999e-01,9.99626e-01,3.13040e-01,9.99999e-01
7.649763693e-01,3.20230e-01,9.99999e-01,9.99765e-01,3.20304e-01,9.99999e-01
7.688012511e-01,3.27536e-01,9.99999e-01,9.99836e-01,3.27589e-01,9.99999e-01
7.726452574e-01,3.34846e-01,9.99999e-01,9.99865e-01,3.34890e-01,9.99999e-01
7.765084837e-01,3.42141e-01,9.99999e-01,9.99810e-01,3.42206e-01,9.99999e-01
7.803910261e-01,3.33206e-01,9.54038e-01,9.99183e-01,3.49531e-01,9.99999e-01
7.842929812e-01,2.85691e-01,8.02688e-01,9.97153e-01,3.56864e-01,9.99999e-01
7.882144461e-01,2.86724e-01,7.91673e-01,9.94109e-01,3.64202e-01,9.99999e-01
7.921555184e-01,3.22636e-01,8.71104e-01,9.96755e-01,3.71541e-01,9.99999e-01
7.961162960e-01,3.43270e-01,9.11123e-01,9.94313e-01,3.78879e-01,9.99999e-01
8.000968774e-01,3.64815e-01,9.50836e-01,9.93408e-01,3.86212e-01,9.99999e-01
8.040973618e-01,3.80846e-01,9.74145e-01,9.93412e-01,3.93539e-01,9.99999e-01
8.081178486e-01,3.90256e-01,9.88080e-01,9.85273e-01,4.00855e-01,9.99999e-01
8.121584379e-01,3.82242e-01,9.96283e-01,9.39946e-01,4.08159e-01,9.99998e-01
8.162192301e-01,3.85503e-01,9.99177e-01,9.28663e-01,4.15448e-01,9.99998e-01
8.203003262e-01,4.07631e-01,9.99986e-01,9.64318e-01,4.22719e-01,9.99998e-01
8.244018279e-01,4.08353e-01,9.99999e-01,9.49725e-01,4.29970e-01,9.99998e-01
8.285238370e-01,4.18384e-01,9.99999e-01,9.56966e-01,4.37198e-01,9.99998e-01
8.326664562e-01,4.25025e-01,9.99999e-01,9.56396e-01,4.44402e-01,9.99998e-01
8.368297885e-01,4.37403e-01,9.99999e-01,9.68609e-01,4.51578e-01,9.99999e-01
8.410139374e-01,4.50114e-01,9.99999e-01,9.81226e-01,4.58726e-01,9.99999e-01
8.452190071e-01,4.61531e-01,9.99999e-01,9.90745e-01,4.65842e-01,9.99999e-01
8.494451021e-01,4.70387e-01,9.99999e-01,9.94634e-01,4.72924e-01,9.99999e-01
8.536923276e-01,4.78444e-01,9.99999e-01,9.96817e-01,4.79971e-01,9.99999e-01
8.579607893e-01,4.86028e-01,9.99999e-01,9.98043e-01,4.86981e-01,9.99999e-01
8.622505932e-01,4.93336e-01,9.99999e-01,9.98754e-01,4.93951e-01,9.99999e-01
8.665618462e-01,4.55264e-01,9.09591e-01,9.99231e-01,5.00881e-01,9.99999e-01
8.708946554e-01,2.92487e-01,5.76505e-01,9.99121e-01,5.07768e-01,9.99999e-01
8.752491287e-01,3.28073e-01,6.38236e-01,9.98823e-01,5.14612e-01,9.99999e-01
8.796253743e-01,4.05918e-01,7.79716e-01,9.98375e-01,5.21409e-01,9.99999e-01
8.840235012e-01,4.63136e-01,8.78483e-01,9.98142e-01,5.28159e-01,9.99999e-01
8.884436187e-01,5.04784e-01,9.50027e-01,9.93317e-01,5.34861e-01,9.99999e-01
8.928858368e-01,4.94079e-01,9.79476e-01,9.31282e-01,5.41513e-01,9.99998e-01
8.973502660e-01,4.80532e-01,9.94955e-01,8.81016e-01,5.48114e-01,9.99997e-01
9.018370173e-01,5.19493e-01,9.99442e-01,9.37093e-01,5.54662e-01,9.99997e-01
9.063462024e-01,5.23256e-01,9.86138e-01,9.44969e-01,5.61158e-01,9.99997e-01
9.108779334e-01,5.03076e-01,9.67861e-01,9.15228e-01,5.67598e-01,9.99997e-01
9.154323231e-01,5.15068e-01,9.92315e-01,9.04092e-01,5.73983e-01,9.99997e-01
9.200094847e-01,4.84632e-01,8.98634e-01,9.23991e-01,5.80312e-01,9.99996e-01
9.246095321e-01,4.44736e-01,8.52524e-01,8.85910e-01,5.86584e-01,9.99993e-01
9.292325798e-01,2.38215e-01,8.83672e-01,4.47087e-01,5.92797e-01,9.99987e-01
9.338787427e-01,1.90392e-01,8.86339e-01,3.52715e-01,5.98951e-01,9.99984e-01
9.385481364e-01,3.65573e-01,9.15008e-01,6.55689e-01,6.05046e-01,9.99983e-01
9.432408771e-01,3.26589e-01,9.46904e-01,5.62144e-01,6.11081e-01,9.99981e-01
9.479570815e-01,2.72989e-01,9.72445e-01,4.54044e-01,6.17055e-01,9.99984e-01
9.526968669e-01,3.37081e-01,9.86606e-01,5.47575e-01,6.22968e-01,9.99988e-01
9.574603512e-01,3.56558e-01,9.94247e-01,5.70007e-01,6.28819e-01,9.99990e-01
9.622476530e-01,3.99705e-01,9.98201e-01,6.30888e-01,6.34607e-01,9.99993e-01
9.670588912e-01,4.90590e-01,9.99459e-01,7.66535e-01,6.40333e-01,9.99995e-01
9.718941857e-01,5.46597e-01,9.99960e-01,8.46161e-01,6.45996e-01,9.99997e-01
9.767536566e-01,5.67217e-01,9.99999e-01,8.70505e-01,6.51596e-01,9.99997e-01
9.816374249e-01,5.92792e-01,9.99999e-01,9.02090e-01,6.57132e-01,9.99998e-01
9.865456120e-01,6.21262e-01,9.99999e-01,9.37605e-01,6.62605e-01,9.99999e-01
9.914783401e-01,6.41937e-01,9.99999e-01,9.60964e-01,6.68013e-01,9.99999e-01
9.964357318e-01,6.58913e-01,9.99999e-01,9.78547e-01,6.73358e-01,9.99999e-01
1.001417910e+00,6.69875e-01,9.99999e-01,9.87085e-01,6.78639e-01,9.99999e-01
1.006425000e+00,6.78815e-01,9.99999e-01,9.92628e-01,6.83855e-01,9.99999e-01
1.011457125e+00,6.85846e-01,9.99999e-01,9.95411e-01,6.89008e-01,9.99999e-01
1.016514411e+00,6.91935e-01,9.99999e-01,9.96885e-01,6.94096e-01,9.99999e-01
1.021596983e+00,6.97338e-01,9.99930e-01,9.97519e-01,6.99120e-01,9.99999e-01
1.026704968e+00,6.98908e-01,9.94572e-01,9.98065e-01,7.04081e-01,9.99999e-01
1.031838492e+00,6.69096e-01,9.45031e-01,9.98591e-01,7.08977e-01,9.99999e-01
1.036997685e+00,7.73611e-02,1.08448e-01,9.99164e-01,7.13810e-01,9.99999e-01
1.042182673e+00,3.54656e-02,4.93968e-02,9.99006e-01,7.18579e-01,9.99999e-01
1.047393587e+00,5.34051e-02,7.39215e-02,9.98680e-01,7.23285e-01,9.99999e-01
1.052630555e+00,3.81604e-04,5.24895e-04,9.98191e-01,7.27928e-01,9.99999e-01
1.057893707e+00,1.15489e-03,1.57955e-03,9.96985e-01,7.32508e-01,9.99999e-01
1.063183176e+00,6.08450e-03,8.28281e-03,9.95039e-01,7.37026e-01,9.99999e-01
1.068499092e+00,2.42385e-02,3.29055e-02,9.91698e-01,7.41482e-01,9.99999e-01
1.073841587e+00,8.45247e-02,1.14222e-01,9.90304e-01,7.45875e-01,9.99999e-01
1.079210795e+00,1.87830e-01,2.53132e-01,9.87562e-01,7.50208e-01,9.99999e-01
1.084606849e+00,3.45623e-01,4.66268e-01,9.81253e-01,7.54479e-01,9.99998e-01
1.090029883e+00,4.97071e-01,6.72440e-01,9.73281e-01,7.58689e-01,9.99998e-01
1.095480033e+00,5.83139e-01,8.22096e-01,9.28778e-01,7.62839e-01,9.99997e-01
1.100957433e+00,5.79419e-01,9.09846e-01,8.29191e-01,7.66929e-01,9.99996e-01
1.106462220e+00,4.63892e-01,9.61640e-01,6.24485e-01,7.70959e-01,9.99992e-01
1.111994531e+00,2.85772e-01,9.85603e-01,3.73630e-01,7.74930e-01,9.99985e-01
1.117554504e+00,1.60347e-01,9.96456e-01,2.06432e-01,7.78843e-01,9.99979e-01
1.123142276e+00,2.51993e-01,9.99765e-01,3.21988e-01,7.82698e-01,9.99976e-01
1.128757988e+00,3.74244e-01,9.99999e-01,4.75849e-01,7.86495e-01,9.99973e-01
1.134401778e+00,1.88717e-01,9.99999e-01,2.38817e-01,7.90235e-01,9.99970e-01
1.140073787e+00,5.06240e-01,9.99999e-01,6.37662e-01,7.93918e-01,9.99976e-01
1.145774156e+00,3.17005e-01,9.99999e-01,3.97484e-01,7.97545e-01,9.99979e-01
1.151503026e+00,2.88774e-01,9.99999e-01,3.60469e-01,8.01117e-01,9.99982e-01
1.157260541e+00,3.36094e-01,9.99999e-01,4.17703e-01,8.04634e-01,9.99986e-01
1.163046844e+00,4.22389e-01,9.99999e-01,5.22701e-01,8.08096e-01,9.99991e-01
1.168862078e+00,5.14986e-01,9.99999e-01,6.34608e-01,8.11504e-01,9.99995e-01
1.174706389e+00,6.15401e-01,9.99999e-01,7.55225e-01,8.14859e-01,9.99997e-01
1.180579921e+00,6.89378e-01,9.99999e-01,8.42595e-01,8.18161e-01,9.99998e-01
1.186482820e+00,7.45571e-01,9.99991e-01,9.07677e-01,8.21411e-01,9.99998e-01
1.192415234e+00,7.64702e-01,9.80965e-01,9.45046e-01,8.24609e-01,9.99998e-01
1.198377311e+00,4.38507e-01,5.51228e-01,9.53541e-01,8.27756e-01,9.99998e-01
1.204369197e+00,1.82537e-15,2.25488e-15,9.55985e-01,8.30853e-01,9.99998e-01
1.210391043e+00,5.47764e-59,6.72766e-59,9.57845e-01,8.33899e-01,9.99998e-01
1.216442998e+00,3.32294e-51,4.06154e-51,9.63977e-01,8.36897e-01,9.99999e-01
1.222525213e+00,1.88829e-50,2.28163e-50,9.71851e-01,8.39845e-01,9.99999e-01
1.228637839e+00,4.61398e-39,5.54952e-39,9.80378e-01,8.42745e-01,9.99999e-01
1.234781029e+00,7.97735e-25,9.49403e-25,9.85383e-01,8.45598e-01,9.99999e-01
1.240954934e+00,1.11179e-16,1.31820e-16,9.90739e-01,8.48404e-01,9.99999e-01
1.247159708e+00,9.83927e-09,1.16093e-08,9.92778e-01,8.51164e-01,9.99999e-01
1.253395507e+00,8.61353e-06,1.01347e-05,9.93592e-01,8.53877e-01,9.99999e-01
1.259662485e+00,1.15917e-03,1.35966e-03,9.93922e-01,8.56546e-01,9.99999e-01
1.265960797e+00,1.92456e-02,2.25615e-02,9.90288e-01,8.59170e-01,9.99999e-01
1.272290601e+00,1.44473e-01,1.69737e-01,9.85768e-01,8.61749e-01,9.99999e-01
1.278652054e+00,1.39923e-01,1.65592e-01,9.70145e-01,8.64286e-01,9.99998e-01
1.285045314e+00,1.78899e-03,2.11333e-03,9.53454e-01,8.66779e-01,9.99998e-01
1.291470541e+00,1.50431e-07,1.83329e-07,9.08558e-01,8.69231e-01,9.99997e-01
1.297927893e+00,6.88471e-04,8.37624e-04,8.82396e-01,8.71640e-01,9.99996e-01
1.304417533e+00,3.75624e-02,4.93321e-02,8.51157e-01,8.74009e-01,9.99993e-01
1.310939621e+00,9.34752e-03,1.18813e-02,8.31973e-01,8.76336e-01,9.99989e-01
1.317494319e+00,1.11761e-20,1.42246e-20,8.18481e-01,8.78624e-01,9.99982e-01
1.324081790e+00,5.16593e-14,6.72963e-14,7.42353e-01,8.80873e-01,9.99971e-01
1.330702199e+00,1.73866e-08,3.25559e-08,3.43111e-01,8.83083e-01,9.99951e-01
1.337355710e+00,1.01891e-08,7.87695e-08,5.61922e-02,8.85254e-01,9.99908e-01
1.344042489e+00,1.50413e-09,2.81892e-08,2.22364e-03,8.87388e-01,9.99803e-01
1.350762701e+00,6.43684e-14,1.81247e-08,7.02654e-07,8.89484e-01,9.99686e-01
1.357516515e+00,1.29419e-13,1.42675e-05,1.21413e-09,8.91544e-01,9.99612e-01
1.364304097e+00,3.55064e-09,5.46990e-04,2.47277e-06,8.93568e-01,9.99584e-01
1.371125618e+00,7.40093e-06,2.06104e-02,1.96608e-04,8.95557e-01,9.99580e-01
1.377981246e+00,3.26445e-05,3.89967e-02,6.01826e-04,8.97510e-01,9.99549e-01
1.384871152e+00,1.51515e-06,1.51359e-01,7.87295e-06,8.99429e-01,9.99554e-01
1.391795508e+00,7.06845e-07,1.74425e-01,3.06768e-06,9.01314e-01,9.99618e-01
1.398754485e+00,1.13080e-05,3.38702e-01,3.28006e-05,9.03166e-01,9.99681e-01
1.405748258e+00,1.53620e-05,4.51400e-01,3.24867e-05,9.04985e-01,9.99713e-01
1.412776999e+00,1.89262e-05,6.04240e-01,3.03113e-05,9.06771e-01,9.99770e-01
1.419840884e+00,3.91107e-05,5.44592e-01,6.12384e-05,9.08526e-01,9.99828e-01
1.426940089e+00,1.89680e-04,3.76798e-02,5.58749e-04,9.10249e-01,9.99893e-01
1.434074789e+00,0.00000e+00,0.00000e+00,3.07223e-03,9.11941e-01,9.99933e-01
1.441245163e+00,0.00000e+00,0.00000e+00,9.97650e-03,9.13603e-01,9.99948e-01
1.448451389e+00,0.00000e+00,0.00000e+00,3.97049e-02,9.15235e-01,9.99956e-01
1.455693646e+00,0.00000e+00,0.00000e+00,1.11768e-01,9.16838e-01,9.99964e-01
1.462972114e+00,5.05262e-233,1.80771e-232,1.48144e-01,9.18411e-01,9.99969e-01
1.470286975e+00,1.49242e-97,5.85760e-97,1.08710e-01,9.19957e-01,9.99972e-01
