#,Wave/freq,Total,CO2,H2O,Rayleigh,CIA
4.000000000e-01,2.30492e-02,9.99999e-01,9.99992e-01,2.30494e-02,9.99999e-01
4.020000000e-01,2.48332e-02,9.99999e-01,9.99994e-01,2.48333e-02,9.99999e-01
4.040100000e-01,2.67138e-02,9.99999e-01,9.99997e-01,2.67139e-02,9.99999e-01
4.060300500e-01,2.86954e-02,9.99999e-01,9.99999e-01,2.86954e-02,9.99999e-01
4.080602003e-01,3.07804e-02,9.99999e-01,9.99999e-01,3.07804e-02,9.99999e-01
4.101005013e-01,3.29712e-02,9.99999e-01,9.99999e-01,3.29712e-02,9.99999e-01
4.121510038e-01,3.52700e-02,9.99999e-01,9.99999e-01,3.52700e-02,9.99999e-01
4.142117588e-01,3.76788e-02,9.99999e-01,9.99997e-01,3.76788e-02,9.99999e-01
4.162828176e-01,4.01994e-02,9.99999e-01,9.99990e-01,4.01997e-02,9.99999e-01
4.183642317e-01,4.28342e-02,9.99999e-01,9.99994e-01,4.28345e-02,9.99999e-01
4.204560528e-01,4.55845e-02,9.99999e-01,9.99996e-01,4.55847e-02,9.99999e-01
4.225583331e-01,4.84518e-02,9.99999e-01,9.99998e-01,4.84518e-02,9.99999e-01
4.246711247e-01,5.14373e-02,9.99999e-01,9.99998e-01,5.14374e-02,9.99999e-01
4.267944804e-01,5.45423e-02,9.99999e-01,9.99998e-01,5.45424e-02,9.99999e-01
4.289284528e-01,5.77679e-02,9.99999e-01,9.99998e-01,5.77679e-02,9.99999e-01
4.310730950e-01,6.11148e-02,9.99999e-01,9.99999e-01,6.11148e-02,9.99999e-01
4.332284605e-01,6.45837e-02,9.99999e-01,9.99999e-01,6.45837e-02,9.99999e-01
4.353946028e-01,6.81751e-02,9.99999e-01,9.99999e-01,6.81751e-02,9.99999e-01
4.375715758e-01,7.18893e-02,9.99999e-01,9.99998e-01,7.18894e-02,9.99999e-01
4.397594337e-01,7.57260e-02,9.99999e-01,9.99991e-01,7.57266e-02,9.99999e-01
4.419582309e-01,7.96835e-02,9.99999e-01,9.99959e-01,7.96868e-02,9.99999e-01
4.441680220e-01,8.37669e-02,9.99999e-01,9.99967e-01,8.37696e-02,9.99999e-01
4.463888621e-01,8.79719e-02,9.99999e-01,9.99966e-01,8.79748e-02,9.99999e-01
4.486208064e-01,9.22998e-02,9.99999e-01,9.99978e-01,9.23017e-02,9.99999e-01
4.508639105e-01,9.67487e-02,9.99999e-01,9.99989e-01,9.67497e-02,9.99999e-01
4.531182300e-01,1.01317e-01,9.99999e-01,9.99995e-01,1.01318e-01,9.99999e-01
4.553838212e-01,1.06005e-01,9.99999e-01,9.99996e-01,1.06005e-01,9.99999e-01
4.576607403e-01,1.10810e-01,9.99999e-01,9.99998e-01,1.10810e-01,9.99999e-01
4.599490440e-01,1.15731e-01,9.99999e-01,9.99998e-01,1.15731e-01,9.99999e-01
4.622487892e-01,1.20767e-01,9.99999e-01,9.99999e-01,1.20767e-01,9.99999e-01
4.645600332e-01,1.25916e-01,9.99999e-01,9.99998e-01,1.25916e-01,9.99999e-01
4.668828333e-01,1.31176e-01,9.99999e-01,9.99989e-01,1.31177e-01,9.99999e-01
4.692172475e-01,1.36544e-01,9.99999e-01,9.99978e-01,1.36547e-01,9.99999e-01
4.715633337e-01,1.42022e-01,9.99999e-01,9.99985e-01,1.42024e-01,9.99999e-01
4.739211504e-01,1.47605e-01,9.99999e-01,9.99986e-01,1.47607e-01,9.99999e-01
4.762907561e-01,1.53290e-01,9.99999e-01,9.99992e-01,1.53292e-01,9.99999e-01
4.786722099e-01,1.59076e-01,9.99999e-01,9.99996e-01,1.59077e-01,9.99999e-01
4.810655710e-01,1.64959e-01,9.99999e-01,9.99998e-01,1.64959e-01,9.99999e-01
4.834708988e-01,1.70935e-01,9.99999e-01,9.99991e-01,1.70937e-01,9.99999e-01
4.858882533e-01,1.77004e-01,9.99999e-01,9.99984e-01,1.77006e-01,9.99999e-01
4.883176946e-01,1.83163e-01,9.99999e-01,9.99987e-01,1.83165e-01,9.99999e-01
4.907592831e-01,1.89408e-01,9.99999e-01,9.99988e-01,1.89410e-01,9.99999e-01
4.932130795e-01,1.95737e-01,9.99999e-01,9.99991e-01,1.95739e-01,9.99999e-01
4.956791449e-01,2.02146e-01,9.99999e-01,9.99995e-01,2.02147e-01,9.99999e-01
4.981575406e-01,2.08628e-01,9.99999e-01,9.99978e-01,2.08633e-01,9.99999e-01
5.006483283e-01,2.15180e-01,9.99999e-01,9.99945e-01,2.15192e-01,9.99999e-01
5.031515699e-01,2.21761e-01,9.99999e-01,9.99725e-01,2.21822e-01,9.99999e-01
5.056673278e-01,2.28486e-01,9.99999e-01,9.99854e-01,2.28519e-01,9.99999e-01
5.081956644e-01,2.35237e-01,9.99999e-01,9.99816e-01,2.35280e-01,9.99999e-01
5.107366428e-01,2.42072e-01,9.99999e-01,9.99876e-01,2.42102e-01,9.99999e-01
5.132903260e-01,2.48963e-01,9.99999e-01,9.99928e-01,2.48981e-01,9.99999e-01
5.158567776e-01,2.55906e-01,9.99999e-01,9.99969e-01,2.55913e-01,9.99999e-01
5.184360615e-01,2.62893e-01,9.99999e-01,9.99987e-01,2.62896e-01,9.99999e-01
5.210282418e-01,2.69925e-01,9.99999e-01,9.99995e-01,2.69926e-01,9.99999e-01
5.236333830e-01,2.76995e-01,9.99999e-01,9.99981e-01,2.77000e-01,9.99999e-01
5.262515499e-01,2.84110e-01,9.99999e-01,9.99988e-01,2.84114e-01,9.99999e-01
5.288828077e-01,2.91261e-01,9.99999e-01,9.99989e-01,2.91264e-01,9.99999e-01
5.315272217e-01,2.98445e-01,9.99999e-01,9.99990e-01,2.98448e-01,9.99999e-01
5.341848578e-01,3.05660e-01,9.99999e-01,9.99993e-01,3.05662e-01,9.99999e-01
5.368557821e-01,3.12896e-01,9.99999e-01,9.99978e-01,3.12902e-01,9.99999e-01
5.395400610e-01,3.20142e-01,9.99999e-01,9.99924e-01,3.20166e-01,9.99999e-01
5.422377613e-01,3.27419e-01,9.99999e-01,9.99902e-01,3.27451e-01,9.99999e-01
5.449489501e-01,3.34722e-01,9.99999e-01,9.99909e-01,3.34752e-01,9.99999e-01
5.476736949e-01,3.42039e-01,9.99999e-01,9.99919e-01,3.42067e-01,9.99999e-01
5.504120634e-01,3.49372e-01,9.99999e-01,9.99941e-01,3.49392e-01,9.99999e-01
5.531641237e-01,3.56715e-01,9.99999e-01,9.99970e-01,3.56725e-01,9.99999e-01
5.559299443e-01,3.64058e-01,9.99999e-01,9.99985e-01,3.64063e-01,9.99999e-01
5.587095940e-01,3.71399e-01,9.99999e-01,9.99990e-01,3.71402e-01,9.99999e-01
5.615031420e-01,3.78736e-01,9.99999e-01,9.99989e-01,3.78740e-01,9.99999e-01
5.643106577e-01,3.86069e-01,9.99999e-01,9.99988e-01,3.86073e-01,9.99999e-01
5.671322110e-01,3.93347e-01,9.99999e-01,9.99864e-01,3.93400e-01,9.99999e-01
5.699678720e-01,4.00658e-01,9.99999e-01,9.99854e-01,4.00716e-01,9.99999e-01
5.728177114e-01,4.07959e-01,9.99999e-01,9.99849e-01,4.08020e-01,9.99999e-01
5.756818000e-01,4.15252e-01,9.99999e-01,9.99861e-01,4.15310e-01,9.99999e-01
5.785602090e-01,4.22530e-01,9.99999e-01,9.99879e-01,4.22581e-01,9.99999e-01
5.814530100e-01,4.29781e-01,9.99999e-01,9.99878e-01,4.29832e-01,9.99999e-01
5.843602750e-01,4.36999e-01,9.99999e-01,9.99856e-01,4.37061e-01,9.99999e-01
5.872820764e-01,4.43715e-01,9.99999e-01,9.98761e-01,4.44266e-01,9.99999e-01
5.902184868e-01,4.50763e-01,9.99999e-01,9.98494e-01,4.51443e-01,9.99999e-01
5.931695792e-01,4.58103e-01,9.99999e-01,9.98937e-01,4.58590e-01,9.99999e-01
5.961354271e-01,4.65164e-01,9.99999e-01,9.98834e-01,4.65707e-01,9.99999e-01
5.991161043e-01,4.72388e-01,9.99999e-01,9.99149e-01,4.72790e-01,9.99999e-01
6.021116848e-01,4.79606e-01,9.99999e-01,9.99516e-01,4.79838e-01,9.99999e-01
6.051222432e-01,4.86729e-01,9.99999e-01,9.99755e-01,4.86848e-01,9.99999e-01
6.081478544e-01,4.93768e-01,9.99999e-01,9.99894e-01,4.93820e-01,9.99999e-01
6.111885937e-01,5.00728e-01,9.99999e-01,9.99954e-01,5.00750e-01,9.99999e-01
6.142445367e-01,5.07628e-01,9.99999e-01,9.99979e-01,5.07638e-01,9.99999e-01
6.173157594e-01,5.14477e-01,9.99999e-01,9.99988e-01,5.14482e-01,9.99999e-01
6.204023382e-01,5.21276e-01,9.99999e-01,9.99990e-01,5.21280e-01,9.99999e-01
6.235043498e-01,5.28010e-01,9.99999e-01,9.99958e-01,5.28032e-01,9.99999e-01
6.266218716e-01,5.34619e-01,9.99999e-01,9.99783e-01,5.34734e-01,9.99999e-01
6.297549810e-01,5.41344e-01,9.99999e-01,9.99920e-01,5.41387e-01,9.99999e-01
6.329037559e-01,5.47903e-01,9.99999e-01,9.99842e-01,5.47989e-01,9.99999e-01
6.360682746e-01,5.54465e-01,9.99999e-01,9.99866e-01,5.54539e-01,9.99999e-01
6.392486160e-01,5.60938e-01,9.99999e-01,9.99826e-01,5.61035e-01,9.99999e-01
6.424448591e-01,5.67346e-01,9.99999e-01,9.99768e-01,5.67476e-01,9.99999e-01
6.456570834e-01,5.73248e-01,9.99999e-01,9.98927e-01,5.73863e-01,9.99999e-01
6.488853688e-01,5.79735e-01,9.99999e-01,9.99211e-01,5.80193e-01,9.99999e-01
6.521297956e-01,5.85994e-01,9.99999e-01,9.99195e-01,5.86465e-01,9.99999e-01
6.553904446e-01,5.92209e-01,9.99999e-01,9.99204e-01,5.92680e-01,9.99999e-01
6.586673968e-01,5.98425e-01,9.99999e-01,9.99314e-01,5.98835e-01,9.99999e-01
6.619607338e-01,6.04692e-01,9.99999e-01,9.99603e-01,6.04931e-01,9.99999e-01
6.652705375e-01,6.10827e-01,9.99999e-01,9.99770e-01,6.10967e-01,9.99999e-01
6.685968902e-01,6.16877e-01,9.99999e-01,9.99893e-01,6.16942e-01,9.99999e-01
6.719398746e-01,6.22825e-01,9.99999e-01,9.99950e-01,6.22856e-01,9.99999e-01
6.752995740e-01,6.28691e-01,9.99999e-01,9.99972e-01,6.28708e-01,9.99999e-01
6.786760719e-01,6.34474e-01,9.99999e-01,9.99961e-01,6.34498e-01,9.99999e-01
6.820694522e-01,6.40183e-01,9.99999e-01,9.99933e-01,6.40225e-01,9.99999e-01
6.854797995e-01,6.45834e-01,9.99999e-01,9.99914e-01,6.45889e-01,9.99999e-01
6.889071985e-01,6.51357e-01,9.99999e-01,9.99795e-01,6.51490e-01,9.99999e-01
6.923517345e-01,6.54822e-01,9.99999e-01,9.96642e-01,6.57028e-01,9.99999e-01
6.958134932e-01,6.61334e-01,9.99999e-01,9.98237e-01,6.62501e-01,9.99999e-01
6.992925606e-01,6.66803e-01,9.99999e-01,9.98340e-01,6.67911e-01,9.99999e-01
7.027890234e-01,6.71874e-01,9.99999e-01,9.97944e-01,6.73257e-01,9.99999e-01
7.063029686e-01,6.77368e-01,9.99999e-01,9.98273e-01,6.78539e-01,9.99999e-01
7.098344834e-01,6.82624e-01,9.99999e-01,9.98343e-01,6.83757e-01,9.99999e-01
7.133836558e-01,6.87396e-01,9.99999e-01,9.97801e-01,6.88911e-01,9.99999e-01
7.169505741e-01,6.81722e-01,9.99999e-01,9.82307e-01,6.94000e-01,9.99999e-01
7.205353270e-01,6.92912e-01,9.99999e-01,9.91254e-01,6.99025e-01,9.99999e-01
7.241380036e-01,6.96230e-01,9.99999e-01,9.88981e-01,7.03987e-01,9.99999e-01
7.277586936e-01,7.01830e-01,9.99999e-01,9.90047e-01,7.08885e-01,9.99999e-01
7.313974871e-01,7.06157e-01,9.99999e-01,9.89404e-01,7.13719e-01,9.99999e-01
7.350544745e-01,7.14330e-01,9.99999e-01,9.94209e-01,7.18489e-01,9.99999e-01
7.387297469e-01,7.20115e-01,9.99999e-01,9.95738e-01,7.23197e-01,9.99999e-01
7.424233956e-01,7.26322e-01,9.99999e-01,9.97912e-01,7.27841e-01,9.99999e-01
7.461355126e-01,7.31496e-01,9.99999e-01,9.98735e-01,7.32422e-01,9.99999e-01
7.498661902e-01,7.36507e-01,9.99999e-01,9.99410e-01,7.36941e-01,9.99999e-01
7.536155211e-01,7.41184e-01,9.99999e-01,9.99710e-01,7.41398e-01,9.99999e-01
7.573835987e-01,7.45682e-01,9.99999e-01,9.99850e-01,7.45793e-01,9.99999e-01
7.611705167e-01,7.50057e-01,9.99999e-01,9.99907e-01,7.50126e-01,9.99999e-01
7.649763693e-01,7.54355e-01,9.99999e-01,9.99941e-01,7.54398e-01,9.99999e-01
7.688012511e-01,7.58579e-01,9.99999e-01,9.99959e-01,7.58610e-01,9.99999e-01
7.726452574e-01,7.62735e-01,9.99999e-01,9.99966e-01,7.62761e-01,9.99999e-01
7.765084837e-01,7.66816e-01,9.99999e-01,9.99952e-01,7.66852e-01,9.99999e-01
7.803910261e-01,7.60753e-01,9.87055e-01,9.99797e-01,7.70883e-01,9.99999e-01
7.842929812e-01,7.31950e-01,9.45282e-01,9.99292e-01,7.74856e-01,9.99999e-01
7.882144461e-01,7.32098e-01,9.41424e-01,9.98537e-01,7.78770e-01,9.99999e-01
7.921555184e-01,7.55476e-01,9.66078e-01,9.99196e-01,7.82625e-01,9.99999e-01
7.961162960e-01,7.67392e-01,9.77176e-01,9.98586e-01,7.86423e-01,9.99999e-01
8.000968774e-01,7.79077e-01,9.87581e-01,9.98363e-01,7.90164e-01,9.99999e-01
8.040973618e-01,7.87433e-01,9.93542e-01,9.98363e-01,7.93849e-01,9.99999e-01
8.081178486e-01,7.92190e-01,9.97036e-01,9.96320e-01,7.97477e-01,9.99999e-01
8.121584379e-01,7.88062e-01,9.99080e-01,9.84686e-01,8.01050e-01,9.99999e-01
8.162192301e-01,7.89728e-01,9.99796e-01,9.81753e-01,8.04568e-01,9.99999e-01
8.203003262e-01,8.00657e-01,9.99996e-01,9.90876e-01,8.08031e-01,9.99999e-01
8.244018279e-01,8.00968e-01,9.99999e-01,9.87094e-01,8.11440e-01,9.99999e-01
8.285238370e-01,8.05934e-01,9.99999e-01,9.89123e-01,8.14796e-01,9.99999e-01
8.326664562e-01,8.09084e-01,9.99999e-01,9.88979e-01,8.18099e-01,9.99999e-01
8.368297885e-01,8.14884e-01,9.99999e-01,9.92128e-01,8.21350e-01,9.99999e-01
8.410139374e-01,8.20689e-01,9.99999e-01,9.95318e-01,8.24549e-01,9.99999e-01
8.452190071e-01,8.25795e-01,9.99999e-01,9.97702e-01,8.27697e-01,9.99999e-01
8.494451021e-01,8.29689e-01,9.99999e-01,9.98669e-01,8.30794e-01,9.99999e-01
8.536923276e-01,8.33185e-01,9.99999e-01,9.99211e-01,8.33842e-01,9.99999e-01
8.579607893e-01,8.36435e-01,9.99999e-01,9.99514e-01,8.36840e-01,9.99999e-01
8.622505932e-01,8.39531e-01,9.99999e-01,9.99691e-01,8.39790e-01,9.99999e-01
8.665618462e-01,8.12032e-01,9.63797e-01,9.99809e-01,8.42691e-01,9.99999e-01
8.708946554e-01,7.30864e-01,8.64555e-01,9.99781e-01,8.45545e-01,9.99999e-01
8.752491287e-01,7.55636e-01,8.90967e-01,9.99708e-01,8.48351e-01,9.99999e-01
8.796253743e-01,7.99162e-01,9.39336e-01,9.99596e-01,8.51112e-01,9.99999e-01
8.840235012e-01,8.26364e-01,9.68279e-01,9.99539e-01,8.53826e-01,9.99999e-01
8.884436187e-01,8.44285e-01,9.87386e-01,9.98328e-01,8.56496e-01,9.99999e-01
8.928858368e-01,8.39663e-01,9.94882e-01,9.82363e-01,8.59120e-01,9.99999e-01
8.973502660e-01,8.33806e-01,9.98751e-01,9.68828e-01,8.61701e-01,9.99999e-01
9.018370173e-01,8.50220e-01,9.99861e-01,9.83913e-01,8.64238e-01,9.99999e-01
9.063462024e-01,8.51590e-01,9.96496e-01,9.85943e-01,8.66732e-01,9.99998e-01
9.108779334e-01,8.43334e-01,9.91937e-01,9.78108e-01,8.69184e-01,9.99998e-01
9.154323231e-01,8.48353e-01,9.98095e-01,9.75175e-01,8.71595e-01,9.99998e-01
9.200094847e-01,8.33018e-01,9.71750e-01,9.80463e-01,8.73964e-01,9.99998e-01
9.246095321e-01,8.16709e-01,9.61085e-01,9.69466e-01,8.76293e-01,9.99998e-01
9.292325798e-01,6.90405e-01,9.69313e-01,8.09558e-01,8.78581e-01,9.99996e-01
9.338787427e-01,6.50108e-01,9.70320e-01,7.59569e-01,8.80831e-01,9.99995e-01
9.385481364e-01,7.73834e-01,9.78172e-01,8.95422e-01,8.83041e-01,9.99995e-01
9.432408771e-01,7.47651e-01,9.86589e-01,8.55818e-01,8.85213e-01,9.99995e-01
9.479570815e-01,7.08339e-01,9.93107e-01,8.03675e-01,8.87348e-01,9.99995e-01
9.526968669e-01,7.54429e-01,9.96667e-01,8.50927e-01,8.89445e-01,9.99996e-01
9.574603512e-01,7.70598e-01,9.98574e-01,8.65581e-01,8.91506e-01,9.99997e-01
9.622476530e-01,7.94602e-01,9.99554e-01,8.89671e-01,8.93530e-01,9.99998e-01
9.670588912e-01,8.37265e-01,9.99866e-01,9.35071e-01,8.95519e-01,9.99998e-01
9.718941857e-01,8.60857e-01,9.99990e-01,9.59209e-01,8.97474e-01,9.99998e-01
9.767536566e-01,8.68855e-01,9.99999e-01,9.66046e-01,8.99393e-01,9.99999e-01
9.816374249e-01,8.78511e-01,9.99999e-01,9.74738e-01,9.01279e-01,9.99999e-01
9.865456120e-01,8.88822e-01,9.99999e-01,9.84156e-01,9.03131e-01,9.99999e-01
9.914783401e-01,8.96072e-01,9.99999e-01,9.90188e-01,9.04951e-01,9.99999e-01
9.964357318e-01,9.01883e-01,9.99999e-01,9.94645e-01,9.06738e-01,9.99999e-01
1.001417910e+00,9.05575e-01,9.99999e-01,9.96788e-01,9.08493e-01,9.99999e-01
1.006425000e+00,9.08551e-01,9.99999e-01,9.98169e-01,9.10216e-01,9.99999e-01
1.011457125e+00,9.10873e-01,9.99999e-01,9.98862e-01,9.11909e-01,9.99999e-01
1.016514411e+00,9.12867e-01,9.99999e-01,9.99228e-01,9.13572e-01,9.99999e-01
1.021596983e+00,9.14626e-01,9.99981e-01,9.99385e-01,9.15204e-01,9.99999e-01
1.026704968e+00,9.15124e-01,9.98640e-01,9.99520e-01,9.16808e-01,9.99999e-01
1.031838492e+00,8.98781e-01,9.78991e-01,9.99651e-01,9.18382e-01,9.99999e-01
1.036997685e+00,3.27955e-01,3.56564e-01,9.99792e-01,9.19928e-01,9.99999e-01
1.042182673e+00,4.05906e-01,4.40613e-01,9.99753e-01,9.21445e-01,9.99999e-01
1.047393587e+00,3.62698e-01,3.93101e-01,9.99672e-01,9.22936e-01,9.99999e-01
1.052630555e+00,8.37706e-02,9.06549e-02,9.99551e-01,9.24399e-01,9.99999e-01
1.057893707e+00,1.43438e-01,1.55024e-01,9.99251e-01,9.25835e-01,9.99999e-01
1.063183176e+00,2.41995e-01,2.61255e-01,9.98768e-01,9.27246e-01,9.99999e-01
1.068499092e+00,3.82892e-01,4.13111e-01,9.97936e-01,9.28630e-01,9.99999e-01
1.073841587e+00,5.31051e-01,5.72311e-01,9.97586e-01,9.29989e-01,9.99999e-01
1.079210795e+00,6.53580e-01,7.03878e-01,9.96903e-01,9.31323e-01,9.99999e-01
1.084606849e+00,7.66666e-01,8.25841e-01,9.95317e-01,9.32633e-01,9.99999e-01
1.090029883e+00,8.40331e-01,9.05806e-01,9.93289e-01,9.33919e-01,9.99999e-01
1.095480033e+00,8.74571e-01,9.52455e-01,9.81799e-01,9.35181e-01,9.99999e-01
1.100957433e+00,8.72986e-01,9.76850e-01,9.54266e-01,9.36420e-01,9.99998e-01
1.106462220e+00,8.23728e-01,9.90362e-01,8.86949e-01,9.37635e-01,9.99997e-01
1.111994531e+00,7.25048e-01,9.96418e-01,7.74989e-01,9.38829e-01,9.99996e-01
1.117554504e+00,6.19686e-01,9.99122e-01,6.59776e-01,9.40000e-01,9.99994e-01
1.123142276e+00,6.87563e-01,9.99941e-01,7.30592e-01,9.41150e-01,9.99993e-01
1.128757988e+00,7.73900e-01,9.99999e-01,8.21312e-01,9.42278e-01,9.99993e-01
1.134401778e+00,5.79014e-01,9.99999e-01,6.13766e-01,9.43385e-01,9.99992e-01
1.140073787e+00,8.41619e-01,9.99999e-01,8.91105e-01,9.44472e-01,9.99993e-01
1.145774156e+00,7.40445e-01,9.99999e-01,7.83096e-01,9.45538e-01,9.99994e-01
1.151503026e+00,7.19196e-01,9.99999e-01,7.59783e-01,9.46585e-01,9.99995e-01
1.157260541e+00,7.57649e-01,9.99999e-01,7.99537e-01,9.47611e-01,9.99996e-01
1.163046844e+00,8.04450e-01,9.99999e-01,8.48023e-01,9.48619e-01,9.99997e-01
1.168862078e+00,8.47628e-01,9.99999e-01,8.92608e-01,9.49608e-01,9.99998e-01
1.174706389e+00,8.86253e-01,9.99999e-01,9.32329e-01,9.50578e-01,9.99998e-01
1.180579921e+00,9.11833e-01,9.99999e-01,9.58280e-01,9.51530e-01,9.99999e-01
1.186482820e+00,9.29852e-01,9.99997e-01,9.76260e-01,9.52465e-01,9.99999e-01
1.192415234e+00,9.35552e-01,9.95114e-01,9.86095e-01,9.53381e-01,9.99999e-01
1.198377311e+00,5.69455e-01,6.02725e-01,9.88276e-01,9.54281e-01,9.99999e-01
1.204369197e+00,1.63551e-05,1.72335e-05,9.88889e-01,9.55163e-01,9.99999e-01
1.210391043e+00,2.69188e-16,2.83241e-16,9.89377e-01,9.56029e-01,9.99999e-01
1.216442998e+00,2.39643e-14,2.51858e-14,9.90949e-01,9.56879e-01,9.99999e-01
1.222525213e+00,4.10996e-14,4.30794e-14,9.92953e-01,9.57712e-01,9.99999e-01
1.228637839e+00,8.36952e-11,8.76260e-11,9.95104e-01,9.58530e-01,9.99999e-01
1.234781029e+00,9.15396e-08,9.55852e-08,9.96360e-01,9.59332e-01,9.99999e-01
1.240954934e+00,2.71586e-05,2.83313e-05,9.97698e-01,9.60119e-01,9.99999e-01
1.247159708e+00,2.78690e-03,2.90429e-03,9.98207e-01,9.60891e-01,9.99999e-01
1.253395507e+00,4.03121e-02,4.19763e-02,9.98409e-01,9.61649e-01,9.99999e-01
1.259662485e+00,1.60450e-01,1.66946e-01,9.98490e-01,9.62392e-01,9.99999e-01
1.265960797e+00,3.40667e-01,3.54495e-01,9.97585e-01,9.63121e-01,9.99999e-01
1.272290601e+00,6.29849e-01,6.55878e-01,9.96214e-01,9.63836e-01,9.99999e-01
1.278652054e+00,5.67912e-01,5.92781e-01,9.92477e-01,9.64537e-01,9.99999e-01
1.285045314e+00,7.11376e-02,7.42644e-02,9.88202e-01,9.65225e-01,9.99999e-01
1.291470541e+00,1.39081e-02,1.46698e-02,9.76410e-01,9.65901e-01,9.99999e-01
1.297927893e+00,8.10930e-02,8.57129e-02,9.69269e-01,9.66563e-01,9.99998e-01
1.304417533e+00,4.33737e-01,4.66039e-01,9.60535e-01,9.67212e-01,9.99998e-01
1.310939621e+00,1.35795e-01,1.44545e-01,9.54993e-01,9.67849e-01,9.99996e-01
1.317494319e+00,5.23871e-06,5.59290e-06,9.51148e-01,9.68474e-01,9.99995e-01
1.324081790e+00,1.33866e-04,1.43932e-04,9.27559e-01,9.69087e-01,9.99992e-01
1.330702199e+00,8.23956e-03,1.04552e-02,7.16663e-01,9.69688e-01,9.99987e-01
1.337355710e+00,3.85405e-03,6.85922e-03,4.44137e-01,9.70278e-01,9.99976e-01
1.344042489e+00,7.82756e-04,2.90128e-03,1.02657e-01,9.70857e-01,9.99951e-01
1.350762701e+00,1.67222e-04,8.62399e-03,1.17770e-02,9.71424e-01,9.99922e-01
1.357516515e+00,2.08297e-04,4.26448e-02,3.08536e-03,9.71980e-01,9.99903e-01
1.364304097e+00,3.18360e-03,1.44266e-01,1.80405e-02,9.72526e-01,9.99896e-01
1.371125618e+00,2.85288e-02,3.57189e-01,7.06751e-02,9.73061e-01,9.99895e-01
1.377981246e+00,4.71508e-02,4.43184e-01,1.02874e-01,9.73586e-01,9.99888e-01
1.384871152e+00,9.71661e-03,6.22459e-01,1.50037e-02,9.74101e-01,9.99889e-01
1.391795508e+00,1.60623e-02,6.45586e-01,2.42084e-02,9.74606e-01,9.99905e-01
1.398754485e+00,2.82418e-02,7.64438e-01,3.71644e-02,9.75102e-01,9.99920e-01
1.405748258e+00,2.97896e-02,8.19922e-01,3.61900e-02,9.75587e-01,9.99928e-01
1.412776999e+00,3.62417e-02,8.82412e-01,4.14484e-02,9.76064e-01,9.99942e-01
1.419840884e+00,4.35851e-02,8.29999e-01,4.92267e-02,9.76531e-01,9.99957e-01
1.426940089e+00,2.52845e-02,1.22545e-01,9.80263e-02,9.76989e-01,9.99973e-01
1.434074789e+00,1.93745e-222,5.36607e-222,1.66939e-01,9.77438e-01,9.99983e-01
1.441245163e+00,0.00000e+00,0.00000e+00,2.73673e-01,9.77879e-01,9.99986e-01
1.448451389e+00,2.90126e-269,4.69625e-269,3.92417e-01,9.78311e-01,9.99988e-01
1.455693646e+00,6.64751e-121,9.11815e-121,5.52054e-01,9.78735e-01,9.99990e-01
1.462972114e+00,2.20133e-59,3.01840e-59,6.04227e-01,9.79151e-01,9.99992e-01
1.470286975e+00,7.74023e-26,1.08711e-25,5.53609e-01,9.79558e-01,9.99992e-01
