#,Wave/freq,Total,CO2,H2O,Rayleigh,CIA
4.000000000e-01,1.81355e-09,9.99999e-01,9.99960e-01,1.81362e-09,9.99999e-01
4.020000000e-01,2.70005e-09,9.99999e-01,9.99975e-01,2.70012e-09,9.99999e-01
4.040100000e-01,3.98685e-09,9.99999e-01,9.99989e-01,3.98689e-09,9.99999e-01
4.060300500e-01,5.84173e-09,9.99999e-01,9.99997e-01,5.84175e-09,9.99999e-01
4.080602003e-01,8.49520e-09,9.99999e-01,9.99998e-01,8.49521e-09,9.99999e-01
4.101005013e-01,1.22629e-08,9.99999e-01,9.99999e-01,1.22629e-08,9.99999e-01
4.121510038e-01,1.75737e-08,9.99999e-01,9.99998e-01,1.75737e-08,9.99999e-01
4.142117588e-01,2.50058e-08,9.99999e-01,9.99988e-01,2.50061e-08,9.99999e-01
4.162828176e-01,3.53331e-08,9.99999e-01,9.99950e-01,3.53348e-08,9.99999e-01
4.183642317e-01,4.95886e-08,9.99999e-01,9.99970e-01,4.95901e-08,9.99999e-01
4.204560528e-01,6.91307e-08,9.99999e-01,9.99981e-01,6.91319e-08,9.99999e-01
4.225583331e-01,9.57436e-08,9.99999e-01,9.99992e-01,9.57443e-08,9.99999e-01
4.246711247e-01,1.31750e-07,9.99999e-01,9.99994e-01,1.31751e-07,9.99999e-01
4.267944804e-01,1.80157e-07,9.99999e-01,9.99991e-01,1.80159e-07,9.99999e-01
4.289284528e-01,2.44833e-07,9.99999e-01,9.99993e-01,2.44835e-07,9.99999e-01
4.310730950e-01,3.30718e-07,9.99999e-01,9.99996e-01,3.30719e-07,9.99999e-01
4.332284605e-01,4.44084e-07,9.99999e-01,9.99998e-01,4.44084e-07,9.99999e-01
4.353946028e-01,5.92848e-07,9.99999e-01,9.99999e-01,5.92849e-07,9.99999e-01
4.375715758e-01,7.86940e-07,9.99999e-01,9.99994e-01,7.86944e-07,9.99999e-01
4.397594337e-01,1.03871e-06,9.99999e-01,9.99955e-01,1.03876e-06,9.99999e-01
4.419582309e-01,1.36335e-06,9.99999e-01,9.99777e-01,1.36365e-06,9.99999e-01
4.441680220e-01,1.78026e-06,9.99999e-01,9.99831e-01,1.78056e-06,9.99999e-01
4.463888621e-01,2.31231e-06,9.99999e-01,9.99822e-01,2.31272e-06,9.99999e-01
4.486208064e-01,2.98812e-06,9.99999e-01,9.99890e-01,2.98844e-06,9.99999e-01
4.508639105e-01,3.84190e-06,9.99999e-01,9.99948e-01,3.84210e-06,9.99999e-01
4.531182300e-01,4.91505e-06,9.99999e-01,9.99979e-01,4.91515e-06,9.99999e-01
4.553838212e-01,6.25729e-06,9.99999e-01,9.99985e-01,6.25737e-06,9.99999e-01
4.576607403e-01,7.92818e-06,9.99999e-01,9.99993e-01,7.92823e-06,9.99999e-01
4.599490440e-01,9.99835e-06,9.99999e-01,9.99995e-01,9.99839e-06,9.99999e-01
4.622487892e-01,1.25514e-05,9.99999e-01,9.99998e-01,1.25514e-05,9.99999e-01
4.645600332e-01,1.56858e-05,9.99999e-01,9.99996e-01,1.56858e-05,9.99999e-01
4.668828333e-01,1.95157e-05,9.99999e-01,9.99947e-01,1.95167e-05,9.99999e-01
4.692172475e-01,2.41761e-05,9.99999e-01,9.99888e-01,2.41787e-05,9.99999e-01
4.715633337e-01,2.98257e-05,9.99999e-01,9.99926e-01,2.98279e-05,9.99999e-01
4.739211504e-01,3.66420e-05,9.99999e-01,9.99930e-01,3.66446e-05,9.99999e-01
4.762907561e-01,4.48349e-05,9.99999e-01,9.99963e-01,4.48365e-05,9.99999e-01
4.786722099e-01,5.46407e-05,9.99999e-01,9.99984e-01,5.46415e-05,9.99999e-01
4.810655710e-01,6.63308e-05,9.99999e-01,9.99995e-01,6.63311e-05,9.99999e-01
4.834708988e-01,8.02102e-05,9.99999e-01,9.99955e-01,8.02137e-05,9.99999e-01
4.858882533e-01,9.66308e-05,9.99999e-01,9.99921e-01,9.66384e-05,9.99999e-01
4.883176946e-01,1.15991e-04,9.99999e-01,9.99933e-01,1.15999e-04,9.99999e-01
4.907592831e-01,1.38728e-04,9.99999e-01,9.99940e-01,1.38736e-04,9.99999e-01
4.932130795e-01,1.65338e-04,9.99999e-01,9.99957e-01,1.65345e-04,9.99999e-01
4.956791449e-01,1.96371e-04,9.99999e-01,9.99977e-01,1.96375e-04,9.99999e-01
4.981575406e-01,2.32412e-04,9.99999e-01,9.99887e-01,2.32438e-04,9.99999e-01
5.006483283e-01,2.74129e-04,9.99999e-01,9.99706e-01,2.74209e-04,9.99999e-01
5.031515699e-01,3.21959e-04,9.99999e-01,9.98530e-01,3.22433e-04,9.99999e-01
5.056673278e-01,3.77634e-04,9.99999e-01,9.99228e-01,3.77925e-04,9.99999e-01
5.081956644e-01,4.41152e-04,9.99999e-01,9.99027e-01,4.41581e-04,9.99999e-01
5.107366428e-01,5.14038e-04,9.99999e-01,9.99343e-01,5.14375e-04,9.99999e-01
5.132903260e-01,5.97142e-04,9.99999e-01,9.99625e-01,5.97366e-04,9.99999e-01
5.158567776e-01,6.91591e-04,9.99999e-01,9.99841e-01,6.91700e-04,9.99999e-01
5.184360615e-01,7.98564e-04,9.99999e-01,9.99936e-01,7.98614e-04,9.99999e-01
5.210282418e-01,9.19418e-04,9.99999e-01,9.99975e-01,9.19440e-04,9.99999e-01
5.236333830e-01,1.05550e-03,9.99999e-01,9.99904e-01,1.05560e-03,9.99999e-01
5.262515499e-01,1.20856e-03,9.99999e-01,9.99939e-01,1.20863e-03,9.99999e-01
5.288828077e-01,1.38007e-03,9.99999e-01,9.99944e-01,1.38015e-03,9.99999e-01
5.315272217e-01,1.57181e-03,9.99999e-01,9.99951e-01,1.57188e-03,9.99999e-01
5.341848578e-01,1.78560e-03,9.99999e-01,9.99967e-01,1.78566e-03,9.99999e-01
5.368557821e-01,2.02317e-03,9.99999e-01,9.99887e-01,2.02340e-03,9.99999e-01
5.395400610e-01,2.28621e-03,9.99999e-01,9.99591e-01,2.28714e-03,9.99999e-01
5.422377613e-01,2.57768e-03,9.99999e-01,9.99483e-01,2.57901e-03,9.99999e-01
5.449489501e-01,2.89983e-03,9.99999e-01,9.99514e-01,2.90124e-03,9.99999e-01
5.476736949e-01,3.25476e-03,9.99999e-01,9.99575e-01,3.25615e-03,9.99999e-01
5.504120634e-01,3.64502e-03,9.99999e-01,9.99691e-01,3.64615e-03,9.99999e-01
5.531641237e-01,4.07312e-03,9.99999e-01,9.99844e-01,4.07375e-03,9.99999e-01
5.559299443e-01,4.54120e-03,9.99999e-01,9.99924e-01,4.54153e-03,9.99999e-01
5.587095940e-01,5.05194e-03,9.99999e-01,9.99952e-01,5.05218e-03,9.99999e-01
5.615031420e-01,5.60813e-03,9.99999e-01,9.99946e-01,5.60842e-03,9.99999e-01
5.643106577e-01,6.21270e-03,9.99999e-01,9.99938e-01,6.21308e-03,9.99999e-01
5.671322110e-01,6.86391e-03,9.99999e-01,9.99256e-01,6.86901e-03,9.99999e-01
5.699678720e-01,7.57339e-03,9.99999e-01,9.99238e-01,7.57916e-03,9.99999e-01
5.728177114e-01,8.33977e-03,9.99999e-01,9.99194e-01,8.34649e-03,9.99999e-01
5.756818000e-01,9.16726e-03,9.99999e-01,9.99263e-01,9.17401e-03,9.99999e-01
5.785602090e-01,1.00583e-02,9.99999e-01,9.99359e-01,1.00648e-02,9.99999e-01
5.814530100e-01,1.10147e-02,9.99999e-01,9.99354e-01,1.10218e-02,9.99999e-01
5.843602750e-01,1.20389e-02,9.99999e-01,9.99222e-01,1.20482e-02,9.99999e-01
5.872820764e-01,1.30594e-02,9.99999e-01,9.93329e-01,1.31471e-02,9.99999e-01
5.902184868e-01,1.42072e-02,9.99999e-01,9.92020e-01,1.43215e-02,9.99999e-01
5.931695792e-01,1.54862e-02,9.99999e-01,9.94335e-01,1.55744e-02,9.99999e-01
5.961354271e-01,1.68043e-02,9.99999e-01,9.93809e-01,1.69089e-02,9.99999e-01
5.991161043e-01,1.82453e-02,9.99999e-01,9.95488e-01,1.83280e-02,9.99999e-01
6.021116848e-01,1.97839e-02,9.99999e-01,9.97442e-01,1.98346e-02,9.99999e-01
6.051222432e-01,2.14038e-02,9.99999e-01,9.98706e-01,2.14315e-02,9.99999e-01
6.081478544e-01,2.31087e-02,9.99999e-01,9.99440e-01,2.31216e-02,9.99999e-01
6.111885937e-01,2.49018e-02,9.99999e-01,9.99764e-01,2.49077e-02,9.99999e-01
6.142445367e-01,2.67895e-02,9.99999e-01,9.99894e-01,2.67923e-02,9.99999e-01
6.173157594e-01,2.87763e-02,9.99999e-01,9.99941e-01,2.87780e-02,9.99999e-01
6.204023382e-01,3.08657e-02,9.99999e-01,9.99949e-01,3.08672e-02,9.99999e-01
6.235043498e-01,3.30550e-02,9.99999e-01,9.99776e-01,3.30624e-02,9.99999e-01
6.266218716e-01,3.53247e-02,9.99999e-01,9.98844e-01,3.53656e-02,9.99999e-01
6.297549810e-01,3.77629e-02,9.99999e-01,9.99575e-01,3.77790e-02,9.99999e-01
6.329037559e-01,4.02708e-02,9.99999e-01,9.99165e-01,4.03044e-02,9.99999e-01
6.360682746e-01,4.29131e-02,9.99999e-01,9.99284e-01,4.29438e-02,9.99999e-01
6.392486160e-01,4.56565e-02,9.99999e-01,9.99076e-01,4.56987e-02,9.99999e-01
6.424448591e-01,4.85100e-02,9.99999e-01,9.98750e-01,4.85707e-02,9.99999e-01
6.456570834e-01,5.12624e-02,9.99999e-01,9.94208e-01,5.15610e-02,9.99999e-01
6.488853688e-01,5.44425e-02,9.99999e-01,9.95822e-01,5.46709e-02,9.99999e-01
6.521297956e-01,5.76549e-02,9.99999e-01,9.95742e-01,5.79014e-02,9.99999e-01
6.553904446e-01,6.09919e-02,9.99999e-01,9.95733e-01,6.12532e-02,9.99999e-01
6.586673968e-01,6.44920e-02,9.99999e-01,9.96367e-01,6.47271e-02,9.99999e-01
6.619607338e-01,6.81852e-02,9.99999e-01,9.97975e-01,6.83235e-02,9.99999e-01
6.652705375e-01,7.19552e-02,9.99999e-01,9.98784e-01,7.20427e-02,9.99999e-01
6.685968902e-01,7.58458e-02,9.99999e-01,9.99483e-01,7.58849e-02,9.99999e-01
6.719398746e-01,7.98292e-02,9.99999e-01,9.99738e-01,7.98501e-02,9.99999e-01
6.752995740e-01,8.39263e-02,9.99999e-01,9.99861e-01,8.39379e-02,9.99999e-01
6.786760719e-01,8.81297e-02,9.99999e-01,9.99792e-01,8.81480e-02,9.99999e-01
6.820694522e-01,9.24469e-02,9.99999e-01,9.99643e-01,9.24799e-02,9.99999e-01
6.854797995e-01,9.68886e-02,9.99999e-01,9.99544e-01,9.69327e-02,9.99999e-01
6.889071985e-01,1.01356e-01,9.99999e-01,9.98522e-01,1.01506e-01,9.99999e-01
6.923517345e-01,1.04281e-01,9.99999e-01,9.81953e-01,1.06198e-01,9.99999e-01
6.958134932e-01,1.09995e-01,9.99999e-01,9.90880e-01,1.11007e-01,9.99999e-01
6.992925606e-01,1.14899e-01,9.99999e-01,9.91081e-01,1.15933e-01,9.99999e-01
7.027890234e-01,1.19658e-01,9.99999e-01,9.89119e-01,1.20974e-01,9.99999e-01
7.063029686e-01,1.24972e-01,9.99999e-01,9.90832e-01,1.26128e-01,9.99999e-01
7.098344834e-01,1.30237e-01,9.99999e-01,9.91202e-01,1.31393e-01,9.99999e-01
7.133836558e-01,1.35139e-01,9.99999e-01,9.88093e-01,1.36767e-01,9.99999e-01
7.169505741e-01,1.29329e-01,9.99999e-01,9.09173e-01,1.42249e-01,9.99998e-01
7.205353270e-01,1.41264e-01,9.99999e-01,9.55553e-01,1.47835e-01,9.99998e-01
7.241380036e-01,1.44716e-01,9.99999e-01,9.42624e-01,1.53524e-01,9.99998e-01
7.277586936e-01,1.51054e-01,9.99999e-01,9.48158e-01,1.59313e-01,9.99998e-01
7.313974871e-01,1.56177e-01,9.99999e-01,9.45383e-01,1.65200e-01,9.99998e-01
7.350544745e-01,1.65995e-01,9.99999e-01,9.69704e-01,1.71181e-01,9.99999e-01
7.387297469e-01,1.73289e-01,9.99999e-01,9.77630e-01,1.77254e-01,9.99999e-01
7.424233956e-01,1.81404e-01,9.99999e-01,9.89026e-01,1.83417e-01,9.99999e-01
7.461355126e-01,1.88399e-01,9.99999e-01,9.93322e-01,1.89665e-01,9.99999e-01
7.498661902e-01,1.95389e-01,9.99999e-01,9.96898e-01,1.95997e-01,9.99999e-01
7.536155211e-01,2.02100e-01,9.99999e-01,9.98471e-01,2.02409e-01,9.99999e-01
7.573835987e-01,2.08733e-01,9.99999e-01,9.99213e-01,2.08897e-01,9.99999e-01
7.611705167e-01,2.15354e-01,9.99999e-01,9.99510e-01,2.15460e-01,9.99999e-01
7.649763693e-01,2.22024e-01,9.99999e-01,9.99692e-01,2.22092e-01,9.99999e-01
7.688012511e-01,2.28743e-01,9.99999e-01,9.99785e-01,2.28792e-01,9.99999e-01
7.726452574e-01,2.35514e-01,9.99999e-01,9.99823e-01,2.35556e-01,9.99999e-01
7.765084837e-01,2.42319e-01,9.99999e-01,9.99746e-01,2.42380e-01,9.99999e-01
7.803910261e-01,2.33333e-01,9.37066e-01,9.98902e-01,2.49261e-01,9.99999e-01
7.842929812e-01,1.92249e-01,7.53039e-01,9.96173e-01,2.56196e-01,9.99999e-01
7.882144461e-01,1.92676e-01,7.37440e-01,9.92222e-01,2.63181e-01,9.99999e-01
7.921555184e-01,2.24262e-01,8.33328e-01,9.95759e-01,2.70213e-01,9.99999e-01
7.961162960e-01,2.43748e-01,8.85666e-01,9.92397e-01,2.77288e-01,9.99999e-01
8.000968774e-01,2.63922e-01,9.36095e-01,9.91290e-01,2.84403e-01,9.99999e-01
8.040973618e-01,2.79344e-01,9.66522e-01,9.91271e-01,2.91555e-01,9.99999e-01
8.081178486e-01,2.88295e-01,9.84403e-01,9.80273e-01,2.98740e-01,9.99999e-01
8.121584379e-01,2.80345e-01,9.95228e-01,9.20605e-01,3.05955e-01,9.99998e-01
8.162192301e-01,2.84019e-01,9.98942e-01,9.07764e-01,3.13197e-01,9.99998e-01
8.203003262e-01,3.05119e-01,9.99985e-01,9.52133e-01,3.20462e-01,9.99998e-01
8.244018279e-01,3.06804e-01,9.99999e-01,9.36100e-01,3.27747e-01,9.99998e-01
8.285238370e-01,3.16059e-01,9.99999e-01,9.43322e-01,3.35048e-01,9.99998e-01
8.326664562e-01,3.22873e-01,9.99999e-01,9.43070e-01,3.42364e-01,9.99998e-01
8.368297885e-01,3.35367e-01,9.99999e-01,9.59040e-01,3.49690e-01,9.99999e-01
8.410139374e-01,3.48265e-01,9.99999e-01,9.75469e-01,3.57023e-01,9.99999e-01
8.452190071e-01,3.59958e-01,9.99999e-01,9.87917e-01,3.64361e-01,9.99999e-01
8.494451021e-01,3.69074e-01,9.99999e-01,9.92936e-01,3.71700e-01,9.99999e-01
8.536923276e-01,3.77459e-01,9.99999e-01,9.95836e-01,3.79037e-01,9.99999e-01
8.579607893e-01,3.85376e-01,9.99999e-01,9.97424e-01,3.86371e-01,9.99999e-01
8.622505932e-01,3.93055e-01,9.99999e-01,9.98368e-01,3.93697e-01,9.99999e-01
8.665618462e-01,3.55986e-01,8.88568e-01,9.98985e-01,4.01013e-01,9.99999e-01
8.708946554e-01,1.99828e-01,4.89931e-01,9.98834e-01,4.08317e-01,9.99999e-01
8.752491287e-01,2.32076e-01,5.59232e-01,9.98443e-01,4.15605e-01,9.99999e-01
8.796253743e-01,3.05501e-01,7.23919e-01,9.97835e-01,4.22876e-01,9.99999e-01
8.840235012e-01,3.62386e-01,8.44537e-01,9.97530e-01,4.30126e-01,9.99999e-01
8.884436187e-01,4.05534e-01,9.35696e-01,9.90794e-01,4.37354e-01,9.99999e-01
8.928858368e-01,3.93520e-01,9.73364e-01,9.09002e-01,4.44557e-01,9.99998e-01
8.973502660e-01,3.80128e-01,9.93511e-01,8.46771e-01,4.51733e-01,9.99997e-01
9.018370173e-01,4.21648e-01,9.99286e-01,9.19482e-01,4.58880e-01,9.99997e-01
9.063462024e-01,4.24335e-01,9.81082e-01,9.27118e-01,4.65995e-01,9.99996e-01
9.108779334e-01,4.03576e-01,9.58175e-01,8.89456e-01,4.73077e-01,9.99996e-01
9.154323231e-01,4.16414e-01,9.90176e-01,8.75568e-01,4.80123e-01,9.99996e-01
9.200094847e-01,3.85227e-01,8.68807e-01,9.01599e-01,4.87132e-01,9.99995e-01
9.246095321e-01,3.42541e-01,8.11485e-01,8.48742e-01,4.94102e-01,9.99992e-01
9.292325798e-01,1.52654e-01,8.48206e-01,3.49318e-01,5.01031e-01,9.99983e-01
9.338787427e-01,1.17182e-01,8.53941e-01,2.63418e-01,5.07917e-01,9.99979e-01
9.385481364e-01,2.69895e-01,8.89995e-01,5.82524e-01,5.14759e-01,9.99978e-01
9.432408771e-01,2.31835e-01,9.31201e-01,4.74233e-01,5.21555e-01,9.99976e-01
9.479570815e-01,1.84247e-01,9.63985e-01,3.60586e-01,5.28305e-01,9.99979e-01
9.526968669e-01,2.42667e-01,9.82529e-01,4.60525e-01,5.35005e-01,9.99984e-01
9.574603512e-01,2.59069e-01,9.92499e-01,4.81481e-01,5.41656e-01,9.99988e-01
9.622476530e-01,3.00969e-01,9.97659e-01,5.50109e-01,5.48256e-01,9.99991e-01
9.670588912e-01,3.91931e-01,9.99299e-01,7.06884e-01,5.54803e-01,9.99994e-01
9.718941857e-01,4.50520e-01,9.99951e-01,8.02675e-01,5.61297e-01,9.99996e-01
9.767536566e-01,4.72947e-01,9.99999e-01,8.33039e-01,5.67737e-01,9.99997e-01
9.816374249e-01,5.01535e-01,9.99999e-01,8.73571e-01,5.74121e-01,9.99998e-01
9.865456120e-01,5.33404e-01,9.99999e-01,9.18952e-01,5.80448e-01,9.99998e-01
9.914783401e-01,5.56809e-01,9.99999e-01,9.49022e-01,5.86718e-01,9.99999e-01
9.964357318e-01,5.76278e-01,9.99999e-01,9.71915e-01,5.92931e-01,9.99999e-01
1.001417910e+00,5.88951e-01,9.99999e-01,9.83085e-01,5.99084e-01,9.99999e-01
1.006425000e+00,5.99303e-01,9.99999e-01,9.90292e-01,6.05177e-01,9.99999e-01
1.011457125e+00,6.07535e-01,9.99999e-01,9.93985e-01,6.11211e-01,9.99999e-01
1.016514411e+00,6.14657e-01,9.99999e-01,9.95905e-01,6.17183e-01,9.99999e-01
1.021596983e+00,6.20986e-01,9.99880e-01,9.96733e-01,6.23095e-01,9.99999e-01
1.026704968e+00,6.22638e-01,9.92498e-01,9.97449e-01,6.28944e-01,9.99999e-01
1.031838492e+00,5.86203e-01,9.25174e-01,9.98150e-01,6.34732e-01,9.99999e-01
1.036997685e+00,5.14375e-02,8.03816e-02,9.98898e-01,6.40456e-01,9.99999e-01
1.042182673e+00,1.42103e-02,2.20173e-02,9.98679e-01,6.46118e-01,9.99999e-01
1.047393587e+00,2.49956e-02,3.84109e-02,9.98253e-01,6.51716e-01,9.99999e-01
1.052630555e+00,5.17951e-05,7.89322e-05,9.97600e-01,6.57251e-01,9.99999e-01
1.057893707e+00,1.84311e-04,2.78764e-04,9.95988e-01,6.62722e-01,9.99999e-01
1.063183176e+00,1.48992e-03,2.23933e-03,9.93415e-01,6.68130e-01,9.99999e-01
1.068499092e+00,7.82736e-03,1.17189e-02,9.89019e-01,6.73473e-01,9.99999e-01
1.073841587e+00,3.98466e-02,5.93049e-02,9.87130e-01,6.78752e-01,9.99999e-01
1.079210795e+00,1.13125e-01,1.67729e-01,9.83608e-01,6.83967e-01,9.99999e-01
1.084606849e+00,2.48879e-01,3.69577e-01,9.75235e-01,6.89118e-01,9.99998e-01
1.090029883e+00,3.98798e-01,5.94602e-01,9.64324e-01,6.94205e-01,9.99998e-01
1.095480033e+00,4.91411e-01,7.74077e-01,9.06084e-01,6.99228e-01,9.99997e-01
1.100957433e+00,4.86065e-01,8.83583e-01,7.79265e-01,7.04187e-01,9.99995e-01
1.106462220e+00,3.62137e-01,9.50181e-01,5.35700e-01,7.09082e-01,9.99990e-01
1.111994531e+00,1.94197e-01,9.81224e-01,2.76573e-01,7.13914e-01,9.99980e-01
1.117554504e+00,9.29346e-02,9.95417e-01,1.29732e-01,7.18682e-01,9.99973e-01
1.123142276e+00,1.72564e-01,9.99701e-01,2.38575e-01,7.23386e-01,9.99968e-01
1.128757988e+00,2.77802e-01,9.99999e-01,3.81594e-01,7.28028e-01,9.99965e-01
1.134401778e+00,1.35305e-01,9.99999e-01,1.84697e-01,7.32607e-01,9.99961e-01
1.140073787e+00,4.08236e-01,9.99999e-01,5.53840e-01,7.37123e-01,9.99968e-01
1.145774156e+00,2.25986e-01,9.99999e-01,3.04744e-01,7.41577e-01,9.99973e-01
1.151503026e+00,2.00376e-01,9.99999e-01,2.68618e-01,7.45970e-01,9.99977e-01
1.157260541e+00,2.40115e-01,9.99999e-01,3.20030e-01,7.50301e-01,9.99982e-01
1.163046844e+00,3.24221e-01,9.99999e-01,4.29680e-01,7.54570e-01,9.99988e-01
1.168862078e+00,4.18403e-01,9.99999e-01,5.51418e-01,7.58779e-01,9.99994e-01
1.174706389e+00,5.28035e-01,9.99999e-01,6.92118e-01,7.62928e-01,9.99996e-01
1.180579921e+00,6.12755e-01,9.99999e-01,7.98882e-01,7.67016e-01,9.99997e-01
1.186482820e+00,6.78800e-01,9.99980e-01,8.80378e-01,7.71046e-01,9.99998e-01
1.192415234e+00,7.00827e-01,9.73690e-01,9.28180e-01,7.75016e-01,9.99998e-01
1.198377311e+00,3.97956e-01,5.38405e-01,9.38991e-01,7.78927e-01,9.99998e-01
1.204369197e+00,1.01154e-19,1.33744e-19,9.42310e-01,7.82781e-01,9.99998e-01
1.210391043e+00,2.90742e-77,3.81501e-77,9.44737e-01,7.86576e-01,9.99998e-01
1.216442998e+00,5.66859e-67,7.39069e-67,9.52927e-01,7.90315e-01,9.99999e-01
1.222525213e+00,5.63536e-66,7.23653e-66,9.63093e-01,7.93997e-01,9.99999e-01
1.228637839e+00,5.03364e-51,6.42370e-51,9.74200e-01,7.97623e-01,9.99999e-01
1.234781029e+00,4.27242e-32,5.37750e-32,9.80812e-01,8.01194e-01,9.99999e-01
1.240954934e+00,1.96055e-21,2.45521e-21,9.87808e-01,8.04709e-01,9.99999e-01
1.247159708e+00,7.95091e-11,9.89381e-11,9.90505e-01,8.08170e-01,9.99999e-01
1.253395507e+00,2.96595e-07,3.67679e-07,9.91549e-01,8.11577e-01,9.99999e-01
1.259662485e+00,1.69418e-04,2.09150e-04,9.91946e-01,8.14931e-01,9.99999e-01
1.265960797e+00,6.89393e-03,8.50107e-03,9.87200e-01,8.18232e-01,9.99999e-01
1.272290601e+00,9.52013e-02,1.17925e-01,9.79873e-01,8.21480e-01,9.99999e-01
1.278652054e+00,7.93775e-02,9.90447e-02,9.60432e-01,8.24678e-01,9.99998e-01
1.285045314e+00,3.86681e-04,4.81264e-04,9.29360e-01,8.27823e-01,9.99998e-01
1.291470541e+00,1.40507e-09,1.82190e-09,8.80215e-01,8.30919e-01,9.99997e-01
1.297927893e+00,4.87614e-04,6.32513e-04,8.34311e-01,8.33965e-01,9.99995e-01
1.304417533e+00,1.38076e-02,1.96658e-02,8.08624e-01,8.36961e-01,9.99991e-01
1.310939621e+00,2.35169e-03,3.21351e-03,7.64508e-01,8.39908e-01,9.99985e-01
1.317494319e+00,4.33475e-27,5.95910e-27,7.68737e-01,8.42808e-01,9.99976e-01
1.324081790e+00,4.90248e-13,6.91380e-13,6.78845e-01,8.45659e-01,9.99958e-01
1.330702199e+00,7.45402e-11,1.64652e-10,2.56560e-01,8.48464e-01,9.99932e-01
1.337355710e+00,6.60627e-11,1.12815e-09,1.92615e-02,8.51223e-01,9.99878e-01
1.344042489e+00,1.13628e-14,8.68050e-12,9.11607e-05,8.53935e-01,9.99740e-01
1.350762701e+00,7.94767e-18,9.15429e-11,1.47432e-08,8.56603e-01,9.99585e-01
1.357516515e+00,2.38247e-17,7.25519e-07,3.09209e-12,8.59226e-01,9.99487e-01
1.364304097e+00,1.43275e-11,5.76626e-05,7.58658e-08,8.61805e-01,9.99450e-01
1.371125618e+00,3.41456e-07,6.73933e-03,2.51178e-05,8.64340e-01,9.99445e-01
1.377981246e+00,1.80212e-06,1.42638e-02,7.77216e-05,8.66833e-01,9.99404e-01
1.384871152e+00,5.98672e-08,8.41785e-02,5.27581e-07,8.69283e-01,9.99421e-01
1.391795508e+00,1.24914e-08,1.02134e-01,8.25230e-08,8.71692e-01,9.99509e-01
1.398754485e+00,5.63906e-07,2.40822e-01,2.27746e-06,8.74059e-01,9.99578e-01
1.405748258e+00,7.87180e-07,3.53387e-01,2.10571e-06,8.76386e-01,9.99622e-01
1.412776999e+00,1.18236e-06,5.17220e-01,2.16031e-06,8.78673e-01,9.99696e-01
1.419840884e+00,2.48247e-06,4.59281e-01,4.47843e-06,8.80921e-01,9.99773e-01
1.426940089e+00,3.33279e-05,2.42674e-02,1.02432e-04,8.83130e-01,9.99859e-01
1.434074789e+00,0.00000e+00,0.00000e+00,7.01253e-04,8.85301e-01,9.99912e-01
1.441245163e+00,0.00000e+00,0.00000e+00,2.77698e-03,8.87434e-01,9.99931e-01
1.448451389e+00,0.00000e+00,0.00000e+00,1.68706e-02,8.89529e-01,9.99943e-01
1.455693646e+00,0.00000e+00,0.00000e+00,6.22752e-02,8.91589e-01,9.99952e-01
1.462972114e+00,2.39100e-307,1.28967e-306,8.46406e-02,8.93612e-01,9.99959e-01
1.470286975e+00,3.01915e-128,1.84059e-127,5.75842e-02,8.95599e-01,9.99963e-01
