#,Wave/freq,Total,CO2,H2O,Rayleigh,CIA
4.000000000e-01,4.06751e-06,9.99999e-01,9.99975e-01,4.06761e-06,9.99999e-01
4.020000000e-01,5.19899e-06,9.99999e-01,9.99984e-01,5.19907e-06,9.99999e-01
4.040100000e-01,6.61145e-06,9.99999e-01,9.99993e-01,6.61149e-06,9.99999e-01
4.060300500e-01,8.36779e-06,9.99999e-01,9.99998e-01,8.36780e-06,9.99999e-01
4.080602003e-01,1.05415e-05,9.99999e-01,9.99999e-01,1.05415e-05,9.99999e-01
4.101005013e-01,1.32194e-05,9.99999e-01,9.99999e-01,1.32194e-05,9.99999e-01
4.121510038e-01,1.65037e-05,9.99999e-01,9.99998e-01,1.65037e-05,9.99999e-01
4.142117588e-01,2.05136e-05,9.99999e-01,9.99992e-01,2.05137e-05,9.99999e-01
4.162828176e-01,2.53881e-05,9.99999e-01,9.99969e-01,2.53889e-05,9.99999e-01
4.183642317e-01,3.12900e-05,9.99999e-01,9.99981e-01,3.12906e-05,9.99999e-01
4.204560528e-01,3.84048e-05,9.99999e-01,9.99988e-01,3.84052e-05,9.99999e-01
4.225583331e-01,4.69470e-05,9.99999e-01,9.99995e-01,4.69472e-05,9.99999e-01
4.246711247e-01,5.71616e-05,9.99999e-01,9.99996e-01,5.71618e-05,9.99999e-01
4.267944804e-01,6.93284e-05,9.99999e-01,9.99994e-01,6.93288e-05,9.99999e-01
4.289284528e-01,8.37653e-05,9.99999e-01,9.99995e-01,8.37656e-05,9.99999e-01
4.310730950e-01,1.00831e-04,9.99999e-01,9.99997e-01,1.00831e-04,9.99999e-01
4.332284605e-01,1.20930e-04,9.99999e-01,9.99999e-01,1.20930e-04,9.99999e-01
4.353946028e-01,1.44515e-04,9.99999e-01,9.99999e-01,1.44515e-04,9.99999e-01
4.375715758e-01,1.72093e-04,9.99999e-01,9.99996e-01,1.72094e-04,9.99999e-01
4.397594337e-01,2.04224e-04,9.99999e-01,9.99972e-01,2.04229e-04,9.99999e-01
4.419582309e-01,2.41515e-04,9.99999e-01,9.99863e-01,2.41547e-04,9.99999e-01
4.441680220e-01,2.84709e-04,9.99999e-01,9.99895e-01,2.84739e-04,9.99999e-01
4.463888621e-01,3.34528e-04,9.99999e-01,9.99890e-01,3.34565e-04,9.99999e-01
4.486208064e-01,3.91833e-04,9.99999e-01,9.99932e-01,3.91860e-04,9.99999e-01
4.508639105e-01,4.57521e-04,9.99999e-01,9.99967e-01,4.57535e-04,9.99999e-01
4.531182300e-01,5.32579e-04,9.99999e-01,9.99987e-01,5.32586e-04,9.99999e-01
4.553838212e-01,6.18084e-04,9.99999e-01,9.99991e-01,6.18090e-04,9.99999e-01
4.576607403e-01,7.15211e-04,9.99999e-01,9.99995e-01,7.15214e-04,9.99999e-01
4.599490440e-01,8.25216e-04,9.99999e-01,9.99996e-01,8.25218e-04,9.99999e-01
4.622487892e-01,9.49454e-04,9.99999e-01,9.99999e-01,9.49455e-04,9.99999e-01
4.645600332e-01,1.08937e-03,9.99999e-01,9.99997e-01,1.08937e-03,9.99999e-01
4.668828333e-01,1.24648e-03,9.99999e-01,9.99967e-01,1.24652e-03,9.99999e-01
4.692172475e-01,1.42245e-03,9.99999e-01,9.99931e-01,1.42255e-03,9.99999e-01
4.715633337e-01,1.61913e-03,9.99999e-01,9.99954e-01,1.61920e-03,9.99999e-01
4.739211504e-01,1.83825e-03,9.99999e-01,9.99956e-01,1.83833e-03,9.99999e-01
4.762907561e-01,2.08185e-03,9.99999e-01,9.99977e-01,2.08189e-03,9.99999e-01
4.786722099e-01,2.35191e-03,9.99999e-01,9.99990e-01,2.35194e-03,9.99999e-01
4.810655710e-01,2.65061e-03,9.99999e-01,9.99996e-01,2.65061e-03,9.99999e-01
4.834708988e-01,2.98009e-03,9.99999e-01,9.99972e-01,2.98017e-03,9.99999e-01
4.858882533e-01,3.34280e-03,9.99999e-01,9.99951e-01,3.34296e-03,9.99999e-01
4.883176946e-01,3.74127e-03,9.99999e-01,9.99958e-01,3.74142e-03,9.99999e-01
4.907592831e-01,4.17791e-03,9.99999e-01,9.99962e-01,4.17806e-03,9.99999e-01
4.932130795e-01,4.65538e-03,9.99999e-01,9.99973e-01,4.65550e-03,9.99999e-01
4.956791449e-01,5.17635e-03,9.99999e-01,9.99985e-01,5.17642e-03,9.99999e-01
4.981575406e-01,5.74319e-03,9.99999e-01,9.99930e-01,5.74359e-03,9.99999e-01
5.006483283e-01,6.35868e-03,9.99999e-01,9.99819e-01,6.35982e-03,9.99999e-01
5.031515699e-01,7.02165e-03,9.99999e-01,9.99094e-01,7.02801e-03,9.99999e-01
5.056673278e-01,7.74740e-03,9.99999e-01,9.99523e-01,7.75109e-03,9.99999e-01
5.081956644e-01,8.52692e-03,9.99999e-01,9.99399e-01,8.53204e-03,9.99999e-01
5.107366428e-01,9.37009e-03,9.99999e-01,9.99594e-01,9.37389e-03,9.99999e-01
5.132903260e-01,1.02773e-02,9.99999e-01,9.99768e-01,1.02797e-02,9.99999e-01
5.158567776e-01,1.12514e-02,9.99999e-01,9.99901e-01,1.12525e-02,9.99999e-01
5.184360615e-01,1.22949e-02,9.99999e-01,9.99960e-01,1.22953e-02,9.99999e-01
5.210282418e-01,1.34112e-02,9.99999e-01,9.99984e-01,1.34114e-02,9.99999e-01
5.236333830e-01,1.46027e-02,9.99999e-01,9.99940e-01,1.46036e-02,9.99999e-01
5.262515499e-01,1.58745e-02,9.99999e-01,9.99962e-01,1.58751e-02,9.99999e-01
5.288828077e-01,1.72283e-02,9.99999e-01,9.99965e-01,1.72289e-02,9.99999e-01
5.315272217e-01,1.86673e-02,9.99999e-01,9.99969e-01,1.86679e-02,9.99999e-01
5.341848578e-01,2.01947e-02,9.99999e-01,9.99980e-01,2.01951e-02,9.99999e-01
5.368557821e-01,2.18118e-02,9.99999e-01,9.99930e-01,2.18133e-02,9.99999e-01
5.395400610e-01,2.35194e-02,9.99999e-01,9.99749e-01,2.35253e-02,9.99999e-01
5.422377613e-01,2.53258e-02,9.99999e-01,9.99680e-01,2.53339e-02,9.99999e-01
5.449489501e-01,2.72334e-02,9.99999e-01,9.99701e-01,2.72416e-02,9.99999e-01
5.476736949e-01,2.92433e-02,9.99999e-01,9.99737e-01,2.92510e-02,9.99999e-01
5.504120634e-01,3.13585e-02,9.99999e-01,9.99808e-01,3.13645e-02,9.99999e-01
5.531641237e-01,3.35811e-02,9.99999e-01,9.99903e-01,3.35843e-02,9.99999e-01
5.559299443e-01,3.59111e-02,9.99999e-01,9.99953e-01,3.59128e-02,9.99999e-01
5.587095940e-01,3.83508e-02,9.99999e-01,9.99970e-01,3.83519e-02,9.99999e-01
5.615031420e-01,4.09022e-02,9.99999e-01,9.99967e-01,4.09035e-02,9.99999e-01
5.643106577e-01,4.35678e-02,9.99999e-01,9.99962e-01,4.35694e-02,9.99999e-01
5.671322110e-01,4.63302e-02,9.99999e-01,9.99546e-01,4.63512e-02,9.99999e-01
5.699678720e-01,4.92271e-02,9.99999e-01,9.99527e-01,4.92504e-02,9.99999e-01
5.728177114e-01,5.22423e-02,9.99999e-01,9.99504e-01,5.22682e-02,9.99999e-01
5.756818000e-01,5.53807e-02,9.99999e-01,9.99545e-01,5.54059e-02,9.99999e-01
5.785602090e-01,5.86411e-02,9.99999e-01,9.99604e-01,5.86643e-02,9.99999e-01
5.814530100e-01,6.20195e-02,9.99999e-01,9.99601e-01,6.20442e-02,9.99999e-01
5.843602750e-01,6.55151e-02,9.99999e-01,9.99523e-01,6.55463e-02,9.99999e-01
5.872820764e-01,6.88873e-02,9.99999e-01,9.95897e-01,6.91711e-02,9.99999e-01
5.902184868e-01,7.25588e-02,9.99999e-01,9.95064e-01,7.29187e-02,9.99999e-01
5.931695792e-01,7.65208e-02,9.99999e-01,9.96503e-01,7.67893e-02,9.99999e-01
5.961354271e-01,8.04737e-02,9.99999e-01,9.96173e-01,8.07828e-02,9.99999e-01
5.991161043e-01,8.46621e-02,9.99999e-01,9.97211e-01,8.48989e-02,9.99999e-01
6.021116848e-01,8.89962e-02,9.99999e-01,9.98418e-01,8.91371e-02,9.99999e-01
6.051222432e-01,9.34222e-02,9.99999e-01,9.99199e-01,9.34970e-02,9.99999e-01
6.081478544e-01,9.79438e-02,9.99999e-01,9.99654e-01,9.79776e-02,9.99999e-01
6.111885937e-01,1.02563e-01,9.99999e-01,9.99853e-01,1.02578e-01,9.99999e-01
6.142445367e-01,1.07290e-01,9.99999e-01,9.99934e-01,1.07297e-01,9.99999e-01
6.173157594e-01,1.12130e-01,9.99999e-01,9.99963e-01,1.12134e-01,9.99999e-01
6.204023382e-01,1.17083e-01,9.99999e-01,9.99968e-01,1.17087e-01,9.99999e-01
6.235043498e-01,1.22137e-01,9.99999e-01,9.99863e-01,1.22154e-01,9.99999e-01
6.266218716e-01,1.27243e-01,9.99999e-01,9.99287e-01,1.27333e-01,9.99999e-01
6.297549810e-01,1.32589e-01,9.99999e-01,9.99738e-01,1.32624e-01,9.99999e-01
6.329037559e-01,1.37952e-01,9.99999e-01,9.99484e-01,1.38023e-01,9.99999e-01
6.360682746e-01,1.43466e-01,9.99999e-01,9.99559e-01,1.43529e-01,9.99999e-01
6.392486160e-01,1.49055e-01,9.99999e-01,9.99430e-01,1.49140e-01,9.99999e-01
6.424448591e-01,1.54733e-01,9.99999e-01,9.99232e-01,1.54852e-01,9.99999e-01
6.456570834e-01,1.60092e-01,9.99999e-01,9.96442e-01,1.60664e-01,9.99999e-01
6.488853688e-01,1.66142e-01,9.99999e-01,9.97415e-01,1.66572e-01,9.99999e-01
6.521297956e-01,1.72120e-01,9.99999e-01,9.97365e-01,1.72575e-01,9.99999e-01
6.553904446e-01,1.78199e-01,9.99999e-01,9.97369e-01,1.78669e-01,9.99999e-01
6.586673968e-01,1.84436e-01,9.99999e-01,9.97753e-01,1.84852e-01,9.99999e-01
6.619607338e-01,1.90880e-01,9.99999e-01,9.98748e-01,1.91120e-01,9.99999e-01
6.652705375e-01,1.97322e-01,9.99999e-01,9.99248e-01,1.97470e-01,9.99999e-01
6.685968902e-01,2.03835e-01,9.99999e-01,9.99680e-01,2.03900e-01,9.99999e-01
6.719398746e-01,2.10372e-01,9.99999e-01,9.99838e-01,2.10406e-01,9.99999e-01
6.752995740e-01,2.16966e-01,9.99999e-01,9.99914e-01,2.16985e-01,9.99999e-01
6.786760719e-01,2.23605e-01,9.99999e-01,9.99871e-01,2.23633e-01,9.99999e-01
6.820694522e-01,2.30298e-01,9.99999e-01,9.99782e-01,2.30348e-01,9.99999e-01
6.854797995e-01,2.37059e-01,9.99999e-01,9.99719e-01,2.37126e-01,9.99999e-01
6.889071985e-01,2.43796e-01,9.99999e-01,9.99312e-01,2.43963e-01,9.99999e-01
6.923517345e-01,2.48076e-01,9.99999e-01,9.88912e-01,2.50857e-01,9.99999e-01
6.958134932e-01,2.56337e-01,9.99999e-01,9.94309e-01,2.57804e-01,9.99999e-01
6.992925606e-01,2.63347e-01,9.99999e-01,9.94511e-01,2.64800e-01,9.99999e-01
7.027890234e-01,2.70012e-01,9.99999e-01,9.93266e-01,2.71842e-01,9.99999e-01
7.063029686e-01,2.77346e-01,9.99999e-01,9.94332e-01,2.78927e-01,9.99999e-01
7.098344834e-01,2.84495e-01,9.99999e-01,9.94562e-01,2.86051e-01,9.99999e-01
7.133836558e-01,2.91068e-01,9.99999e-01,9.92691e-01,2.93211e-01,9.99999e-01
7.169505741e-01,2.83246e-01,9.99999e-01,9.42886e-01,3.00403e-01,9.99998e-01
7.205353270e-01,2.99017e-01,9.99999e-01,9.72021e-01,3.07624e-01,9.99998e-01
7.241380036e-01,3.03594e-01,9.99999e-01,9.64183e-01,3.14872e-01,9.99998e-01
7.277586936e-01,3.11719e-01,9.99999e-01,9.67646e-01,3.22142e-01,9.99998e-01
7.313974871e-01,3.18162e-01,9.99999e-01,9.65792e-01,3.29431e-01,9.99999e-01
7.350544745e-01,3.30388e-01,9.99999e-01,9.81150e-01,3.36736e-01,9.99999e-01
7.387297469e-01,3.39274e-01,9.99999e-01,9.86105e-01,3.44054e-01,9.99999e-01
7.424233956e-01,3.48989e-01,9.99999e-01,9.93190e-01,3.51382e-01,9.99999e-01
7.461355126e-01,3.57233e-01,9.99999e-01,9.95864e-01,3.58716e-01,9.99999e-01
7.498661902e-01,3.65351e-01,9.99999e-01,9.98076e-01,3.66055e-01,9.99999e-01
7.536155211e-01,3.73041e-01,9.99999e-01,9.99054e-01,3.73394e-01,9.99999e-01
7.573835987e-01,3.80545e-01,9.99999e-01,9.99513e-01,3.80731e-01,9.99999e-01
7.611705167e-01,3.87945e-01,9.99999e-01,9.99697e-01,3.88062e-01,9.99999e-01
7.649763693e-01,3.95312e-01,9.99999e-01,9.99809e-01,3.95387e-01,9.99999e-01
7.688012511e-01,4.02647e-01,9.99999e-01,9.99867e-01,4.02700e-01,9.99999e-01
7.726452574e-01,4.09956e-01,9.99999e-01,9.99890e-01,4.10000e-01,9.99999e-01
7.765084837e-01,4.17220e-01,9.99999e-01,9.99844e-01,4.17285e-01,9.99999e-01
7.803910261e-01,4.06988e-01,9.59250e-01,9.99326e-01,4.24551e-01,9.99999e-01
7.842929812e-01,3.60146e-01,8.35917e-01,9.97650e-01,4.31797e-01,9.99999e-01
7.882144461e-01,3.60428e-01,8.24763e-01,9.95195e-01,4.39019e-01,9.99999e-01
7.921555184e-01,3.97508e-01,8.93122e-01,9.97373e-01,4.46216e-01,9.99999e-01
7.961162960e-01,4.18549e-01,9.27456e-01,9.95321e-01,4.53386e-01,9.99999e-01
8.000968774e-01,4.39706e-01,9.59937e-01,9.94621e-01,4.60525e-01,9.99999e-01
8.040973618e-01,4.55402e-01,9.79106e-01,9.94613e-01,4.67633e-01,9.99999e-01
8.081178486e-01,4.64405e-01,9.90324e-01,9.87837e-01,4.74706e-01,9.99999e-01
8.121584379e-01,4.56456e-01,9.97024e-01,9.50301e-01,4.81744e-01,9.99998e-01
8.162192301e-01,4.59948e-01,9.99342e-01,9.41686e-01,4.88744e-01,9.99998e-01
8.203003262e-01,4.80909e-01,9.99990e-01,9.70159e-01,4.95705e-01,9.99998e-01
8.244018279e-01,4.82162e-01,9.99999e-01,9.59290e-01,5.02624e-01,9.99998e-01
8.285238370e-01,4.91480e-01,9.99999e-01,9.64632e-01,5.09500e-01,9.99998e-01
8.326664562e-01,4.97930e-01,9.99999e-01,9.64359e-01,5.16332e-01,9.99998e-01
8.368297885e-01,5.09753e-01,9.99999e-01,9.74451e-01,5.23118e-01,9.99999e-01
8.410139374e-01,5.21776e-01,9.99999e-01,9.84750e-01,5.29856e-01,9.99999e-01
8.452190071e-01,5.32523e-01,9.99999e-01,9.92502e-01,5.36545e-01,9.99999e-01
8.494451021e-01,5.40813e-01,9.99999e-01,9.95633e-01,5.43184e-01,9.99999e-01
8.536923276e-01,5.48355e-01,9.99999e-01,9.97422e-01,5.49772e-01,9.99999e-01
8.579607893e-01,5.55422e-01,9.99999e-01,9.98408e-01,5.56307e-01,9.99999e-01
8.622505932e-01,5.62221e-01,9.99999e-01,9.98990e-01,5.62789e-01,9.99999e-01
8.665618462e-01,5.20555e-01,9.15059e-01,9.99373e-01,5.69215e-01,9.99999e-01
8.708946554e-01,3.64857e-01,6.34324e-01,9.99281e-01,5.75586e-01,9.99999e-01
8.752491287e-01,4.02756e-01,6.92781e-01,9.99039e-01,5.81901e-01,9.99999e-01
8.796253743e-01,4.79909e-01,8.17003e-01,9.98667e-01,5.88158e-01,9.99999e-01
8.840235012e-01,5.34311e-01,9.00319e-01,9.98479e-01,5.94356e-01,9.99999e-01
8.884436187e-01,5.73029e-01,9.59583e-01,9.94387e-01,6.00496e-01,9.99999e-01
8.928858368e-01,5.62529e-01,9.83395e-01,9.42880e-01,6.06575e-01,9.99998e-01
8.973502660e-01,5.50274e-01,9.95960e-01,9.01823e-01,6.12595e-01,9.99998e-01
9.018370173e-01,5.86692e-01,9.99554e-01,9.48898e-01,6.18553e-01,9.99998e-01
9.063462024e-01,5.89270e-01,9.88352e-01,9.54371e-01,6.24450e-01,9.99997e-01
9.108779334e-01,5.71078e-01,9.73881e-01,9.30005e-01,6.30286e-01,9.99997e-01
9.154323231e-01,5.82284e-01,9.93857e-01,9.20973e-01,6.36058e-01,9.99997e-01
9.200094847e-01,5.51971e-01,9.13630e-01,9.37680e-01,6.41769e-01,9.99996e-01
9.246095321e-01,5.15038e-01,8.78462e-01,9.03110e-01,6.47416e-01,9.99994e-01
9.292325798e-01,3.05292e-01,9.02873e-01,5.11401e-01,6.52999e-01,9.99989e-01
9.338787427e-01,2.56199e-01,9.06531e-01,4.24167e-01,6.58520e-01,9.99986e-01
9.385481364e-01,4.39079e-01,9.30348e-01,7.07381e-01,6.63976e-01,9.99986e-01
9.432408771e-01,3.96689e-01,9.56831e-01,6.17629e-01,6.69369e-01,9.99985e-01
9.479570815e-01,3.40966e-01,9.77579e-01,5.16214e-01,6.74697e-01,9.99987e-01
9.526968669e-01,4.09631e-01,9.89146e-01,6.08382e-01,6.79962e-01,9.99990e-01
9.574603512e-01,4.30032e-01,9.95347e-01,6.30344e-01,6.85162e-01,9.99992e-01
9.622476530e-01,4.73445e-01,9.98548e-01,6.86786e-01,6.90298e-01,9.99994e-01
9.670588912e-01,5.59442e-01,9.99565e-01,8.04854e-01,6.95370e-01,9.99996e-01
9.718941857e-01,6.11148e-01,9.99969e-01,8.72621e-01,7.00378e-01,9.99997e-01
9.767536566e-01,6.29866e-01,9.99999e-01,8.93019e-01,7.05323e-01,9.99998e-01
9.816374249e-01,6.53163e-01,9.99999e-01,9.19685e-01,7.10203e-01,9.99998e-01
9.865456120e-01,6.78582e-01,9.99999e-01,9.49039e-01,7.15020e-01,9.99999e-01
9.914783401e-01,6.96865e-01,9.99999e-01,9.68172e-01,7.19773e-01,9.99999e-01
9.964357318e-01,7.11819e-01,9.99999e-01,9.82546e-01,7.24463e-01,9.99999e-01
1.001417910e+00,7.21440e-01,9.99999e-01,9.89506e-01,7.29090e-01,9.99999e-01
1.006425000e+00,7.29251e-01,9.99999e-01,9.93996e-01,7.33655e-01,9.99999e-01
1.011457125e+00,7.35409e-01,9.99999e-01,9.96277e-01,7.38157e-01,9.99999e-01
1.016514411e+00,7.40717e-01,9.99999e-01,9.97468e-01,7.42597e-01,9.99999e-01
1.021596983e+00,7.45417e-01,9.99931e-01,9.97981e-01,7.46975e-01,9.99999e-01
1.026704968e+00,7.46679e-01,9.95425e-01,9.98425e-01,7.51292e-01,9.99999e-01
1.031838492e+00,7.14916e-01,9.47266e-01,9.98856e-01,7.55547e-01,9.99999e-01
1.036997685e+00,9.71167e-02,1.27897e-01,9.99319e-01,7.59742e-01,9.99999e-01
1.042182673e+00,6.29984e-02,8.25303e-02,9.99186e-01,7.63877e-01,9.99999e-01
1.047393587e+00,8.11226e-02,1.05735e-01,9.98923e-01,7.67952e-01,9.99999e-01
1.052630555e+00,1.26037e-03,1.63440e-03,9.98521e-01,7.71967e-01,9.99999e-01
1.057893707e+00,3.56312e-03,4.59947e-03,9.97529e-01,7.75924e-01,9.99999e-01
1.063183176e+00,1.44180e-02,1.85409e-02,9.95940e-01,7.79822e-01,9.99999e-01
1.068499092e+00,4.68813e-02,6.01572e-02,9.93216e-01,7.83662e-01,9.99999e-01
1.073841587e+00,1.32460e-01,1.69341e-01,9.92053e-01,7.87444e-01,9.99999e-01
1.079210795e+00,2.54537e-01,3.24677e-01,9.89852e-01,7.91170e-01,9.99999e-01
1.084606849e+00,4.21109e-01,5.37613e-01,9.84656e-01,7.94839e-01,9.99999e-01
1.090029883e+00,5.65826e-01,7.24116e-01,9.77935e-01,7.98452e-01,9.99998e-01
1.095480033e+00,6.44354e-01,8.53052e-01,9.41091e-01,8.02010e-01,9.99998e-01
1.100957433e+00,6.40128e-01,9.26227e-01,8.57163e-01,8.05513e-01,9.99996e-01
1.106462220e+00,5.31248e-01,9.68839e-01,6.76912e-01,8.08961e-01,9.99993e-01
1.111994531e+00,3.56489e-01,9.88333e-01,4.43580e-01,8.12356e-01,9.99988e-01
1.117554504e+00,2.20433e-01,9.97150e-01,2.70851e-01,8.15697e-01,9.99983e-01
1.123142276e+00,3.19204e-01,9.99813e-01,3.89792e-01,8.18986e-01,9.99980e-01
1.128757988e+00,4.44623e-01,9.99999e-01,5.40767e-01,8.22223e-01,9.99978e-01
1.134401778e+00,2.40715e-01,9.99999e-01,2.91638e-01,8.25408e-01,9.99976e-01
1.140073787e+00,5.71789e-01,9.99999e-01,6.90126e-01,8.28542e-01,9.99980e-01
1.145774156e+00,3.87799e-01,9.99999e-01,4.66321e-01,8.31626e-01,9.99983e-01
1.151503026e+00,3.57802e-01,9.99999e-01,4.28685e-01,8.34660e-01,9.99985e-01
1.157260541e+00,4.08958e-01,9.99999e-01,4.88228e-01,8.37645e-01,9.99989e-01
1.163046844e+00,4.94598e-01,9.99999e-01,5.88403e-01,8.40582e-01,9.99992e-01
1.168862078e+00,5.82490e-01,9.99999e-01,6.90589e-01,8.43470e-01,9.99996e-01
1.174706389e+00,6.73371e-01,9.99999e-01,7.95655e-01,8.46311e-01,9.99997e-01
1.180579921e+00,7.38726e-01,9.99999e-01,8.70006e-01,8.49105e-01,9.99998e-01
1.186482820e+00,7.87303e-01,9.99989e-01,9.24233e-01,8.51853e-01,9.99998e-01
1.192415234e+00,8.03045e-01,9.83761e-01,9.55025e-01,8.54555e-01,9.99998e-01
1.198377311e+00,4.61209e-01,5.55760e-01,9.61913e-01,8.57212e-01,9.99998e-01
1.204369197e+00,5.04287e-13,5.99069e-13,9.63957e-01,8.59825e-01,9.99998e-01
1.210391043e+00,1.66086e-48,1.96378e-48,9.65505e-01,8.62394e-01,9.99999e-01
1.216442998e+00,3.67598e-42,4.32933e-42,9.70625e-01,8.64919e-01,9.99999e-01
1.222525213e+00,1.51576e-41,1.76850e-41,9.77041e-01,8.67402e-01,9.99999e-01
1.228637839e+00,3.49141e-32,4.05862e-32,9.83995e-01,8.69843e-01,9.99999e-01
1.234781029e+00,1.18121e-20,1.36125e-20,9.88102e-01,8.72242e-01,9.99999e-01
1.240954934e+00,6.66490e-14,7.65769e-14,9.92456e-01,8.74600e-01,9.99999e-01
1.247159708e+00,1.59234e-07,1.82220e-07,9.94125e-01,8.76918e-01,9.99999e-01
1.253395507e+00,6.50985e-05,7.43299e-05,9.94777e-01,8.79196e-01,9.99999e-01
1.259662485e+00,3.74432e-03,4.26465e-03,9.95030e-01,8.81434e-01,9.99999e-01
1.265960797e+00,3.80911e-02,4.33717e-02,9.92081e-01,8.83634e-01,9.99999e-01
1.272290601e+00,2.27753e-01,2.60032e-01,9.87556e-01,8.85796e-01,9.99999e-01
1.278652054e+00,1.90602e-01,2.18821e-01,9.75415e-01,8.87921e-01,9.99999e-01
1.285045314e+00,2.74294e-03,3.14151e-03,9.55816e-01,8.90008e-01,9.99998e-01
1.291470541e+00,2.29163e-06,2.69918e-06,9.24277e-01,8.92059e-01,9.99998e-01
1.297927893e+00,4.27090e-03,5.04613e-03,8.94048e-01,8.94074e-01,9.99996e-01
1.304417533e+00,6.82061e-02,8.54717e-02,8.76565e-01,8.96053e-01,9.99994e-01
1.310939621e+00,1.13431e-02,1.37877e-02,8.46580e-01,8.97998e-01,9.99991e-01
1.317494319e+00,2.91525e-17,3.56190e-17,8.49303e-01,8.99908e-01,9.99985e-01
1.324081790e+00,9.44610e-12,1.17510e-11,7.83104e-01,9.01785e-01,9.99976e-01
1.330702199e+00,3.98130e-07,6.94177e-07,3.94744e-01,9.03628e-01,9.99960e-01
1.337355710e+00,2.20971e-07,1.19433e-06,8.92900e-02,9.05439e-01,9.99924e-01
1.344042489e+00,3.36455e-08,3.76438e-07,4.28604e-03,9.07217e-01,9.99839e-01
1.350762701e+00,1.15019e-11,4.17843e-07,6.47712e-06,9.08964e-01,9.99744e-01
1.357516515e+00,1.93982e-11,9.19413e-05,3.90306e-08,9.10679e-01,9.99683e-01
1.364304097e+00,9.24028e-08,2.11526e-03,2.00245e-05,9.12364e-01,9.99660e-01
1.371125618e+00,4.91739e-05,4.10748e-02,7.31576e-04,9.14018e-01,9.99658e-01
1.377981246e+00,1.76697e-04,7.07912e-02,1.94659e-03,9.15642e-01,9.99632e-01
1.384871152e+00,1.00992e-05,2.14336e-01,3.88322e-05,9.17238e-01,9.99643e-01
1.391795508e+00,7.65085e-06,2.41089e-01,2.57498e-05,9.18804e-01,9.99697e-01
1.398754485e+00,7.30638e-05,4.14604e-01,1.75309e-04,9.20342e-01,9.99739e-01
1.405748258e+00,8.38624e-05,5.23798e-01,1.54766e-04,9.21853e-01,9.99766e-01
1.412776999e+00,1.05402e-04,6.64460e-01,1.56143e-04,9.23335e-01,9.99812e-01
1.419840884e+00,1.98993e-04,5.91336e-01,2.87422e-04,9.24791e-01,9.99859e-01
1.426940089e+00,5.53320e-04,4.72881e-02,1.75412e-03,9.26221e-01,9.99913e-01
1.434074789e+00,0.00000e+00,0.00000e+00,7.70428e-03,9.27624e-01,9.99945e-01
1.441245163e+00,0.00000e+00,0.00000e+00,2.14993e-02,9.29001e-01,9.99957e-01
1.448451389e+00,0.00000e+00,0.00000e+00,6.71595e-02,9.30354e-01,9.99964e-01
1.455693646e+00,0.00000e+00,0.00000e+00,1.63175e-01,9.31681e-01,9.99970e-01
1.462972114e+00,2.15492e-190,6.09211e-190,2.06134e-01,9.32985e-01,9.99974e-01
1.470286975e+00,6.00923e-80,1.83207e-79,1.59505e-01,9.34264e-01,9.99977e-01
