#,Wave/freq,Total,CO2,H2O,Rayleigh,CIA
4.000000000e-01,2.71431e-04,9.99999e-01,9.99983e-01,2.71435e-04,9.99999e-01
4.020000000e-01,3.19284e-04,9.99999e-01,9.99989e-01,3.19287e-04,9.99999e-01
4.040100000e-01,3.74310e-04,9.99999e-01,9.99995e-01,3.74311e-04,9.99999e-01
4.060300500e-01,4.37441e-04,9.99999e-01,9.99998e-01,4.37441e-04,9.99999e-01
4.080602003e-01,5.09648e-04,9.99999e-01,9.99999e-01,5.09648e-04,9.99999e-01
4.101005013e-01,5.91984e-04,9.99999e-01,9.99999e-01,5.91984e-04,9.99999e-01
4.121510038e-01,6.85590e-04,9.99999e-01,9.99998e-01,6.85590e-04,9.99999e-01
4.142117588e-01,7.91695e-04,9.99999e-01,9.99995e-01,7.91699e-04,9.99999e-01
4.162828176e-01,9.11617e-04,9.99999e-01,9.99979e-01,9.11635e-04,9.99999e-01
4.183642317e-01,1.04681e-03,9.99999e-01,9.99987e-01,1.04682e-03,9.99999e-01
4.204560528e-01,1.19876e-03,9.99999e-01,9.99992e-01,1.19877e-03,9.99999e-01
4.225583331e-01,1.36911e-03,9.99999e-01,9.99996e-01,1.36911e-03,9.99999e-01
4.246711247e-01,1.55956e-03,9.99999e-01,9.99997e-01,1.55956e-03,9.99999e-01
4.267944804e-01,1.77193e-03,9.99999e-01,9.99996e-01,1.77193e-03,9.99999e-01
4.289284528e-01,2.00815e-03,9.99999e-01,9.99997e-01,2.00815e-03,9.99999e-01
4.310730950e-01,2.27025e-03,9.99999e-01,9.99998e-01,2.27025e-03,9.99999e-01
4.332284605e-01,2.56034e-03,9.99999e-01,9.99999e-01,2.56034e-03,9.99999e-01
4.353946028e-01,2.88065e-03,9.99999e-01,9.99999e-01,2.88065e-03,9.99999e-01
4.375715758e-01,3.23348e-03,9.99999e-01,9.99997e-01,3.23349e-03,9.99999e-01
4.397594337e-01,3.62121e-03,9.99999e-01,9.99981e-01,3.62127e-03,9.99999e-01
4.419582309e-01,4.04614e-03,9.99999e-01,9.99909e-01,4.04650e-03,9.99999e-01
4.441680220e-01,4.51145e-03,9.99999e-01,9.99930e-01,4.51176e-03,9.99999e-01
4.463888621e-01,5.01935e-03,9.99999e-01,9.99927e-01,5.01971e-03,9.99999e-01
4.486208064e-01,5.57284e-03,9.99999e-01,9.99954e-01,5.57309e-03,9.99999e-01
4.508639105e-01,6.17457e-03,9.99999e-01,9.99978e-01,6.17470e-03,9.99999e-01
4.531182300e-01,6.82737e-03,9.99999e-01,9.99991e-01,6.82742e-03,9.99999e-01
4.553838212e-01,7.53413e-03,9.99999e-01,9.99993e-01,7.53417e-03,9.99999e-01
4.576607403e-01,8.29790e-03,9.99999e-01,9.99996e-01,8.29792e-03,9.99999e-01
4.599490440e-01,9.12167e-03,9.99999e-01,9.99997e-01,9.12168e-03,9.99999e-01
4.622487892e-01,1.00085e-02,9.99999e-01,9.99999e-01,1.00085e-02,9.99999e-01
4.645600332e-01,1.09614e-02,9.99999e-01,9.99998e-01,1.09614e-02,9.99999e-01
4.668828333e-01,1.19832e-02,9.99999e-01,9.99978e-01,1.19835e-02,9.99999e-01
4.692172475e-01,1.30773e-02,9.99999e-01,9.99954e-01,1.30779e-02,9.99999e-01
4.715633337e-01,1.42471e-02,9.99999e-01,9.99969e-01,1.42475e-02,9.99999e-01
4.739211504e-01,1.54951e-02,9.99999e-01,9.99971e-01,1.54956e-02,9.99999e-01
4.762907561e-01,1.68248e-02,9.99999e-01,9.99984e-01,1.68250e-02,9.99999e-01
4.786722099e-01,1.82387e-02,9.99999e-01,9.99993e-01,1.82388e-02,9.99999e-01
4.810655710e-01,1.97400e-02,9.99999e-01,9.99997e-01,1.97400e-02,9.99999e-01
4.834708988e-01,2.13310e-02,9.99999e-01,9.99981e-01,2.13313e-02,9.99999e-01
4.858882533e-01,2.30150e-02,9.99999e-01,9.99967e-01,2.30157e-02,9.99999e-01
4.883176946e-01,2.47951e-02,9.99999e-01,9.99972e-01,2.47958e-02,9.99999e-01
4.907592831e-01,2.66737e-02,9.99999e-01,9.99975e-01,2.66743e-02,9.99999e-01
4.932130795e-01,2.86533e-02,9.99999e-01,9.99982e-01,2.86538e-02,9.99999e-01
4.956791449e-01,3.07363e-02,9.99999e-01,9.99990e-01,3.07366e-02,9.99999e-01
4.981575406e-01,3.29237e-02,9.99999e-01,9.99953e-01,3.29252e-02,9.99999e-01
5.006483283e-01,3.52176e-02,9.99999e-01,9.99880e-01,3.52218e-02,9.99999e-01
5.031515699e-01,3.76058e-02,9.99999e-01,9.99401e-01,3.76284e-02,9.99999e-01
5.056673278e-01,4.01343e-02,9.99999e-01,9.99684e-01,4.01469e-02,9.99999e-01
5.081956644e-01,4.27623e-02,9.99999e-01,9.99602e-01,4.27793e-02,9.99999e-01
5.107366428e-01,4.55149e-02,9.99999e-01,9.99731e-01,4.55271e-02,9.99999e-01
5.132903260e-01,4.83845e-02,9.99999e-01,9.99846e-01,4.83919e-02,9.99999e-01
5.158567776e-01,5.13717e-02,9.99999e-01,9.99934e-01,5.13750e-02,9.99999e-01
5.184360615e-01,5.44761e-02,9.99999e-01,9.99973e-01,5.44775e-02,9.99999e-01
5.210282418e-01,5.77000e-02,9.99999e-01,9.99989e-01,5.77006e-02,9.99999e-01
5.236333830e-01,6.10426e-02,9.99999e-01,9.99960e-01,6.10450e-02,9.99999e-01
5.262515499e-01,6.45098e-02,9.99999e-01,9.99975e-01,6.45114e-02,9.99999e-01
5.288828077e-01,6.80988e-02,9.99999e-01,9.99977e-01,6.81003e-02,9.99999e-01
5.315272217e-01,7.18106e-02,9.99999e-01,9.99979e-01,7.18120e-02,9.99999e-01
5.341848578e-01,7.56458e-02,9.99999e-01,9.99986e-01,7.56467e-02,9.99999e-01
5.368557821e-01,7.96007e-02,9.99999e-01,9.99954e-01,7.96044e-02,9.99999e-01
5.395400610e-01,8.36709e-02,9.99999e-01,9.99834e-01,8.36847e-02,9.99999e-01
5.422377613e-01,8.78688e-02,9.99999e-01,9.99788e-01,8.78874e-02,9.99999e-01
5.449489501e-01,9.21936e-02,9.99999e-01,9.99802e-01,9.22118e-02,9.99999e-01
5.476736949e-01,9.66405e-02,9.99999e-01,9.99825e-01,9.66573e-02,9.99999e-01
5.504120634e-01,1.01210e-01,9.99999e-01,9.99873e-01,1.01223e-01,9.99999e-01
5.531641237e-01,1.05901e-01,9.99999e-01,9.99936e-01,1.05908e-01,9.99999e-01
5.559299443e-01,1.10707e-01,9.99999e-01,9.99968e-01,1.10710e-01,9.99999e-01
5.587095940e-01,1.15627e-01,9.99999e-01,9.99980e-01,1.15629e-01,9.99999e-01
5.615031420e-01,1.20660e-01,9.99999e-01,9.99978e-01,1.20663e-01,9.99999e-01
5.643106577e-01,1.25807e-01,9.99999e-01,9.99975e-01,1.25810e-01,9.99999e-01
5.671322110e-01,1.31029e-01,9.99999e-01,9.99700e-01,1.31068e-01,9.99999e-01
5.699678720e-01,1.36393e-01,9.99999e-01,9.99686e-01,1.36436e-01,9.99999e-01
5.728177114e-01,1.41865e-01,9.99999e-01,9.99671e-01,1.41911e-01,9.99999e-01
5.756818000e-01,1.47447e-01,9.99999e-01,9.99699e-01,1.47491e-01,9.99999e-01
5.785602090e-01,1.53134e-01,9.99999e-01,9.99737e-01,1.53174e-01,9.99999e-01
5.814530100e-01,1.58915e-01,9.99999e-01,9.99736e-01,1.58957e-01,9.99999e-01
5.843602750e-01,1.64786e-01,9.99999e-01,9.99684e-01,1.64838e-01,9.99999e-01
5.872820764e-01,1.70350e-01,9.99999e-01,9.97286e-01,1.70813e-01,9.99999e-01
5.902184868e-01,1.76303e-01,9.99999e-01,9.96730e-01,1.76881e-01,9.99999e-01
5.931695792e-01,1.82614e-01,9.99999e-01,9.97685e-01,1.83038e-01,9.99999e-01
5.961354271e-01,1.88802e-01,9.99999e-01,9.97466e-01,1.89281e-01,9.99999e-01
5.991161043e-01,1.95247e-01,9.99999e-01,9.98152e-01,1.95608e-01,9.99999e-01
6.021116848e-01,2.01803e-01,9.99999e-01,9.98952e-01,2.02015e-01,9.99999e-01
6.051222432e-01,2.08389e-01,9.99999e-01,9.99469e-01,2.08499e-01,9.99999e-01
6.081478544e-01,2.15008e-01,9.99999e-01,9.99770e-01,2.15057e-01,9.99999e-01
6.111885937e-01,2.21664e-01,9.99999e-01,9.99902e-01,2.21685e-01,9.99999e-01
6.142445367e-01,2.28371e-01,9.99999e-01,9.99956e-01,2.28381e-01,9.99999e-01
6.173157594e-01,2.35135e-01,9.99999e-01,9.99975e-01,2.35141e-01,9.99999e-01
6.204023382e-01,2.41957e-01,9.99999e-01,9.99979e-01,2.41961e-01,9.99999e-01
6.235043498e-01,2.48817e-01,9.99999e-01,9.99909e-01,2.48839e-01,9.99999e-01
6.266218716e-01,2.55650e-01,9.99999e-01,9.99528e-01,2.55771e-01,9.99999e-01
6.297549810e-01,2.62707e-01,9.99999e-01,9.99826e-01,2.62753e-01,9.99999e-01
6.329037559e-01,2.69690e-01,9.99999e-01,9.99658e-01,2.69782e-01,9.99999e-01
6.360682746e-01,2.76774e-01,9.99999e-01,9.99708e-01,2.76854e-01,9.99999e-01
6.392486160e-01,2.83860e-01,9.99999e-01,9.99622e-01,2.83967e-01,9.99999e-01
6.424448591e-01,2.90970e-01,9.99999e-01,9.99492e-01,2.91117e-01,9.99999e-01
6.456570834e-01,2.97599e-01,9.99999e-01,9.97648e-01,2.98300e-01,9.99999e-01
6.488853688e-01,3.04991e-01,9.99999e-01,9.98288e-01,3.05514e-01,9.99999e-01
6.521297956e-01,3.12208e-01,9.99999e-01,9.98254e-01,3.12754e-01,9.99999e-01
6.553904446e-01,3.19460e-01,9.99999e-01,9.98259e-01,3.20017e-01,9.99999e-01
6.586673968e-01,3.26814e-01,9.99999e-01,9.98512e-01,3.27301e-01,9.99999e-01
6.619607338e-01,3.34325e-01,9.99999e-01,9.99170e-01,3.34602e-01,9.99999e-01
6.652705375e-01,3.41747e-01,9.99999e-01,9.99502e-01,3.41917e-01,9.99999e-01
6.685968902e-01,3.49168e-01,9.99999e-01,9.99788e-01,3.49242e-01,9.99999e-01
6.719398746e-01,3.56537e-01,9.99999e-01,9.99892e-01,3.56575e-01,9.99999e-01
6.752995740e-01,3.63891e-01,9.99999e-01,9.99941e-01,3.63912e-01,9.99999e-01
6.786760719e-01,3.71220e-01,9.99999e-01,9.99915e-01,3.71252e-01,9.99999e-01
6.820694522e-01,3.78535e-01,9.99999e-01,9.99855e-01,3.78589e-01,9.99999e-01
6.854797995e-01,3.85851e-01,9.99999e-01,9.99814e-01,3.85923e-01,9.99999e-01
6.889071985e-01,3.93072e-01,9.99999e-01,9.99546e-01,3.93250e-01,9.99999e-01
6.923517345e-01,3.97625e-01,9.99999e-01,9.92657e-01,4.00566e-01,9.99999e-01
6.958134932e-01,4.06329e-01,9.99999e-01,9.96219e-01,4.07871e-01,9.99999e-01
6.992925606e-01,4.13653e-01,9.99999e-01,9.96368e-01,4.15160e-01,9.99999e-01
7.027890234e-01,4.20547e-01,9.99999e-01,9.95537e-01,4.22432e-01,9.99999e-01
7.063029686e-01,4.28071e-01,9.99999e-01,9.96245e-01,4.29684e-01,9.99999e-01
7.098344834e-01,4.35340e-01,9.99999e-01,9.96398e-01,4.36914e-01,9.99999e-01
7.133836558e-01,4.41972e-01,9.99999e-01,9.95167e-01,4.44118e-01,9.99999e-01
7.169505741e-01,4.34045e-01,9.99999e-01,9.61775e-01,4.51296e-01,9.99999e-01
7.205353270e-01,4.49880e-01,9.99999e-01,9.81317e-01,4.58444e-01,9.99999e-01
7.241380036e-01,4.54450e-01,9.99999e-01,9.76132e-01,4.65561e-01,9.99998e-01
7.277586936e-01,4.62459e-01,9.99999e-01,9.78447e-01,4.72645e-01,9.99999e-01
7.313974871e-01,4.68753e-01,9.99999e-01,9.77191e-01,4.79694e-01,9.99999e-01
7.350544745e-01,4.80609e-01,9.99999e-01,9.87473e-01,4.86705e-01,9.99999e-01
7.387297469e-01,4.89124e-01,9.99999e-01,9.90776e-01,4.93677e-01,9.99999e-01
7.424233956e-01,4.98348e-01,9.99999e-01,9.95484e-01,5.00609e-01,9.99999e-01
7.461355126e-01,5.06107e-01,9.99999e-01,9.97259e-01,5.07497e-01,9.99999e-01
7.498661902e-01,5.13687e-01,9.99999e-01,9.98725e-01,5.14342e-01,9.99999e-01
7.536155211e-01,5.20815e-01,9.99999e-01,9.99373e-01,5.21142e-01,9.99999e-01
7.573835987e-01,5.27724e-01,9.99999e-01,9.99677e-01,5.27894e-01,9.99999e-01
7.611705167e-01,5.34491e-01,9.99999e-01,9.99799e-01,5.34598e-01,9.99999e-01
7.649763693e-01,5.41184e-01,9.99999e-01,9.99873e-01,5.41251e-01,9.99999e-01
7.688012511e-01,5.47806e-01,9.99999e-01,9.99912e-01,5.47854e-01,9.99999e-01
7.726452574e-01,5.54365e-01,9.99999e-01,9.99927e-01,5.54405e-01,9.99999e-01
7.765084837e-01,5.60845e-01,9.99999e-01,9.99896e-01,5.60902e-01,9.99999e-01
7.803910261e-01,5.51252e-01,9.72054e-01,9.99555e-01,5.67345e-01,9.99999e-01
7.842929812e-01,5.07999e-01,8.86751e-01,9.98447e-01,5.73732e-01,9.99999e-01
7.882144461e-01,5.08086e-01,8.78619e-01,9.96818e-01,5.80063e-01,9.99999e-01
7.921555184e-01,5.43031e-01,9.27725e-01,9.98259e-01,5.86337e-01,9.99999e-01
7.961162960e-01,5.61959e-01,9.51291e-01,9.96905e-01,5.92553e-01,9.99999e-01
8.000968774e-01,5.80637e-01,9.73272e-01,9.96438e-01,5.98710e-01,9.99999e-01
8.040973618e-01,5.94279e-01,9.86102e-01,9.96434e-01,6.04807e-01,9.99999e-01
8.081178486e-01,6.02041e-01,9.93582e-01,9.91944e-01,6.10844e-01,9.99999e-01
8.121584379e-01,5.95185e-01,9.98024e-01,9.66817e-01,6.16820e-01,9.99999e-01
8.162192301e-01,5.98139e-01,9.99563e-01,9.60915e-01,6.22736e-01,9.99998e-01
8.203003262e-01,6.16073e-01,9.99993e-01,9.80094e-01,6.28589e-01,9.99998e-01
8.244018279e-01,6.17012e-01,9.99999e-01,9.72623e-01,6.34380e-01,9.99998e-01
8.285238370e-01,6.25027e-01,9.99999e-01,9.76439e-01,6.40108e-01,9.99999e-01
8.326664562e-01,6.30425e-01,9.99999e-01,9.76230e-01,6.45774e-01,9.99999e-01
8.368297885e-01,6.40304e-01,9.99999e-01,9.83001e-01,6.51376e-01,9.99999e-01
8.410139374e-01,6.50263e-01,9.99999e-01,9.89873e-01,6.56915e-01,9.99999e-01
8.452190071e-01,6.59097e-01,9.99999e-01,9.95027e-01,6.62390e-01,9.99999e-01
8.494451021e-01,6.65870e-01,9.99999e-01,9.97107e-01,6.67801e-01,9.99999e-01
8.536923276e-01,6.71999e-01,9.99999e-01,9.98292e-01,6.73148e-01,9.99999e-01
8.579607893e-01,6.77717e-01,9.99999e-01,9.98946e-01,6.78432e-01,9.99999e-01
8.622505932e-01,6.83194e-01,9.99999e-01,9.99331e-01,6.83651e-01,9.99999e-01
8.665618462e-01,6.43250e-01,9.34236e-01,9.99585e-01,6.88806e-01,9.99999e-01
8.708946554e-01,5.09745e-01,7.34950e-01,9.99524e-01,6.93896e-01,9.99999e-01
8.752491287e-01,5.45973e-01,7.81647e-01,9.99364e-01,6.98923e-01,9.99999e-01
8.796253743e-01,6.14662e-01,8.73992e-01,9.99118e-01,7.03886e-01,9.99999e-01
8.840235012e-01,6.60408e-01,9.32673e-01,9.98993e-01,7.08785e-01,9.99999e-01
8.884436187e-01,6.91790e-01,9.72985e-01,9.96295e-01,7.13620e-01,9.99999e-01
8.928858368e-01,6.83372e-01,9.88964e-01,9.61793e-01,7.18392e-01,9.99998e-01
8.973502660e-01,6.73355e-01,9.97318e-01,9.33668e-01,7.23101e-01,9.99998e-01
9.018370173e-01,7.02586e-01,9.99704e-01,9.65705e-01,7.27746e-01,9.99998e-01
9.063462024e-01,7.04663e-01,9.92276e-01,9.69525e-01,7.32329e-01,9.99998e-01
9.108779334e-01,6.90124e-01,9.82614e-01,9.52997e-01,7.36849e-01,9.99998e-01
9.154323231e-01,6.99096e-01,9.95917e-01,9.46859e-01,7.41307e-01,9.99998e-01
9.200094847e-01,6.73257e-01,9.40554e-01,9.58174e-01,7.45703e-01,9.99997e-01
9.246095321e-01,6.43879e-01,9.17627e-01,9.34331e-01,7.50038e-01,9.99996e-01
9.292325798e-01,4.51009e-01,9.34343e-01,6.36071e-01,7.54311e-01,9.99993e-01
9.338787427e-01,3.99677e-01,9.36903e-01,5.59165e-01,7.58524e-01,9.99991e-01
9.385481364e-01,5.76646e-01,9.53264e-01,7.91367e-01,7.62676e-01,9.99991e-01
9.432408771e-01,5.36887e-01,9.71187e-01,7.20011e-01,7.66768e-01,9.99990e-01
9.479570815e-01,4.82497e-01,9.85097e-01,6.35001e-01,7.70801e-01,9.99991e-01
9.526968669e-01,5.48999e-01,9.92796e-01,7.13357e-01,7.74775e-01,9.99993e-01
9.574603512e-01,5.69754e-01,9.96915e-01,7.33828e-01,7.78690e-01,9.99994e-01
9.622476530e-01,6.08208e-01,9.99037e-01,7.77930e-01,7.82547e-01,9.99996e-01
9.670588912e-01,6.80185e-01,9.99711e-01,8.65234e-01,7.86346e-01,9.99997e-01
9.718941857e-01,7.21790e-01,9.99979e-01,9.13574e-01,7.90088e-01,9.99998e-01
9.767536566e-01,7.36395e-01,9.99999e-01,9.27714e-01,7.93774e-01,9.99998e-01
9.816374249e-01,7.54356e-01,9.99999e-01,9.46015e-01,7.97403e-01,9.99998e-01
9.865456120e-01,7.73698e-01,9.99999e-01,9.65942e-01,8.00977e-01,9.99999e-01
9.914783401e-01,7.87450e-01,9.99999e-01,9.78811e-01,8.04496e-01,9.99999e-01
9.964357318e-01,7.98596e-01,9.99999e-01,9.88409e-01,8.07960e-01,9.99999e-01
1.001417910e+00,8.05724e-01,9.99999e-01,9.93040e-01,8.11371e-01,9.99999e-01
1.006425000e+00,8.11488e-01,9.99999e-01,9.96023e-01,8.14728e-01,9.99999e-01
1.011457125e+00,8.16014e-01,9.99999e-01,9.97533e-01,8.18032e-01,9.99999e-01
1.016514411e+00,8.19907e-01,9.99999e-01,9.98323e-01,8.21284e-01,9.99999e-01
1.021596983e+00,8.23346e-01,9.99955e-01,9.98663e-01,8.24484e-01,9.99999e-01
1.026704968e+00,8.24275e-01,9.96980e-01,9.98957e-01,8.27633e-01,9.99999e-01
1.031838492e+00,7.97348e-01,9.60519e-01,9.99242e-01,8.30731e-01,9.99999e-01
1.036997685e+00,1.56188e-01,1.87394e-01,9.99549e-01,8.33780e-01,9.99999e-01
1.042182673e+00,1.51465e-01,1.81097e-01,9.99462e-01,8.36779e-01,9.99999e-01
1.047393587e+00,1.60909e-01,1.91741e-01,9.99287e-01,8.39730e-01,9.99999e-01
1.052630555e+00,8.59621e-03,1.02091e-02,9.99021e-01,8.42632e-01,9.99999e-01
1.057893707e+00,1.98474e-02,2.35018e-02,9.98365e-01,8.45487e-01,9.99999e-01
1.063183176e+00,5.40250e-02,6.38148e-02,9.97313e-01,8.48294e-01,9.99999e-01
1.068499092e+00,1.28163e-01,1.51181e-01,9.95507e-01,8.51056e-01,9.99999e-01
1.073841587e+00,2.58396e-01,3.04051e-01,9.94736e-01,8.53771e-01,9.99999e-01
1.079210795e+00,4.00698e-01,4.70804e-01,9.93272e-01,8.56441e-01,9.99999e-01
1.084606849e+00,5.62884e-01,6.61715e-01,9.89820e-01,8.59067e-01,9.99999e-01
1.090029883e+00,6.85500e-01,8.07131e-01,9.85355e-01,8.61648e-01,9.99998e-01
1.095480033e+00,7.47344e-01,8.99928e-01,9.60629e-01,8.64186e-01,9.99998e-01
1.100957433e+00,7.44078e-01,9.50487e-01,9.02881e-01,8.66682e-01,9.99997e-01
1.106462220e+00,6.56355e-01,9.79242e-01,7.70719e-01,8.69135e-01,9.99995e-01
1.111994531e+00,5.01035e-01,9.92256e-01,5.79107e-01,8.71546e-01,9.99991e-01
1.117554504e+00,3.60600e-01,9.98109e-01,4.13290e-01,8.73916e-01,9.99988e-01
1.123142276e+00,4.57749e-01,9.99876e-01,5.22439e-01,8.76245e-01,9.99986e-01
1.128757988e+00,5.79295e-01,9.99999e-01,6.59396e-01,8.78535e-01,9.99985e-01
1.134401778e+00,3.52970e-01,9.99999e-01,4.00750e-01,8.80785e-01,9.99984e-01
1.140073787e+00,6.88872e-01,9.99999e-01,7.80162e-01,8.82996e-01,9.99987e-01
1.145774156e+00,5.27691e-01,9.99999e-01,5.96152e-01,8.85169e-01,9.99988e-01
1.151503026e+00,4.98254e-01,9.99999e-01,5.61541e-01,8.87304e-01,9.99990e-01
1.157260541e+00,5.50201e-01,9.99999e-01,6.18623e-01,8.89402e-01,9.99992e-01
1.163046844e+00,6.25434e-01,9.99999e-01,7.01584e-01,8.91464e-01,9.99995e-01
1.168862078e+00,6.98687e-01,9.99999e-01,7.81977e-01,8.93489e-01,9.99997e-01
1.174706389e+00,7.69377e-01,9.99999e-01,8.59180e-01,8.95479e-01,9.99998e-01
1.180579921e+00,8.18249e-01,9.99999e-01,9.11765e-01,8.97434e-01,9.99998e-01
1.186482820e+00,8.53615e-01,9.99993e-01,9.49148e-01,8.99354e-01,9.99998e-01
1.192415234e+00,8.64845e-01,9.89199e-01,9.69999e-01,9.01241e-01,9.99998e-01
1.198377311e+00,5.01290e-01,5.67138e-01,9.74630e-01,9.03093e-01,9.99999e-01
1.204369197e+00,2.23485e-09,2.50458e-09,9.75984e-01,9.04914e-01,9.99999e-01
1.210391043e+00,7.51112e-33,8.39152e-33,9.77028e-01,9.06701e-01,9.99999e-01
1.216442998e+00,1.18413e-28,1.31948e-28,9.80448e-01,9.08457e-01,9.99999e-01
1.222525213e+00,3.03253e-28,3.35829e-28,9.84742e-01,9.10181e-01,9.99999e-01
1.228637839e+00,7.40355e-22,8.17982e-22,9.89378e-01,9.11875e-01,9.99999e-01
1.234781029e+00,2.00589e-14,2.20327e-14,9.92108e-01,9.13538e-01,9.99999e-01
1.240954934e+00,9.25676e-10,1.01480e-09,9.95001e-01,9.15171e-01,9.99999e-01
1.247159708e+00,1.19941e-05,1.31149e-05,9.96107e-01,9.16775e-01,9.99999e-01
1.253395507e+00,1.35899e-03,1.48376e-03,9.96541e-01,9.18350e-01,9.99999e-01
1.259662485e+00,2.20958e-02,2.40854e-02,9.96710e-01,9.19896e-01,9.99999e-01
1.265960797e+00,1.06057e-01,1.15607e-01,9.94753e-01,9.21415e-01,9.99999e-01
1.272290601e+00,3.71376e-01,4.05509e-01,9.91752e-01,9.22905e-01,9.99999e-01
1.278652054e+00,3.16441e-01,3.46981e-01,9.83663e-01,9.24369e-01,9.99999e-01
1.285045314e+00,9.09925e-03,9.96013e-03,9.70526e-01,9.25806e-01,9.99998e-01
1.291470541e+00,1.44076e-04,1.60950e-04,9.49193e-01,9.27217e-01,9.99998e-01
1.297927893e+00,1.76904e-02,1.98653e-02,9.28461e-01,9.28602e-01,9.99997e-01
1.304417533e+00,1.66284e-01,1.93699e-01,9.16273e-01,9.29962e-01,9.99996e-01
1.310939621e+00,2.88585e-02,3.29006e-02,8.95337e-01,9.31296e-01,9.99993e-01
1.317494319e+00,7.60082e-12,8.70441e-12,8.97197e-01,9.32607e-01,9.99990e-01
1.324081790e+00,2.44836e-08,2.83972e-08,8.49757e-01,9.33893e-01,9.99984e-01
1.330702199e+00,4.62307e-05,7.01079e-05,5.15560e-01,9.35155e-01,9.99973e-01
1.337355710e+00,2.26415e-05,7.09694e-05,1.88388e-01,9.36394e-01,9.99950e-01
1.344042489e+00,3.59105e-06,2.05186e-05,1.52916e-02,9.37611e-01,9.99893e-01
1.350762701e+00,2.94794e-08,4.69549e-05,2.04976e-04,9.38805e-01,9.99830e-01
1.357516515e+00,4.04292e-08,1.58657e-03,8.12879e-06,9.39976e-01,9.99790e-01
1.364304097e+00,1.27907e-05,1.60114e-02,4.79080e-04,9.41126e-01,9.99775e-01
1.371125618e+00,9.22568e-04,1.14867e-01,5.78558e-03,9.42255e-01,9.99773e-01
1.377981246e+00,2.42084e-03,1.71859e-01,1.23451e-02,9.43363e-01,9.99756e-01
1.384871152e+00,2.06106e-04,3.59001e-01,5.08141e-04,9.44450e-01,9.99763e-01
1.391795508e+00,2.83853e-04,3.88226e-01,6.52909e-04,9.45516e-01,9.99799e-01
1.398754485e+00,1.18464e-03,5.58093e-01,2.12796e-03,9.46563e-01,9.99827e-01
1.405748258e+00,1.25287e-03,6.50837e-01,1.88863e-03,9.47591e-01,9.99845e-01
1.412776999e+00,1.54964e-03,7.62591e-01,2.03632e-03,9.48599e-01,9.99875e-01
1.419840884e+00,2.43082e-03,6.88482e-01,3.11109e-03,9.49588e-01,9.99907e-01
1.426940089e+00,3.09315e-03,7.28979e-02,1.07968e-02,9.50559e-01,9.99942e-01
1.434074789e+00,0.00000e+00,0.00000e+00,3.15472e-02,9.51511e-01,9.99963e-01
1.441245163e+00,0.00000e+00,0.00000e+00,7.07366e-02,9.52446e-01,9.99971e-01
1.448451389e+00,0.00000e+00,0.00000e+00,1.51935e-01,9.53363e-01,9.99976e-01
1.455693646e+00,9.79159e-261,1.94913e-260,2.89292e-01,9.54263e-01,9.99980e-01
1.462972114e+00,1.02189e-126,2.03230e-126,3.43421e-01,9.55145e-01,9.99983e-01
1.470286975e+00,1.18945e-53,2.48674e-53,2.87364e-01,9.56012e-01,9.99984e-01
