#,Wave/freq,Total,CO2,H2O,Rayleigh,CIA
4.000000000e-01,1.32779e-02,9.99999e-01,9.99991e-01,1.32780e-02,9.99999e-01
4.020000000e-01,1.44624e-02,9.99999e-01,9.99994e-01,1.44625e-02,9.99999e-01
4.040100000e-01,1.57247e-02,9.99999e-01,9.99997e-01,1.57247e-02,9.99999e-01
4.060300500e-01,1.70689e-02,9.99999e-01,9.99999e-01,1.70689e-02,9.99999e-01
4.080602003e-01,1.84979e-02,9.99999e-01,9.99999e-01,1.84979e-02,9.99999e-01
4.101005013e-01,2.00148e-02,9.99999e-01,9.99999e-01,2.00148e-02,9.99999e-01
4.121510038e-01,2.16224e-02,9.99999e-01,9.99999e-01,2.16224e-02,9.99999e-01
4.142117588e-01,2.33235e-02,9.99999e-01,9.99997e-01,2.33235e-02,9.99999e-01
4.162828176e-01,2.51206e-02,9.99999e-01,9.99989e-01,2.51208e-02,9.99999e-01
4.183642317e-01,2.70168e-02,9.99999e-01,9.99993e-01,2.70170e-02,9.99999e-01
4.204560528e-01,2.90145e-02,9.99999e-01,9.99995e-01,2.90146e-02,9.99999e-01
4.225583331e-01,3.11159e-02,9.99999e-01,9.99998e-01,3.11160e-02,9.99999e-01
4.246711247e-01,3.33235e-02,9.99999e-01,9.99998e-01,3.33235e-02,9.99999e-01
4.267944804e-01,3.56393e-02,9.99999e-01,9.99997e-01,3.56394e-02,9.99999e-01
4.289284528e-01,3.80656e-02,9.99999e-01,9.99998e-01,3.80656e-02,9.99999e-01
4.310730950e-01,4.06042e-02,9.99999e-01,9.99998e-01,4.06042e-02,9.99999e-01
4.332284605e-01,4.32569e-02,9.99999e-01,9.99999e-01,4.32569e-02,9.99999e-01
4.353946028e-01,4.60253e-02,9.99999e-01,9.99999e-01,4.60253e-02,9.99999e-01
4.375715758e-01,4.89108e-02,9.99999e-01,9.99998e-01,4.89109e-02,9.99999e-01
4.397594337e-01,5.19145e-02,9.99999e-01,9.99990e-01,5.19150e-02,9.99999e-01
4.419582309e-01,5.50362e-02,9.99999e-01,9.99952e-01,5.50388e-02,9.99999e-01
4.441680220e-01,5.82812e-02,9.99999e-01,9.99963e-01,5.82833e-02,9.99999e-01
4.463888621e-01,6.16469e-02,9.99999e-01,9.99961e-01,6.16492e-02,9.99999e-01
4.486208064e-01,6.51357e-02,9.99999e-01,9.99976e-01,6.51373e-02,9.99999e-01
4.508639105e-01,6.87471e-02,9.99999e-01,9.99988e-01,6.87479e-02,9.99999e-01
4.531182300e-01,7.24811e-02,9.99999e-01,9.99995e-01,7.24814e-02,9.99999e-01
4.553838212e-01,7.63376e-02,9.99999e-01,9.99996e-01,7.63378e-02,9.99999e-01
4.576607403e-01,8.03171e-02,9.99999e-01,9.99998e-01,8.03172e-02,9.99999e-01
4.599490440e-01,8.44191e-02,9.99999e-01,9.99998e-01,8.44192e-02,9.99999e-01
4.622487892e-01,8.86434e-02,9.99999e-01,9.99999e-01,8.86434e-02,9.99999e-01
4.645600332e-01,9.29893e-02,9.99999e-01,9.99998e-01,9.29893e-02,9.99999e-01
4.668828333e-01,9.74550e-02,9.99999e-01,9.99988e-01,9.74561e-02,9.99999e-01
4.692172475e-01,1.02040e-01,9.99999e-01,9.99975e-01,1.02043e-01,9.99999e-01
4.715633337e-01,1.06747e-01,9.99999e-01,9.99983e-01,1.06748e-01,9.99999e-01
4.739211504e-01,1.11570e-01,9.99999e-01,9.99984e-01,1.11572e-01,9.99999e-01
4.762907561e-01,1.16510e-01,9.99999e-01,9.99991e-01,1.16511e-01,9.99999e-01
4.786722099e-01,1.21565e-01,9.99999e-01,9.99996e-01,1.21565e-01,9.99999e-01
4.810655710e-01,1.26732e-01,9.99999e-01,9.99998e-01,1.26732e-01,9.99999e-01
4.834708988e-01,1.32009e-01,9.99999e-01,9.99990e-01,1.32010e-01,9.99999e-01
4.858882533e-01,1.37394e-01,9.99999e-01,9.99982e-01,1.37397e-01,9.99999e-01
4.883176946e-01,1.42888e-01,9.99999e-01,9.99985e-01,1.42891e-01,9.99999e-01
4.907592831e-01,1.48487e-01,9.99999e-01,9.99986e-01,1.48489e-01,9.99999e-01
4.932130795e-01,1.54188e-01,9.99999e-01,9.99990e-01,1.54190e-01,9.99999e-01
4.956791449e-01,1.59989e-01,9.99999e-01,9.99994e-01,1.59990e-01,9.99999e-01
4.981575406e-01,1.65884e-01,9.99999e-01,9.99975e-01,1.65888e-01,9.99999e-01
5.006483283e-01,1.71869e-01,9.99999e-01,9.99936e-01,1.71880e-01,9.99999e-01
5.031515699e-01,1.77907e-01,9.99999e-01,9.99684e-01,1.77964e-01,9.99999e-01
5.056673278e-01,1.84106e-01,9.99999e-01,9.99833e-01,1.84136e-01,9.99999e-01
5.081956644e-01,1.90355e-01,9.99999e-01,9.99790e-01,1.90394e-01,9.99999e-01
5.107366428e-01,1.96708e-01,9.99999e-01,9.99858e-01,1.96736e-01,9.99999e-01
5.132903260e-01,2.03140e-01,9.99999e-01,9.99919e-01,2.03156e-01,9.99999e-01
5.158567776e-01,2.09647e-01,9.99999e-01,9.99965e-01,2.09654e-01,9.99999e-01
5.184360615e-01,2.16221e-01,9.99999e-01,9.99985e-01,2.16224e-01,9.99999e-01
5.210282418e-01,2.22864e-01,9.99999e-01,9.99994e-01,2.22865e-01,9.99999e-01
5.236333830e-01,2.29568e-01,9.99999e-01,9.99979e-01,2.29572e-01,9.99999e-01
5.262515499e-01,2.36340e-01,9.99999e-01,9.99986e-01,2.36343e-01,9.99999e-01
5.288828077e-01,2.43171e-01,9.99999e-01,9.99987e-01,2.43174e-01,9.99999e-01
5.315272217e-01,2.50059e-01,9.99999e-01,9.99989e-01,2.50061e-01,9.99999e-01
5.341848578e-01,2.57000e-01,9.99999e-01,9.99992e-01,2.57002e-01,9.99999e-01
5.368557821e-01,2.63986e-01,9.99999e-01,9.99975e-01,2.63993e-01,9.99999e-01
5.395400610e-01,2.71006e-01,9.99999e-01,9.99912e-01,2.71030e-01,9.99999e-01
5.422377613e-01,2.78079e-01,9.99999e-01,9.99888e-01,2.78110e-01,9.99999e-01
5.449489501e-01,2.85200e-01,9.99999e-01,9.99895e-01,2.85229e-01,9.99999e-01
5.476736949e-01,2.92359e-01,9.99999e-01,9.99908e-01,2.92385e-01,9.99999e-01
5.504120634e-01,2.99554e-01,9.99999e-01,9.99933e-01,2.99574e-01,9.99999e-01
5.531641237e-01,3.06782e-01,9.99999e-01,9.99966e-01,3.06792e-01,9.99999e-01
5.559299443e-01,3.14032e-01,9.99999e-01,9.99983e-01,3.14037e-01,9.99999e-01
5.587095940e-01,3.21301e-01,9.99999e-01,9.99989e-01,3.21304e-01,9.99999e-01
5.615031420e-01,3.28588e-01,9.99999e-01,9.99988e-01,3.28591e-01,9.99999e-01
5.643106577e-01,3.35891e-01,9.99999e-01,9.99986e-01,3.35895e-01,9.99999e-01
5.671322110e-01,3.43157e-01,9.99999e-01,9.99840e-01,3.43212e-01,9.99999e-01
5.699678720e-01,3.50481e-01,9.99999e-01,9.99835e-01,3.50539e-01,9.99999e-01
5.728177114e-01,3.57811e-01,9.99999e-01,9.99826e-01,3.57873e-01,9.99999e-01
5.756818000e-01,3.65153e-01,9.99999e-01,9.99841e-01,3.65211e-01,9.99999e-01
5.785602090e-01,3.72498e-01,9.99999e-01,9.99861e-01,3.72550e-01,9.99999e-01
5.814530100e-01,3.79834e-01,9.99999e-01,9.99861e-01,3.79887e-01,9.99999e-01
5.843602750e-01,3.87155e-01,9.99999e-01,9.99833e-01,3.87220e-01,9.99999e-01
5.872820764e-01,3.93979e-01,9.99999e-01,9.98565e-01,3.94545e-01,9.99999e-01
5.902184868e-01,4.01168e-01,9.99999e-01,9.98278e-01,4.01859e-01,9.99999e-01
5.931695792e-01,4.08662e-01,9.99999e-01,9.98779e-01,4.09161e-01,9.99999e-01
5.961354271e-01,4.15893e-01,9.99999e-01,9.98665e-01,4.16448e-01,9.99999e-01
5.991161043e-01,4.23305e-01,9.99999e-01,9.99028e-01,4.23716e-01,9.99999e-01
6.021116848e-01,4.30727e-01,9.99999e-01,9.99449e-01,4.30965e-01,9.99999e-01
6.051222432e-01,4.38068e-01,9.99999e-01,9.99721e-01,4.38190e-01,9.99999e-01
6.081478544e-01,4.45336e-01,9.99999e-01,9.99879e-01,4.45390e-01,9.99999e-01
6.111885937e-01,4.52539e-01,9.99999e-01,9.99948e-01,4.52562e-01,9.99999e-01
6.142445367e-01,4.59695e-01,9.99999e-01,9.99976e-01,4.59705e-01,9.99999e-01
6.173157594e-01,4.66811e-01,9.99999e-01,9.99986e-01,4.66817e-01,9.99999e-01
6.204023382e-01,4.73889e-01,9.99999e-01,9.99988e-01,4.73895e-01,9.99999e-01
6.235043498e-01,4.80914e-01,9.99999e-01,9.99951e-01,4.80937e-01,9.99999e-01
6.266218716e-01,4.87820e-01,9.99999e-01,9.99751e-01,4.87941e-01,9.99999e-01
6.297549810e-01,4.94861e-01,9.99999e-01,9.99908e-01,4.94906e-01,9.99999e-01
6.329037559e-01,5.01740e-01,9.99999e-01,9.99820e-01,5.01830e-01,9.99999e-01
6.360682746e-01,5.08633e-01,9.99999e-01,9.99846e-01,5.08711e-01,9.99999e-01
6.392486160e-01,5.15446e-01,9.99999e-01,9.99801e-01,5.15548e-01,9.99999e-01
6.424448591e-01,5.22200e-01,9.99999e-01,9.99731e-01,5.22339e-01,9.99999e-01
6.456570834e-01,5.28426e-01,9.99999e-01,9.98756e-01,5.29083e-01,9.99999e-01
6.488853688e-01,5.35296e-01,9.99999e-01,9.99099e-01,5.35778e-01,9.99999e-01
6.521297956e-01,5.41925e-01,9.99999e-01,9.99082e-01,5.42423e-01,9.99999e-01
6.553904446e-01,5.48513e-01,9.99999e-01,9.99082e-01,5.49017e-01,9.99999e-01
6.586673968e-01,5.55124e-01,9.99999e-01,9.99217e-01,5.55558e-01,9.99999e-01
6.619607338e-01,5.61801e-01,9.99999e-01,9.99563e-01,5.62046e-01,9.99999e-01
6.652705375e-01,5.68330e-01,9.99999e-01,9.99738e-01,5.68479e-01,9.99999e-01
6.685968902e-01,5.74793e-01,9.99999e-01,9.99888e-01,5.74856e-01,9.99999e-01
6.719398746e-01,5.81145e-01,9.99999e-01,9.99943e-01,5.81177e-01,9.99999e-01
6.752995740e-01,5.87423e-01,9.99999e-01,9.99969e-01,5.87441e-01,9.99999e-01
6.786760719e-01,5.93620e-01,9.99999e-01,9.99955e-01,5.93646e-01,9.99999e-01
6.820694522e-01,5.99747e-01,9.99999e-01,9.99923e-01,5.99792e-01,9.99999e-01
6.854797995e-01,6.05820e-01,9.99999e-01,9.99901e-01,6.05879e-01,9.99999e-01
6.889071985e-01,6.11759e-01,9.99999e-01,9.99759e-01,6.11906e-01,9.99999e-01
6.923517345e-01,6.15471e-01,9.99999e-01,9.96114e-01,6.17871e-01,9.99999e-01
6.958134932e-01,6.22540e-01,9.99999e-01,9.98019e-01,6.23775e-01,9.99999e-01
6.992925606e-01,6.28410e-01,9.99999e-01,9.98081e-01,6.29618e-01,9.99999e-01
7.027890234e-01,6.33905e-01,9.99999e-01,9.97649e-01,6.35398e-01,9.99999e-01
7.063029686e-01,6.39848e-01,9.99999e-01,9.98022e-01,6.41115e-01,9.99999e-01
7.098344834e-01,6.45543e-01,9.99999e-01,9.98103e-01,6.46769e-01,9.99999e-01
7.133836558e-01,6.50690e-01,9.99999e-01,9.97438e-01,6.52360e-01,9.99999e-01
7.169505741e-01,6.44466e-01,9.99999e-01,9.79597e-01,6.57888e-01,9.99999e-01
7.205353270e-01,6.56828e-01,9.99999e-01,9.90165e-01,6.63352e-01,9.99999e-01
7.241380036e-01,6.60279e-01,9.99999e-01,9.87330e-01,6.68752e-01,9.99999e-01
7.277586936e-01,6.66383e-01,9.99999e-01,9.88570e-01,6.74088e-01,9.99999e-01
7.313974871e-01,6.71169e-01,9.99999e-01,9.87943e-01,6.79359e-01,9.99999e-01
7.350544745e-01,6.80044e-01,9.99999e-01,9.93392e-01,6.84567e-01,9.99999e-01
7.387297469e-01,6.86360e-01,9.99999e-01,9.95141e-01,6.89711e-01,9.99999e-01
7.424233956e-01,6.93141e-01,9.99999e-01,9.97626e-01,6.94790e-01,9.99999e-01
7.461355126e-01,6.98798e-01,9.99999e-01,9.98559e-01,6.99806e-01,9.99999e-01
7.498661902e-01,7.04286e-01,9.99999e-01,9.99330e-01,7.04757e-01,9.99999e-01
7.536155211e-01,7.09411e-01,9.99999e-01,9.99670e-01,7.09645e-01,9.99999e-01
7.573835987e-01,7.14348e-01,9.99999e-01,9.99830e-01,7.14469e-01,9.99999e-01
7.611705167e-01,7.19154e-01,9.99999e-01,9.99894e-01,7.19230e-01,9.99999e-01
7.649763693e-01,7.23879e-01,9.99999e-01,9.99933e-01,7.23927e-01,9.99999e-01
7.688012511e-01,7.28528e-01,9.99999e-01,9.99953e-01,7.28561e-01,9.99999e-01
7.726452574e-01,7.33105e-01,9.99999e-01,9.99961e-01,7.33133e-01,9.99999e-01
7.765084837e-01,7.37602e-01,9.99999e-01,9.99945e-01,7.37642e-01,9.99999e-01
7.803910261e-01,7.30311e-01,9.84356e-01,9.99764e-01,7.42089e-01,9.99999e-01
7.842929812e-01,6.99721e-01,9.38121e-01,9.99179e-01,7.46474e-01,9.99999e-01
7.882144461e-01,6.99467e-01,9.33166e-01,9.98323e-01,7.50798e-01,9.99999e-01
7.921555184e-01,7.25052e-01,9.61126e-01,9.99085e-01,7.55061e-01,9.99999e-01
7.961162960e-01,7.38396e-01,9.74103e-01,9.98365e-01,7.59263e-01,9.99999e-01
8.000968774e-01,7.51197e-01,9.85856e-01,9.98123e-01,7.63404e-01,9.99999e-01
8.040973618e-01,7.60440e-01,9.92683e-01,9.98119e-01,7.67486e-01,9.99999e-01
8.081178486e-01,7.65626e-01,9.96622e-01,9.95734e-01,7.71508e-01,9.99999e-01
8.121584379e-01,7.60978e-01,9.98966e-01,9.82319e-01,7.75472e-01,9.99999e-01
8.162192301e-01,7.63016e-01,9.99771e-01,9.79229e-01,7.79376e-01,9.99999e-01
8.203003262e-01,7.74878e-01,9.99996e-01,9.89347e-01,7.83223e-01,9.99999e-01
8.244018279e-01,7.75582e-01,9.99999e-01,9.85475e-01,7.87012e-01,9.99999e-01
8.285238370e-01,7.80861e-01,9.99999e-01,9.87501e-01,7.90744e-01,9.99999e-01
8.326664562e-01,7.84418e-01,9.99999e-01,9.87409e-01,7.94420e-01,9.99999e-01
8.368297885e-01,7.90878e-01,9.99999e-01,9.91026e-01,7.98040e-01,9.99999e-01
8.410139374e-01,7.97328e-01,9.99999e-01,9.94665e-01,8.01604e-01,9.99999e-01
8.452190071e-01,8.03008e-01,9.99999e-01,9.97385e-01,8.05113e-01,9.99999e-01
8.494451021e-01,8.07337e-01,9.99999e-01,9.98477e-01,8.08567e-01,9.99999e-01
8.536923276e-01,8.11240e-01,9.99999e-01,9.99102e-01,8.11968e-01,9.99999e-01
8.579607893e-01,8.14864e-01,9.99999e-01,9.99445e-01,8.15316e-01,9.99999e-01
8.622505932e-01,8.18323e-01,9.99999e-01,9.99648e-01,8.18611e-01,9.99999e-01
8.665618462e-01,7.86895e-01,9.57667e-01,9.99781e-01,8.21853e-01,9.99999e-01
8.708946554e-01,6.98697e-01,8.47067e-01,9.99749e-01,8.25044e-01,9.99999e-01
8.752491287e-01,7.26097e-01,8.77021e-01,9.99665e-01,8.28185e-01,9.99999e-01
8.796253743e-01,7.73844e-01,9.31340e-01,9.99535e-01,8.31274e-01,9.99999e-01
8.840235012e-01,8.03849e-01,9.63992e-01,9.99469e-01,8.34314e-01,9.99999e-01
8.884436187e-01,8.23747e-01,9.85742e-01,9.98027e-01,8.37305e-01,9.99999e-01
8.928858368e-01,8.18329e-01,9.94193e-01,9.79581e-01,8.40246e-01,9.99999e-01
8.973502660e-01,8.12010e-01,9.98595e-01,9.64420e-01,8.43140e-01,9.99999e-01
9.018370173e-01,8.30480e-01,9.99845e-01,9.81819e-01,8.45987e-01,9.99999e-01
9.063462024e-01,8.31593e-01,9.95878e-01,9.83745e-01,8.48786e-01,9.99998e-01
9.108779334e-01,8.22574e-01,9.90824e-01,9.74883e-01,8.51539e-01,9.99998e-01
9.154323231e-01,8.28231e-01,9.97863e-01,9.71602e-01,8.54247e-01,9.99998e-01
9.200094847e-01,8.10808e-01,9.67251e-01,9.77723e-01,8.56909e-01,9.99998e-01
9.246095321e-01,7.92363e-01,9.55754e-01,9.64170e-01,8.59527e-01,9.99997e-01
9.292325798e-01,6.53055e-01,9.64579e-01,7.83860e-01,8.62100e-01,9.99996e-01
9.338787427e-01,6.12112e-01,9.66225e-01,7.31387e-01,8.64631e-01,9.99995e-01
9.385481364e-01,7.46423e-01,9.75118e-01,8.82189e-01,8.67119e-01,9.99995e-01
9.432408771e-01,7.16402e-01,9.84758e-01,8.36283e-01,8.69564e-01,9.99994e-01
9.479570815e-01,6.73291e-01,9.92138e-01,7.78102e-01,8.71968e-01,9.99995e-01
9.526968669e-01,7.25452e-01,9.96209e-01,8.32745e-01,8.74331e-01,9.99996e-01
9.574603512e-01,7.42194e-01,9.98379e-01,8.47957e-01,8.76653e-01,9.99997e-01
9.622476530e-01,7.69019e-01,9.99494e-01,8.75375e-01,8.78936e-01,9.99997e-01
9.670588912e-01,8.16050e-01,9.99848e-01,9.26225e-01,8.81179e-01,9.99998e-01
9.718941857e-01,8.42250e-01,9.99989e-01,9.53445e-01,8.83383e-01,9.99998e-01
9.767536566e-01,8.51197e-01,9.99999e-01,9.61207e-01,8.85550e-01,9.99999e-01
9.816374249e-01,8.62129e-01,9.99999e-01,9.71217e-01,8.87678e-01,9.99999e-01
9.865456120e-01,8.73702e-01,9.99999e-01,9.81941e-01,8.89770e-01,9.99999e-01
9.914783401e-01,8.81839e-01,9.99999e-01,9.88802e-01,8.91825e-01,9.99999e-01
9.964357318e-01,8.88382e-01,9.99999e-01,9.93889e-01,8.93844e-01,9.99999e-01
1.001417910e+00,8.92546e-01,9.99999e-01,9.96336e-01,8.95827e-01,9.99999e-01
1.006425000e+00,8.95896e-01,9.99999e-01,9.97905e-01,8.97776e-01,9.99999e-01
1.011457125e+00,8.98524e-01,9.99999e-01,9.98703e-01,8.99690e-01,9.99999e-01
1.016514411e+00,9.00776e-01,9.99999e-01,9.99118e-01,9.01571e-01,9.99999e-01
1.021596983e+00,9.02761e-01,9.99974e-01,9.99296e-01,9.03418e-01,9.99999e-01
1.026704968e+00,9.03281e-01,9.98390e-01,9.99451e-01,9.05232e-01,9.99999e-01
1.031838492e+00,8.82815e-01,9.73698e-01,9.99601e-01,9.07014e-01,9.99999e-01
1.036997685e+00,2.91362e-01,3.20678e-01,9.99762e-01,9.08764e-01,9.99999e-01
1.042182673e+00,3.59176e-01,3.94595e-01,9.99716e-01,9.10483e-01,9.99999e-01
1.047393587e+00,3.21670e-01,3.52763e-01,9.99624e-01,9.12171e-01,9.99999e-01
1.052630555e+00,6.17964e-02,6.76516e-02,9.99484e-01,9.13829e-01,9.99999e-01
1.057893707e+00,1.11629e-01,1.22023e-01,9.99137e-01,9.15457e-01,9.99999e-01
1.063183176e+00,2.00132e-01,2.18491e-01,9.98582e-01,9.17056e-01,9.99999e-01
1.068499092e+00,3.33314e-01,3.63632e-01,9.97631e-01,9.18625e-01,9.99999e-01
1.073841587e+00,4.86308e-01,5.29858e-01,9.97221e-01,9.20167e-01,9.99999e-01
1.079210795e+00,6.15403e-01,6.69978e-01,9.96453e-01,9.21680e-01,9.99999e-01
1.084606849e+00,7.38468e-01,8.04166e-01,9.94623e-01,9.23166e-01,9.99999e-01
1.090029883e+00,8.19557e-01,8.93225e-01,9.92230e-01,9.24625e-01,9.99999e-01
1.095480033e+00,8.57768e-01,9.46028e-01,9.79007e-01,9.26058e-01,9.99999e-01
1.100957433e+00,8.55620e-01,9.73651e-01,9.47390e-01,9.27464e-01,9.99998e-01
1.106462220e+00,7.99665e-01,9.89043e-01,8.70308e-01,9.28844e-01,9.99997e-01
1.111994531e+00,6.91537e-01,9.95925e-01,7.46372e-01,9.30200e-01,9.99995e-01
1.117554504e+00,5.78260e-01,9.99009e-01,6.21328e-01,9.31530e-01,9.99993e-01
1.123142276e+00,6.53360e-01,9.99935e-01,7.00438e-01,9.32836e-01,9.99992e-01
1.128757988e+00,7.45555e-01,9.99999e-01,7.98144e-01,9.34118e-01,9.99992e-01
1.134401778e+00,5.42867e-01,9.99999e-01,5.80377e-01,9.35376e-01,9.99991e-01
1.140073787e+00,8.20339e-01,9.99999e-01,8.75863e-01,9.36611e-01,9.99992e-01
1.145774156e+00,7.09484e-01,9.99999e-01,7.56525e-01,9.37824e-01,9.99993e-01
1.151503026e+00,6.86244e-01,9.99999e-01,7.30816e-01,9.39013e-01,9.99994e-01
1.157260541e+00,7.27899e-01,9.99999e-01,7.74214e-01,9.40181e-01,9.99995e-01
1.163046844e+00,7.79938e-01,9.99999e-01,8.28553e-01,9.41327e-01,9.99997e-01
1.168862078e+00,8.27799e-01,9.99999e-01,8.78346e-01,9.42452e-01,9.99998e-01
1.174706389e+00,8.70983e-01,9.99999e-01,9.23085e-01,9.43556e-01,9.99998e-01
1.180579921e+00,8.99781e-01,9.99999e-01,9.52512e-01,9.44640e-01,9.99999e-01
1.186482820e+00,9.20080e-01,9.99995e-01,9.72909e-01,9.45703e-01,9.99999e-01
1.192415234e+00,9.26299e-01,9.94183e-01,9.84099e-01,9.46746e-01,9.99999e-01
1.198377311e+00,5.54191e-01,5.91435e-01,9.86557e-01,9.47770e-01,9.99999e-01
1.204369197e+00,5.35759e-06,5.68871e-06,9.87277e-01,9.48775e-01,9.99999e-01
1.210391043e+00,2.34888e-18,2.48996e-18,9.87838e-01,9.49761e-01,9.99999e-01
1.216442998e+00,3.90710e-16,4.13616e-16,9.89667e-01,9.50728e-01,9.99999e-01
1.222525213e+00,6.85576e-16,7.23488e-16,9.91944e-01,9.51678e-01,9.99999e-01
1.228637839e+00,3.40488e-12,3.58870e-12,9.94397e-01,9.52609e-01,9.99999e-01
1.234781029e+00,1.29621e-08,1.36198e-08,9.95841e-01,9.53523e-01,9.99999e-01
1.240954934e+00,7.78765e-06,8.17417e-06,9.97366e-01,9.54420e-01,9.99999e-01
1.247159708e+00,1.32189e-03,1.38585e-03,9.97951e-01,9.55300e-01,9.99999e-01
1.253395507e+00,2.63433e-02,2.75929e-02,9.98178e-01,9.56163e-01,9.99999e-01
1.259662485e+00,1.25248e-01,1.31076e-01,9.98265e-01,9.57010e-01,9.99999e-01
1.265960797e+00,2.95137e-01,3.08900e-01,9.97235e-01,9.57841e-01,9.99999e-01
1.272290601e+00,5.90603e-01,6.18663e-01,9.95644e-01,9.58656e-01,9.99999e-01
1.278652054e+00,5.22486e-01,5.48744e-01,9.91353e-01,9.59456e-01,9.99999e-01
1.285045314e+00,3.88765e-02,4.08398e-02,9.84337e-01,9.60241e-01,9.99999e-01
1.291470541e+00,7.77358e-03,8.26088e-03,9.72855e-01,9.61011e-01,9.99998e-01
1.297927893e+00,8.83948e-02,9.44649e-02,9.61570e-01,9.61766e-01,9.99998e-01
1.304417533e+00,3.85552e-01,4.18577e-01,9.54877e-01,9.62507e-01,9.99997e-01
1.310939621e+00,7.66439e-02,8.22664e-02,9.43272e-01,9.63233e-01,9.99996e-01
1.317494319e+00,9.39342e-07,1.01190e-06,9.44322e-01,9.63946e-01,9.99994e-01
1.324081790e+00,2.02701e-04,2.19546e-04,9.18825e-01,9.64646e-01,9.99991e-01
1.330702199e+00,4.24582e-03,5.55781e-03,6.80106e-01,9.65332e-01,9.99985e-01
1.337355710e+00,2.00757e-03,3.84009e-03,3.95984e-01,9.66005e-01,9.99973e-01
1.344042489e+00,3.60702e-04,1.40819e-03,7.62410e-02,9.66665e-01,9.99943e-01
1.350762701e+00,5.44557e-05,4.49404e-03,6.72481e-03,9.67313e-01,9.99910e-01
1.357516515e+00,6.95169e-05,2.82838e-02,1.42300e-03,9.67948e-01,9.99889e-01
1.364304097e+00,1.58433e-03,1.10043e-01,1.13770e-02,9.68571e-01,9.99881e-01
1.371125618e+00,1.84540e-02,3.11339e-01,5.13313e-02,9.69182e-01,9.99880e-01
1.377981246e+00,3.16357e-02,3.94365e-01,7.66840e-02,9.69781e-01,9.99871e-01
1.384871152e+00,5.68811e-03,5.82098e-01,9.31913e-03,9.70369e-01,9.99875e-01
1.391795508e+00,9.55125e-03,6.06825e-01,1.51684e-02,9.70946e-01,9.99894e-01
1.398754485e+00,1.88690e-02,7.35757e-01,2.58154e-02,9.71512e-01,9.99909e-01
1.405748258e+00,1.92628e-02,7.97421e-01,2.40315e-02,9.72066e-01,9.99918e-01
1.412776999e+00,2.41561e-02,8.67122e-01,2.81179e-02,9.72610e-01,9.99934e-01
1.419840884e+00,2.97234e-02,8.05956e-01,3.41014e-02,9.73144e-01,9.99950e-01
1.426940089e+00,1.92476e-02,1.13163e-01,7.38991e-02,9.73668e-01,9.99969e-01
1.434074789e+00,1.02124e-254,3.28402e-254,1.34759e-01,9.74181e-01,9.99980e-01
1.441245163e+00,0.00000e+00,0.00000e+00,2.29662e-01,9.74684e-01,9.99984e-01
1.448451389e+00,2.09075e-308,3.63185e-308,3.46910e-01,9.75178e-01,9.99987e-01
1.455693646e+00,2.68471e-138,3.85710e-138,5.10383e-01,9.75662e-01,9.99989e-01
1.462972114e+00,9.26203e-68,1.33007e-67,5.62365e-01,9.76137e-01,9.99990e-01
1.470286975e+00,2.69375e-29,3.97668e-29,5.09485e-01,9.76603e-01,9.99991e-01
