#,Wave/freq,Total,CO2,Rayleigh,CIA
4.000000000e-01,2.14396e-10,9.99999e-01,2.14396e-10,9.99999e-01
4.020000000e-01,3.32751e-10,9.99999e-01,3.32751e-10,9.99999e-01
4.040100000e-01,5.12072e-10,9.99999e-01,5.12072e-10,9.99999e-01
4.060300500e-01,7.81349e-10,9.99999e-01,7.81349e-10,9.99999e-01
4.080602003e-01,1.18232e-09,9.99999e-01,1.18232e-09,9.99999e-01
4.101005013e-01,1.77447e-09,9.99999e-01,1.77447e-09,9.99999e-01
4.121510038e-01,2.64193e-09,9.99999e-01,2.64193e-09,9.99999e-01
4.142117588e-01,3.90266e-09,9.99999e-01,3.90266e-09,9.99999e-01
4.162828176e-01,5.72073e-09,9.99999e-01,5.72073e-09,9.99999e-01
4.183642317e-01,8.32267e-09,9.99999e-01,8.32267e-09,9.99999e-01
4.204560528e-01,1.20187e-08,9.99999e-01,1.20187e-08,9.99999e-01
4.225583331e-01,1.72306e-08,9.99999e-01,1.72306e-08,9.99999e-01
4.246711247e-01,2.45274e-08,9.99999e-01,2.45274e-08,9.99999e-01
4.267944804e-01,3.46717e-08,9.99999e-01,3.46717e-08,9.99999e-01
4.289284528e-01,4.86776e-08,9.99999e-01,4.86776e-08,9.99999e-01
4.310730950e-01,6.78848e-08,9.99999e-01,6.78848e-08,9.99999e-01
4.332284605e-01,9.40509e-08,9.99999e-01,9.40509e-08,9.99999e-01
4.353946028e-01,1.29466e-07,9.99999e-01,1.29466e-07,9.99999e-01
4.375715758e-01,1.77096e-07,9.99999e-01,1.77096e-07,9.99999e-01
4.397594337e-01,2.40754e-07,9.99999e-01,2.40754e-07,9.99999e-01
4.419582309e-01,3.25314e-07,9.99999e-01,3.25314e-07,9.99999e-01
4.441680220e-01,4.36970e-07,9.99999e-01,4.36970e-07,9.99999e-01
4.463888621e-01,5.83537e-07,9.99999e-01,5.83537e-07,9.99999e-01
4.486208064e-01,7.74825e-07,9.99999e-01,7.74825e-07,9.99999e-01
4.508639105e-01,1.02307e-06,9.99999e-01,1.02307e-06,9.99999e-01
4.531182300e-01,1.34346e-06,9.99999e-01,1.34346e-06,9.99999e-01
4.553838212e-01,1.75472e-06,9.99999e-01,1.75472e-06,9.99999e-01
4.576607403e-01,2.27981e-06,9.99999e-01,2.27981e-06,9.99999e-01
4.599490440e-01,2.94676e-06,9.99999e-01,2.94676e-06,9.99999e-01
4.622487892e-01,3.78956e-06,9.99999e-01,3.78956e-06,9.99999e-01
4.645600332e-01,4.84926e-06,9.99999e-01,4.84926e-06,9.99999e-01
4.668828333e-01,6.17514e-06,9.99999e-01,6.17514e-06,9.99999e-01
4.692172475e-01,7.82608e-06,9.99999e-01,7.82608e-06,9.99999e-01
4.715633337e-01,9.87209e-06,9.99999e-01,9.87209e-06,9.99999e-01
4.739211504e-01,1.23960e-05,9.99999e-01,1.23960e-05,9.99999e-01
4.762907561e-01,1.54954e-05,9.99999e-01,1.54954e-05,9.99999e-01
4.786722099e-01,1.92845e-05,9.99999e-01,1.92845e-05,9.99999e-01
4.810655710e-01,2.38966e-05,9.99999e-01,2.38966e-05,9.99999e-01
4.834708988e-01,2.94867e-05,9.99999e-01,2.94867e-05,9.99999e-01
4.858882533e-01,3.62336e-05,9.99999e-01,3.62336e-05,9.99999e-01
4.883176946e-01,4.43435e-05,9.99999e-01,4.43435e-05,9.99999e-01
4.907592831e-01,5.40525e-05,9.99999e-01,5.40525e-05,9.99999e-01
4.932130795e-01,6.56302e-05,9.99999e-01,6.56302e-05,9.99999e-01
4.956791449e-01,7.93827e-05,9.99999e-01,7.93827e-05,9.99999e-01
4.981575406e-01,9.56570e-05,9.99999e-01,9.56570e-05,9.99999e-01
5.006483283e-01,1.14844e-04,9.99999e-01,1.14844e-04,9.99999e-01
5.031515699e-01,1.37382e-04,9.99999e-01,1.37382e-04,9.99999e-01
5.056673278e-01,1.63763e-04,9.99999e-01,1.63763e-04,9.99999e-01
5.081956644e-01,1.94533e-04,9.99999e-01,1.94533e-04,9.99999e-01
5.107366428e-01,2.30301e-04,9.99999e-01,2.30301e-04,9.99999e-01
5.132903260e-01,2.71737e-04,9.99999e-01,2.71737e-04,9.99999e-01
5.158567776e-01,3.19583e-04,9.99999e-01,3.19583e-04,9.99999e-01
5.184360615e-01,3.74651e-04,9.99999e-01,3.74651e-04,9.99999e-01
5.210282418e-01,4.37831e-04,9.99999e-01,4.37831e-04,9.99999e-01
5.236333830e-01,5.10092e-04,9.99999e-01,5.10092e-04,9.99999e-01
5.262515499e-01,5.92490e-04,9.99999e-01,5.92490e-04,9.99999e-01
5.288828077e-01,6.86165e-04,9.99999e-01,6.86165e-04,9.99999e-01
5.315272217e-01,7.92349e-04,9.99999e-01,7.92349e-04,9.99999e-01
5.341848578e-01,9.12370e-04,9.99999e-01,9.12370e-04,9.99999e-01
5.368557821e-01,1.04765e-03,9.99999e-01,1.04765e-03,9.99999e-01
5.395400610e-01,1.19970e-03,9.99999e-01,1.19970e-03,9.99999e-01
5.422377613e-01,1.37015e-03,9.99999e-01,1.37015e-03,9.99999e-01
5.449489501e-01,1.56072e-03,9.99999e-01,1.56072e-03,9.99999e-01
5.476736949e-01,1.77322e-03,9.99999e-01,1.77322e-03,9.99999e-01
5.504120634e-01,2.00959e-03,9.99999e-01,2.00959e-03,9.99999e-01
5.531641237e-01,2.27184e-03,9.99999e-01,2.27184e-03,9.99999e-01
5.559299443e-01,2.56210e-03,9.99999e-01,2.56210e-03,9.99999e-01
5.587095940e-01,2.88258e-03,9.99999e-01,2.88258e-03,9.99999e-01
5.615031420e-01,3.23562e-03,9.99999e-01,3.23562e-03,9.99999e-01
5.643106577e-01,3.62362e-03,9.99999e-01,3.62362e-03,9.99999e-01
5.671322110e-01,4.04907e-03,9.99999e-01,4.04907e-03,9.99999e-01
5.699678720e-01,4.51456e-03,9.99999e-01,4.51456e-03,9.99999e-01
5.728177114e-01,5.02277e-03,9.99999e-01,5.02277e-03,9.99999e-01
5.756818000e-01,5.57641e-03,9.99999e-01,5.57641e-03,9.99999e-01
5.785602090e-01,6.17832e-03,9.99999e-01,6.17832e-03,9.99999e-01
5.814530100e-01,6.83134e-03,9.99999e-01,6.83134e-03,9.99999e-01
5.843602750e-01,7.53841e-03,9.99999e-01,7.53841e-03,9.99999e-01
5.872820764e-01,8.30250e-03,9.99999e-01,8.30250e-03,9.99999e-01
5.902184868e-01,9.12661e-03,9.99999e-01,9.12661e-03,9.99999e-01
5.931695792e-01,1.00138e-02,9.99999e-01,1.00138e-02,9.99999e-01
5.961354271e-01,1.09671e-02,9.99999e-01,1.09671e-02,9.99999e-01
5.991161043e-01,1.19896e-02,9.99999e-01,1.19896e-02,9.99999e-01
6.021116848e-01,1.30844e-02,9.99999e-01,1.30844e-02,9.99999e-01
6.051222432e-01,1.42545e-02,9.99999e-01,1.42545e-02,9.99999e-01
6.081478544e-01,1.55030e-02,9.99999e-01,1.55030e-02,9.99999e-01
6.111885937e-01,1.68329e-02,9.99999e-01,1.68329e-02,9.99999e-01
6.142445367e-01,1.82472e-02,9.99999e-01,1.82472e-02,9.99999e-01
6.173157594e-01,1.97489e-02,9.99999e-01,1.97489e-02,9.99999e-01
6.204023382e-01,2.13408e-02,9.99999e-01,2.13408e-02,9.99999e-01
6.235043498e-01,2.30257e-02,9.99999e-01,2.30257e-02,9.99999e-01
6.266218716e-01,2.48063e-02,9.99999e-01,2.48063e-02,9.99999e-01
6.297549810e-01,2.66854e-02,9.99999e-01,2.66854e-02,9.99999e-01
6.329037559e-01,2.86655e-02,9.99999e-01,2.86655e-02,9.99999e-01
6.360682746e-01,3.07489e-02,9.99999e-01,3.07489e-02,9.99999e-01
6.392486160e-01,3.29381e-02,9.99999e-01,3.29381e-02,9.99999e-01
6.424448591e-01,3.52353e-02,9.99999e-01,3.52353e-02,9.99999e-01
6.456570834e-01,3.76425e-02,9.99999e-01,3.76425e-02,9.99999e-01
6.488853688e-01,4.01618e-02,9.99999e-01,4.01618e-02,9.99999e-01
6.521297956e-01,4.27948e-02,9.99999e-01,4.27948e-02,9.99999e-01
6.553904446e-01,4.55433e-02,9.99999e-01,4.55433e-02,9.99999e-01
6.586673968e-01,4.84088e-02,9.99999e-01,4.84088e-02,9.99999e-01
6.619607338e-01,5.13925e-02,9.99999e-01,5.13925e-02,9.99999e-01
6.652705375e-01,5.44958e-02,9.99999e-01,5.44958e-02,9.99999e-01
6.685968902e-01,5.77195e-02,9.99999e-01,5.77195e-02,9.99999e-01
6.719398746e-01,6.10646e-02,9.99999e-01,6.10646e-02,9.99999e-01
6.752995740e-01,6.45317e-02,9.99999e-01,6.45317e-02,9.99999e-01
6.786760719e-01,6.81214e-02,9.99999e-01,6.81214e-02,9.99999e-01
6.820694522e-01,7.18338e-02,9.99999e-01,7.18338e-02,9.99999e-01
6.854797995e-01,7.56692e-02,9.99999e-01,7.56692e-02,9.99999e-01
6.889071985e-01,7.96275e-02,9.99999e-01,7.96275e-02,9.99999e-01
6.923517345e-01,8.37086e-02,9.99999e-01,8.37086e-02,9.99999e-01
6.958134932e-01,8.79120e-02,9.99999e-01,8.79120e-02,9.99999e-01
6.992925606e-01,9.22371e-02,9.99999e-01,9.22371e-02,9.99999e-01
7.027890234e-01,9.66833e-02,9.99999e-01,9.66833e-02,9.99999e-01
7.063029686e-01,1.01250e-01,9.99999e-01,1.01250e-01,9.99999e-01
7.098344834e-01,1.05935e-01,9.99999e-01,1.05935e-01,9.99999e-01
7.133836558e-01,1.10738e-01,9.99999e-01,1.10738e-01,9.99999e-01
7.169505741e-01,1.15658e-01,9.99999e-01,1.15658e-01,9.99999e-01
7.205353270e-01,1.20692e-01,9.99999e-01,1.20692e-01,9.99999e-01
7.241380036e-01,1.25840e-01,9.99999e-01,1.25840e-01,9.99999e-01
7.277586936e-01,1.31099e-01,9.99999e-01,1.31099e-01,9.99999e-01
7.313974871e-01,1.36467e-01,9.99999e-01,1.36467e-01,9.99999e-01
7.350544745e-01,1.41943e-01,9.99999e-01,1.41943e-01,9.99999e-01
7.387297469e-01,1.47524e-01,9.99999e-01,1.47524e-01,9.99999e-01
7.424233956e-01,1.53207e-01,9.99999e-01,1.53207e-01,9.99999e-01
7.461355126e-01,1.58991e-01,9.99999e-01,1.58991e-01,9.99999e-01
7.498661902e-01,1.64872e-01,9.99999e-01,1.64872e-01,9.99999e-01
7.536155211e-01,1.70848e-01,9.99999e-01,1.70848e-01,9.99999e-01
7.573835987e-01,1.76916e-01,9.99999e-01,1.76916e-01,9.99999e-01
7.611705167e-01,1.83074e-01,9.99999e-01,1.83074e-01,9.99999e-01
7.649763693e-01,1.89318e-01,9.99999e-01,1.89318e-01,9.99999e-01
7.688012511e-01,1.95645e-01,9.99999e-01,1.95645e-01,9.99999e-01
7.726452574e-01,2.02052e-01,9.99999e-01,2.02052e-01,9.99999e-01
7.765084837e-01,2.07546e-01,9.95250e-01,2.08537e-01,9.99999e-01
7.803910261e-01,1.58305e-01,7.35977e-01,2.15095e-01,9.99999e-01
7.842929812e-01,1.74621e-01,7.87558e-01,2.21724e-01,9.99999e-01
7.882144461e-01,1.75850e-01,7.69852e-01,2.28420e-01,9.99999e-01
7.921555184e-01,1.97003e-01,8.37668e-01,2.35180e-01,9.99999e-01
7.961162960e-01,2.18308e-01,9.02094e-01,2.42001e-01,9.99999e-01
8.000968774e-01,2.35999e-01,9.48246e-01,2.48879e-01,9.99999e-01
8.040973618e-01,2.49661e-01,9.75959e-01,2.55811e-01,9.99999e-01
8.081178486e-01,2.60283e-01,9.90447e-01,2.62793e-01,9.99999e-01
8.121584379e-01,2.69135e-01,9.97453e-01,2.69822e-01,9.99999e-01
8.162192301e-01,2.76848e-01,9.99827e-01,2.76895e-01,9.99999e-01
8.203003262e-01,2.84008e-01,9.99999e-01,2.84008e-01,9.99999e-01
8.244018279e-01,2.91158e-01,9.99999e-01,2.91158e-01,9.99999e-01
8.285238370e-01,2.98342e-01,9.99999e-01,2.98342e-01,9.99999e-01
8.326664562e-01,3.05555e-01,9.99999e-01,3.05555e-01,9.99999e-01
8.368297885e-01,3.12796e-01,9.99999e-01,3.12796e-01,9.99999e-01
8.410139374e-01,3.20059e-01,9.99999e-01,3.20059e-01,9.99999e-01
8.452190071e-01,3.27343e-01,9.99999e-01,3.27343e-01,9.99999e-01
8.494451021e-01,3.34644e-01,9.99999e-01,3.34644e-01,9.99999e-01
8.536923276e-01,3.41959e-01,9.99999e-01,3.41959e-01,9.99999e-01
8.579607893e-01,3.49284e-01,9.99999e-01,3.49284e-01,9.99999e-01
8.622505932e-01,3.55895e-01,9.97975e-01,3.56617e-01,9.99999e-01
8.665618462e-01,1.79426e-01,4.92990e-01,3.63955e-01,9.99999e-01
8.708946554e-01,1.65759e-01,4.46436e-01,3.71294e-01,9.99999e-01
8.752491287e-01,2.26205e-01,5.97426e-01,3.78632e-01,9.99999e-01
8.796253743e-01,2.99752e-01,7.76629e-01,3.85965e-01,9.99999e-01
8.840235012e-01,3.51549e-01,8.93861e-01,3.93292e-01,9.99999e-01
8.884436187e-01,3.83199e-01,9.56540e-01,4.00609e-01,9.99999e-01
8.928858368e-01,4.02470e-01,9.86657e-01,4.07913e-01,9.99999e-01
8.973502660e-01,4.14127e-01,9.97409e-01,4.15202e-01,9.99999e-01
9.018370173e-01,4.21645e-01,9.98037e-01,4.22474e-01,9.99999e-01
9.063462024e-01,4.07829e-01,9.49043e-01,4.29726e-01,9.99999e-01
9.108779334e-01,4.26834e-01,9.76835e-01,4.36955e-01,9.99999e-01
9.154323231e-01,4.28806e-01,9.65432e-01,4.44160e-01,9.99999e-01
9.200094847e-01,3.46055e-01,7.66733e-01,4.51337e-01,9.99999e-01
9.246095321e-01,3.82796e-01,8.34913e-01,4.58485e-01,9.99999e-01
9.292325798e-01,3.81715e-01,8.19830e-01,4.65602e-01,9.99999e-01
9.338787427e-01,4.01091e-01,8.48535e-01,4.72686e-01,9.99999e-01
9.385481364e-01,4.38385e-01,9.13807e-01,4.79734e-01,9.99999e-01
9.432408771e-01,4.60846e-01,9.46789e-01,4.86745e-01,9.99999e-01
9.479570815e-01,4.79462e-01,9.71125e-01,4.93717e-01,9.99999e-01
9.526968669e-01,4.94368e-01,9.87455e-01,5.00648e-01,9.99999e-01
9.574603512e-01,5.05303e-01,9.95598e-01,5.07537e-01,9.99999e-01
9.622476530e-01,5.13649e-01,9.98576e-01,5.14382e-01,9.99999e-01
9.670588912e-01,5.21066e-01,9.99779e-01,5.21181e-01,9.99999e-01
9.718941857e-01,5.27932e-01,9.99998e-01,5.27933e-01,9.99999e-01
9.767536566e-01,5.34636e-01,9.99999e-01,5.34636e-01,9.99999e-01
9.816374249e-01,5.41290e-01,9.99999e-01,5.41290e-01,9.99999e-01
9.865456120e-01,5.47892e-01,9.99999e-01,5.47892e-01,9.99999e-01
9.914783401e-01,5.54443e-01,9.99999e-01,5.54443e-01,9.99999e-01
9.964357318e-01,5.60940e-01,9.99999e-01,5.60940e-01,9.99999e-01
1.001417910e+00,5.67382e-01,9.99999e-01,5.67382e-01,9.99999e-01
1.006425000e+00,5.73769e-01,9.99999e-01,5.73769e-01,9.99999e-01
1.011457125e+00,5.80100e-01,9.99999e-01,5.80100e-01,9.99999e-01
1.016514411e+00,5.86372e-01,9.99997e-01,5.86373e-01,9.99999e-01
1.021596983e+00,5.91326e-01,9.97869e-01,5.92588e-01,9.99999e-01
1.026704968e+00,5.88652e-01,9.83143e-01,5.98745e-01,9.99999e-01
1.031838492e+00,2.32877e-01,3.85021e-01,6.04842e-01,9.99999e-01
1.036997685e+00,2.19839e-03,3.59873e-03,6.10879e-01,9.99999e-01
1.042182673e+00,2.74402e-02,4.44839e-02,6.16855e-01,9.99999e-01
1.047393587e+00,1.62182e-03,2.60421e-03,6.22769e-01,9.99999e-01
1.052630555e+00,2.29018e-05,3.64317e-05,6.28622e-01,9.99999e-01
1.057893707e+00,1.38836e-04,2.18841e-04,6.34413e-01,9.99999e-01
1.063183176e+00,2.63882e-03,4.12225e-03,6.40141e-01,9.99999e-01
1.068499092e+00,2.13071e-02,3.29930e-02,6.45806e-01,9.99999e-01
1.073841587e+00,5.00064e-02,7.67666e-02,6.51408e-01,9.99999e-01
1.079210795e+00,1.65133e-01,2.51364e-01,6.56947e-01,9.99999e-01
1.084606849e+00,2.99324e-01,4.51862e-01,6.62421e-01,9.99999e-01
1.090029883e+00,4.51865e-01,6.76615e-01,6.67832e-01,9.99999e-01
1.095480033e+00,5.55208e-01,8.24755e-01,6.73179e-01,9.99999e-01
1.100957433e+00,6.25118e-01,9.21374e-01,6.78462e-01,9.99999e-01
1.106462220e+00,6.61036e-01,9.66877e-01,6.83680e-01,9.99999e-01
1.111994531e+00,6.82127e-01,9.90261e-01,6.88835e-01,9.99999e-01
1.117554504e+00,6.92812e-01,9.98394e-01,6.93926e-01,9.99999e-01
1.123142276e+00,6.98946e-01,9.99990e-01,6.98952e-01,9.99999e-01
1.128757988e+00,7.03914e-01,9.99999e-01,7.03914e-01,9.99999e-01
1.134401778e+00,7.08813e-01,9.99999e-01,7.08813e-01,9.99999e-01
1.140073787e+00,7.13648e-01,9.99999e-01,7.13648e-01,9.99999e-01
1.145774156e+00,7.18419e-01,9.99999e-01,7.18419e-01,9.99999e-01
1.151503026e+00,7.23128e-01,9.99999e-01,7.23128e-01,9.99999e-01
1.157260541e+00,7.27773e-01,9.99999e-01,7.27773e-01,9.99999e-01
1.163046844e+00,7.32355e-01,9.99999e-01,7.32355e-01,9.99999e-01
1.168862078e+00,7.36875e-01,9.99999e-01,7.36875e-01,9.99999e-01
1.174706389e+00,7.41333e-01,9.99999e-01,7.41333e-01,9.99999e-01
1.180579921e+00,7.45728e-01,9.99999e-01,7.45728e-01,9.99999e-01
1.186482820e+00,7.47954e-01,9.97188e-01,7.50063e-01,9.99999e-01
1.192415234e+00,6.99688e-01,9.27554e-01,7.54336e-01,9.99999e-01
1.198377311e+00,5.94648e-02,7.83929e-02,7.58548e-01,9.99999e-01
1.204369197e+00,1.78238e-110,2.33693e-110,7.62700e-01,9.99999e-01
1.210391043e+00,3.79121e-84,4.94425e-84,7.66792e-01,9.99999e-01
1.216442998e+00,1.93395e-73,2.50893e-73,7.70824e-01,9.99999e-01
1.222525213e+00,6.76991e-57,8.73765e-57,7.74798e-01,9.99999e-01
1.228637839e+00,2.83024e-43,3.63451e-43,7.78712e-01,9.99999e-01
1.234781029e+00,7.86560e-29,1.00510e-28,7.82569e-01,9.99999e-01
1.240954934e+00,1.08753e-17,1.38298e-17,7.86368e-01,9.99999e-01
1.247159708e+00,8.84595e-09,1.11958e-08,7.90110e-01,9.99999e-01
1.253395507e+00,2.05028e-06,2.58288e-06,7.93795e-01,9.99999e-01
1.259662485e+00,6.70674e-04,8.41050e-04,7.97424e-01,9.99999e-01
1.265960797e+00,2.59478e-02,3.23943e-02,8.00998e-01,9.99999e-01
1.272290601e+00,1.08410e-01,1.34751e-01,8.04516e-01,9.99999e-01
1.278652054e+00,9.68466e-03,1.19862e-02,8.07980e-01,9.99999e-01
1.285045314e+00,2.58368e-08,3.18426e-08,8.11390e-01,9.99999e-01
1.291470541e+00,1.46979e-08,1.80398e-08,8.14747e-01,9.99999e-01
1.297927893e+00,4.50009e-03,5.50099e-03,8.18051e-01,9.99999e-01
1.304417533e+00,8.78064e-03,1.06911e-02,8.21302e-01,9.99999e-01
1.310939621e+00,5.09079e-05,6.17438e-05,8.24502e-01,9.99999e-01
1.317494319e+00,1.67149e-27,2.01955e-27,8.27651e-01,9.99999e-01
1.324081790e+00,3.07287e-12,3.69891e-12,8.30749e-01,9.99999e-01
1.330702199e+00,3.97507e-12,4.76743e-12,8.33797e-01,9.99999e-01
1.337355710e+00,5.36643e-11,6.41306e-11,8.36796e-01,9.99999e-01
1.344042489e+00,1.16907e-13,1.39216e-13,8.39746e-01,9.99999e-01
1.350762701e+00,3.81143e-09,4.52315e-09,8.42648e-01,9.99999e-01
1.357516515e+00,2.92050e-06,3.45415e-06,8.45503e-01,9.99999e-01
1.364304097e+00,7.60329e-04,8.96286e-04,8.48310e-01,9.99999e-01
1.371125618e+00,5.27096e-03,6.19332e-03,8.51071e-01,9.99999e-01
1.377981246e+00,3.84453e-02,4.50291e-02,8.53787e-01,9.99999e-01
1.384871152e+00,5.03984e-02,5.88452e-02,8.56457e-01,9.99999e-01
1.391795508e+00,1.43045e-01,1.66509e-01,8.59082e-01,9.99999e-01
1.398754485e+00,2.07573e-01,2.40898e-01,8.61663e-01,9.99999e-01
1.405748258e+00,3.56251e-01,4.12231e-01,8.64201e-01,9.99999e-01
1.412776999e+00,4.73563e-01,5.46400e-01,8.66696e-01,9.99999e-01
1.419840884e+00,7.36019e-02,8.46826e-02,8.69149e-01,9.99999e-01
1.426940089e+00,1.17942e-186,1.35323e-186,8.71560e-01,9.99999e-01
1.434074789e+00,0.00000e+00,0.00000e+00,8.73929e-01,9.99999e-01
1.441245163e+00,0.00000e+00,0.00000e+00,8.76259e-01,9.99999e-01
1.448451389e+00,0.00000e+00,0.00000e+00,8.78548e-01,9.99999e-01
1.455693646e+00,0.00000e+00,0.00000e+00,8.80798e-01,9.99999e-01
1.462972114e+00,2.49132e-202,2.82139e-202,8.83009e-01,9.99999e-01
1.470286975e+00,3.00953e-133,3.39990e-133,8.85182e-01,9.99999e-01
1.477638409e+00,7.69779e-64,8.67535e-64,8.87317e-01,9.99999e-01
1.485026601e+00,1.15438e-49,1.29791e-49,8.89414e-01,9.99999e-01
1.492451734e+00,4.68954e-26,5.26042e-26,8.91476e-01,9.99999e-01
1.499913993e+00,1.41231e-17,1.58064e-17,8.93501e-01,9.99999e-01
1.507413563e+00,4.12474e-18,4.60612e-18,8.95490e-01,9.99999e-01
1.514950631e+00,2.12234e-37,2.36486e-37,8.97445e-01,9.99999e-01
1.522525384e+00,2.60591e-102,2.89750e-102,8.99365e-01,9.99999e-01
1.530138011e+00,4.75160e-113,5.27222e-113,9.01251e-01,9.99999e-01
1.537788701e+00,1.98398e-49,2.19684e-49,9.03104e-01,9.99999e-01
1.545477645e+00,3.34506e-18,3.69651e-18,9.04924e-01,9.99999e-01
1.553205033e+00,3.02986e-17,3.34159e-17,9.06711e-01,9.99999e-01
1.560971058e+00,6.22555e-48,6.85280e-48,9.08467e-01,9.99999e-01
1.568775913e+00,0.00000e+00,0.00000e+00,9.10191e-01,9.99999e-01
1.576619793e+00,0.00000e+00,0.00000e+00,9.11885e-01,9.99999e-01
1.584502892e+00,0.00000e+00,0.00000e+00,9.13548e-01,9.99999e-01
1.592425406e+00,0.00000e+00,0.00000e+00,9.15181e-01,9.99999e-01
1.600387533e+00,0.00000e+00,0.00000e+00,9.16784e-01,9.99999e-01
1.608389471e+00,0.00000e+00,0.00000e+00,9.18359e-01,9.99999e-01
1.616431418e+00,0.00000e+00,0.00000e+00,9.19905e-01,9.99999e-01
1.624513575e+00,0.00000e+00,0.00000e+00,9.21423e-01,9.99999e-01
1.632636143e+00,2.06219e-174,2.23443e-174,9.22914e-01,9.99999e-01
1.640799324e+00,6.30530e-132,6.82113e-132,9.24377e-01,9.99999e-01
1.649003321e+00,3.41286e-103,3.68633e-103,9.25814e-01,9.99999e-01
1.657248337e+00,5.63632e-102,6.07869e-102,9.27225e-01,9.99999e-01
1.665534579e+00,2.68278e-72,2.88903e-72,9.28610e-01,9.99999e-01
1.673862252e+00,1.23421e-57,1.32715e-57,9.29969e-01,9.99999e-01
1.682231563e+00,3.45056e-31,3.70508e-31,9.31304e-01,9.99999e-01
1.690642721e+00,3.47754e-20,3.72880e-20,9.32614e-01,9.99999e-01
1.699095934e+00,1.84402e-10,1.97453e-10,9.33900e-01,9.99999e-01
1.707591414e+00,1.54556e-06,1.65271e-06,9.35162e-01,9.99999e-01
1.716129371e+00,5.89523e-04,6.29561e-04,9.36402e-01,9.99999e-01
1.724710018e+00,9.61309e-03,1.02527e-02,9.37618e-01,9.99999e-01
1.733333568e+00,6.59108e-02,7.02066e-02,9.38811e-01,9.99999e-01
1.742000236e+00,2.61519e-02,2.78216e-02,9.39983e-01,9.99999e-01
1.750710237e+00,1.45915e-09,1.55041e-09,9.41133e-01,9.99999e-01
1.759463788e+00,6.19930e-65,6.57917e-65,9.42261e-01,9.99999e-01
1.768261107e+00,6.55963e-64,6.95340e-64,9.43369e-01,9.99999e-01
1.777102413e+00,7.48262e-64,7.92268e-64,9.44456e-01,9.99999e-01
1.785987925e+00,5.91644e-57,6.25732e-57,9.45522e-01,9.99999e-01
1.794917864e+00,4.25145e-58,4.49142e-58,9.46569e-01,9.99999e-01
1.803892454e+00,1.31625e-52,1.38904e-52,9.47596e-01,9.99999e-01
1.812911916e+00,7.18614e-63,7.57548e-63,9.48604e-01,9.99999e-01
1.821976476e+00,6.87421e-46,7.23910e-46,9.49594e-01,9.99999e-01
1.831086358e+00,5.11133e-42,5.37715e-42,9.50564e-01,9.99999e-01
1.840241790e+00,1.17464e-25,1.23449e-25,9.51517e-01,9.99999e-01
1.849442999e+00,1.54875e-24,1.62606e-24,9.52451e-01,9.99999e-01
1.858690214e+00,1.15267e-23,1.20905e-23,9.53368e-01,9.99999e-01
1.867983665e+00,1.46691e-37,1.53721e-37,9.54268e-01,9.99999e-01
1.877323583e+00,7.93692e-121,8.30959e-121,9.55150e-01,9.99999e-01
