#,Wave/freq,Total,CO2,Rayleigh,CIA
4.000000000e-01,3.24006e-02,9.99999e-01,3.24006e-02,9.99999e-01
4.020000000e-01,3.46706e-02,9.99999e-01,3.46706e-02,9.99999e-01
4.040100000e-01,3.70510e-02,9.99999e-01,3.70510e-02,9.99999e-01
4.060300500e-01,3.95430e-02,9.99999e-01,3.95430e-02,9.99999e-01
4.080602003e-01,4.21484e-02,9.99999e-01,4.21484e-02,9.99999e-01
4.101005013e-01,4.48689e-02,9.99999e-01,4.48689e-02,9.99999e-01
4.121510038e-01,4.77060e-02,9.99999e-01,4.77060e-02,9.99999e-01
4.142117588e-01,5.06611e-02,9.99999e-01,5.06611e-02,9.99999e-01
4.162828176e-01,5.37354e-02,9.99999e-01,5.37354e-02,9.99999e-01
4.183642317e-01,5.69299e-02,9.99999e-01,5.69299e-02,9.99999e-01
4.204560528e-01,6.02457e-02,9.99999e-01,6.02457e-02,9.99999e-01
4.225583331e-01,6.36832e-02,9.99999e-01,6.36832e-02,9.99999e-01
4.246711247e-01,6.72432e-02,9.99999e-01,6.72432e-02,9.99999e-01
4.267944804e-01,7.09260e-02,9.99999e-01,7.09260e-02,9.99999e-01
4.289284528e-01,7.47317e-02,9.99999e-01,7.47317e-02,9.99999e-01
4.310730950e-01,7.86604e-02,9.99999e-01,7.86604e-02,9.99999e-01
4.332284605e-01,8.27118e-02,9.99999e-01,8.27118e-02,9.99999e-01
4.353946028e-01,8.68857e-02,9.99999e-01,8.68857e-02,9.99999e-01
4.375715758e-01,9.11815e-02,9.99999e-01,9.11815e-02,9.99999e-01
4.397594337e-01,9.55985e-02,9.99999e-01,9.55985e-02,9.99999e-01
4.419582309e-01,1.00136e-01,9.99999e-01,1.00136e-01,9.99999e-01
4.441680220e-01,1.04793e-01,9.99999e-01,1.04793e-01,9.99999e-01
4.463888621e-01,1.09567e-01,9.99999e-01,1.09567e-01,9.99999e-01
4.486208064e-01,1.14459e-01,9.99999e-01,1.14459e-01,9.99999e-01
4.508639105e-01,1.19466e-01,9.99999e-01,1.19466e-01,9.99999e-01
4.531182300e-01,1.24586e-01,9.99999e-01,1.24586e-01,9.99999e-01
4.553838212e-01,1.29819e-01,9.99999e-01,1.29819e-01,9.99999e-01
4.576607403e-01,1.35161e-01,9.99999e-01,1.35161e-01,9.99999e-01
4.599490440e-01,1.40611e-01,9.99999e-01,1.40611e-01,9.99999e-01
4.622487892e-01,1.46166e-01,9.99999e-01,1.46166e-01,9.99999e-01
4.645600332e-01,1.51825e-01,9.99999e-01,1.51825e-01,9.99999e-01
4.668828333e-01,1.57585e-01,9.99999e-01,1.57585e-01,9.99999e-01
4.692172475e-01,1.63443e-01,9.99999e-01,1.63443e-01,9.99999e-01
4.715633337e-01,1.69396e-01,9.99999e-01,1.69396e-01,9.99999e-01
4.739211504e-01,1.75442e-01,9.99999e-01,1.75442e-01,9.99999e-01
4.762907561e-01,1.81579e-01,9.99999e-01,1.81579e-01,9.99999e-01
4.786722099e-01,1.87802e-01,9.99999e-01,1.87802e-01,9.99999e-01
4.810655710e-01,1.94109e-01,9.99999e-01,1.94109e-01,9.99999e-01
4.834708988e-01,2.00498e-01,9.99999e-01,2.00498e-01,9.99999e-01
4.858882533e-01,2.06964e-01,9.99999e-01,2.06964e-01,9.99999e-01
4.883176946e-01,2.13505e-01,9.99999e-01,2.13505e-01,9.99999e-01
4.907592831e-01,2.20117e-01,9.99999e-01,2.20117e-01,9.99999e-01
4.932130795e-01,2.26797e-01,9.99999e-01,2.26797e-01,9.99999e-01
4.956791449e-01,2.33542e-01,9.99999e-01,2.33542e-01,9.99999e-01
4.981575406e-01,2.40348e-01,9.99999e-01,2.40348e-01,9.99999e-01
5.006483283e-01,2.47213e-01,9.99999e-01,2.47213e-01,9.99999e-01
5.031515699e-01,2.54132e-01,9.99999e-01,2.54132e-01,9.99999e-01
5.056673278e-01,2.61102e-01,9.99999e-01,2.61102e-01,9.99999e-01
5.081956644e-01,2.68121e-01,9.99999e-01,2.68121e-01,9.99999e-01
5.107366428e-01,2.75183e-01,9.99999e-01,2.75183e-01,9.99999e-01
5.132903260e-01,2.82287e-01,9.99999e-01,2.82287e-01,9.99999e-01
5.158567776e-01,2.89429e-01,9.99999e-01,2.89429e-01,9.99999e-01
5.184360615e-01,2.96604e-01,9.99999e-01,2.96604e-01,9.99999e-01
5.210282418e-01,3.03811e-01,9.99999e-01,3.03811e-01,9.99999e-01
5.236333830e-01,3.11045e-01,9.99999e-01,3.11045e-01,9.99999e-01
5.262515499e-01,3.18303e-01,9.99999e-01,3.18303e-01,9.99999e-01
5.288828077e-01,3.25582e-01,9.99999e-01,3.25582e-01,9.99999e-01
5.315272217e-01,3.32880e-01,9.99999e-01,3.32880e-01,9.99999e-01
5.341848578e-01,3.40191e-01,9.99999e-01,3.40191e-01,9.99999e-01
5.368557821e-01,3.47514e-01,9.99999e-01,3.47514e-01,9.99999e-01
5.395400610e-01,3.54846e-01,9.99999e-01,3.54846e-01,9.99999e-01
5.422377613e-01,3.62183e-01,9.99999e-01,3.62183e-01,9.99999e-01
5.449489501e-01,3.69522e-01,9.99999e-01,3.69522e-01,9.99999e-01
5.476736949e-01,3.76860e-01,9.99999e-01,3.76860e-01,9.99999e-01
5.504120634e-01,3.84195e-01,9.99999e-01,3.84195e-01,9.99999e-01
5.531641237e-01,3.91523e-01,9.99999e-01,3.91523e-01,9.99999e-01
5.559299443e-01,3.98843e-01,9.99999e-01,3.98843e-01,9.99999e-01
5.587095940e-01,4.06150e-01,9.99999e-01,4.06150e-01,9.99999e-01
5.615031420e-01,4.13444e-01,9.99999e-01,4.13444e-01,9.99999e-01
5.643106577e-01,4.20720e-01,9.99999e-01,4.20720e-01,9.99999e-01
5.671322110e-01,4.27977e-01,9.99999e-01,4.27977e-01,9.99999e-01
5.699678720e-01,4.35211e-01,9.99999e-01,4.35211e-01,9.99999e-01
5.728177114e-01,4.42422e-01,9.99999e-01,4.42422e-01,9.99999e-01
5.756818000e-01,4.49606e-01,9.99999e-01,4.49606e-01,9.99999e-01
5.785602090e-01,4.56762e-01,9.99999e-01,4.56762e-01,9.99999e-01
5.814530100e-01,4.63887e-01,9.99999e-01,4.63887e-01,9.99999e-01
5.843602750e-01,4.70978e-01,9.99999e-01,4.70978e-01,9.99999e-01
5.872820764e-01,4.78035e-01,9.99999e-01,4.78035e-01,9.99999e-01
5.902184868e-01,4.85056e-01,9.99999e-01,4.85056e-01,9.99999e-01
5.931695792e-01,4.92037e-01,9.99999e-01,4.92037e-01,9.99999e-01
5.961354271e-01,4.98978e-01,9.99999e-01,4.98978e-01,9.99999e-01
5.991161043e-01,5.05877e-01,9.99999e-01,5.05877e-01,9.99999e-01
6.021116848e-01,5.12733e-01,9.99999e-01,5.12733e-01,9.99999e-01
6.051222432e-01,5.19543e-01,9.99999e-01,5.19543e-01,9.99999e-01
6.081478544e-01,5.26306e-01,9.99999e-01,5.26306e-01,9.99999e-01
6.111885937e-01,5.33022e-01,9.99999e-01,5.33022e-01,9.99999e-01
6.142445367e-01,5.39687e-01,9.99999e-01,5.39687e-01,9.99999e-01
6.173157594e-01,5.46303e-01,9.99999e-01,5.46303e-01,9.99999e-01
6.204023382e-01,5.52866e-01,9.99999e-01,5.52866e-01,9.99999e-01
6.235043498e-01,5.59375e-01,9.99999e-01,5.59375e-01,9.99999e-01
6.266218716e-01,5.65831e-01,9.99999e-01,5.65831e-01,9.99999e-01
6.297549810e-01,5.72232e-01,9.99999e-01,5.72232e-01,9.99999e-01
6.329037559e-01,5.78576e-01,9.99999e-01,5.78576e-01,9.99999e-01
6.360682746e-01,5.84863e-01,9.99999e-01,5.84863e-01,9.99999e-01
6.392486160e-01,5.91093e-01,9.99999e-01,5.91093e-01,9.99999e-01
6.424448591e-01,5.97264e-01,9.99999e-01,5.97264e-01,9.99999e-01
6.456570834e-01,6.03375e-01,9.99999e-01,6.03375e-01,9.99999e-01
6.488853688e-01,6.09426e-01,9.99999e-01,6.09426e-01,9.99999e-01
6.521297956e-01,6.15417e-01,9.99999e-01,6.15417e-01,9.99999e-01
6.553904446e-01,6.21347e-01,9.99999e-01,6.21347e-01,9.99999e-01
6.586673968e-01,6.27215e-01,9.99999e-01,6.27215e-01,9.99999e-01
6.619607338e-01,6.33020e-01,9.99999e-01,6.33020e-01,9.99999e-01
6.652705375e-01,6.38764e-01,9.99999e-01,6.38764e-01,9.99999e-01
6.685968902e-01,6.44444e-01,9.99999e-01,6.44444e-01,9.99999e-01
6.719398746e-01,6.50061e-01,9.99999e-01,6.50061e-01,9.99999e-01
6.752995740e-01,6.55615e-01,9.99999e-01,6.55615e-01,9.99999e-01
6.786760719e-01,6.61105e-01,9.99999e-01,6.61105e-01,9.99999e-01
6.820694522e-01,6.66531e-01,9.99999e-01,6.66531e-01,9.99999e-01
6.854797995e-01,6.71894e-01,9.99999e-01,6.71894e-01,9.99999e-01
6.889071985e-01,6.77192e-01,9.99999e-01,6.77192e-01,9.99999e-01
6.923517345e-01,6.82426e-01,9.99999e-01,6.82426e-01,9.99999e-01
6.958134932e-01,6.87596e-01,9.99999e-01,6.87596e-01,9.99999e-01
6.992925606e-01,6.92702e-01,9.99999e-01,6.92702e-01,9.99999e-01
7.027890234e-01,6.97744e-01,9.99999e-01,6.97744e-01,9.99999e-01
7.063029686e-01,7.02722e-01,9.99999e-01,7.02722e-01,9.99999e-01
7.098344834e-01,7.07636e-01,9.99999e-01,7.07636e-01,9.99999e-01
7.133836558e-01,7.12486e-01,9.99999e-01,7.12486e-01,9.99999e-01
7.169505741e-01,7.17273e-01,9.99999e-01,7.17273e-01,9.99999e-01
7.205353270e-01,7.21996e-01,9.99999e-01,7.21996e-01,9.99999e-01
7.241380036e-01,7.26657e-01,9.99999e-01,7.26657e-01,9.99999e-01
7.277586936e-01,7.31254e-01,9.99999e-01,7.31254e-01,9.99999e-01
7.313974871e-01,7.35789e-01,9.99999e-01,7.35789e-01,9.99999e-01
7.350544745e-01,7.40262e-01,9.99999e-01,7.40262e-01,9.99999e-01
7.387297469e-01,7.44672e-01,9.99999e-01,7.44672e-01,9.99999e-01
7.424233956e-01,7.49022e-01,9.99999e-01,7.49022e-01,9.99999e-01
7.461355126e-01,7.53309e-01,9.99999e-01,7.53309e-01,9.99999e-01
7.498661902e-01,7.57536e-01,9.99999e-01,7.57536e-01,9.99999e-01
7.536155211e-01,7.61703e-01,9.99999e-01,7.61703e-01,9.99999e-01
7.573835987e-01,7.65809e-01,9.99999e-01,7.65809e-01,9.99999e-01
7.611705167e-01,7.69856e-01,9.99999e-01,7.69856e-01,9.99999e-01
7.649763693e-01,7.73843e-01,9.99999e-01,7.73843e-01,9.99999e-01
7.688012511e-01,7.77772e-01,9.99999e-01,7.77772e-01,9.99999e-01
7.726452574e-01,7.81643e-01,9.99999e-01,7.81643e-01,9.99999e-01
7.765084837e-01,7.84845e-01,9.99221e-01,7.85456e-01,9.99999e-01
7.803910261e-01,7.47979e-01,9.47754e-01,7.89211e-01,9.99999e-01
7.842929812e-01,7.63424e-01,9.62811e-01,7.92910e-01,9.99999e-01
7.882144461e-01,7.63742e-01,9.58808e-01,7.96553e-01,9.99999e-01
7.921555184e-01,7.78246e-01,9.72637e-01,8.00140e-01,9.99999e-01
7.961162960e-01,7.90954e-01,9.84174e-01,8.03671e-01,9.99999e-01
8.000968774e-01,8.00556e-01,9.91831e-01,8.07149e-01,9.99999e-01
8.040973618e-01,8.07536e-01,9.96254e-01,8.10572e-01,9.99999e-01
8.081178486e-01,8.12737e-01,9.98520e-01,8.13941e-01,9.99999e-01
8.121584379e-01,8.16936e-01,9.99606e-01,8.17258e-01,9.99999e-01
8.162192301e-01,8.20500e-01,9.99972e-01,8.20522e-01,9.99999e-01
8.203003262e-01,8.23734e-01,9.99999e-01,8.23734e-01,9.99999e-01
8.244018279e-01,8.26895e-01,9.99999e-01,8.26895e-01,9.99999e-01
8.285238370e-01,8.30005e-01,9.99999e-01,8.30005e-01,9.99999e-01
8.326664562e-01,8.33066e-01,9.99999e-01,8.33066e-01,9.99999e-01
8.368297885e-01,8.36077e-01,9.99999e-01,8.36077e-01,9.99999e-01
8.410139374e-01,8.39038e-01,9.99999e-01,8.39038e-01,9.99999e-01
8.452190071e-01,8.41952e-01,9.99999e-01,8.41952e-01,9.99999e-01
8.494451021e-01,8.44818e-01,9.99999e-01,8.44818e-01,9.99999e-01
8.536923276e-01,8.47637e-01,9.99999e-01,8.47637e-01,9.99999e-01
8.579607893e-01,8.50409e-01,9.99999e-01,8.50409e-01,9.99999e-01
8.622505932e-01,8.52864e-01,9.99682e-01,8.53135e-01,9.99999e-01
8.665618462e-01,7.37987e-01,8.62319e-01,8.55816e-01,9.99999e-01
8.708946554e-01,7.48588e-01,8.72020e-01,8.58452e-01,9.99999e-01
8.752491287e-01,7.93985e-01,9.22119e-01,8.61044e-01,9.99999e-01
8.796253743e-01,8.30425e-01,9.61593e-01,8.63592e-01,9.99999e-01
8.840235012e-01,8.51200e-01,9.82799e-01,8.66097e-01,9.99999e-01
8.884436187e-01,8.62628e-01,9.93169e-01,8.68560e-01,9.99999e-01
8.928858368e-01,8.69178e-01,9.97929e-01,8.70981e-01,9.99999e-01
8.973502660e-01,8.73012e-01,9.99599e-01,8.73361e-01,9.99999e-01
9.018370173e-01,8.75430e-01,9.99690e-01,8.75700e-01,9.99999e-01
9.063462024e-01,8.70897e-01,9.91911e-01,8.77999e-01,9.99999e-01
9.108779334e-01,8.77077e-01,9.96385e-01,8.80258e-01,9.99999e-01
9.154323231e-01,8.76802e-01,9.93567e-01,8.82478e-01,9.99999e-01
9.200094847e-01,8.48334e-01,9.58937e-01,8.84660e-01,9.99999e-01
9.246095321e-01,8.62380e-01,9.72457e-01,8.86804e-01,9.99999e-01
9.292325798e-01,8.61235e-01,9.68864e-01,8.88911e-01,9.99999e-01
9.338787427e-01,8.68489e-01,9.74755e-01,8.90981e-01,9.99999e-01
9.385481364e-01,8.80660e-01,9.86164e-01,8.93015e-01,9.99999e-01
9.432408771e-01,8.87486e-01,9.91588e-01,8.95013e-01,9.99999e-01
9.479570815e-01,8.92932e-01,9.95490e-01,8.96976e-01,9.99999e-01
9.526968669e-01,8.97157e-01,9.98055e-01,8.98905e-01,9.99999e-01
9.574603512e-01,9.00187e-01,9.99320e-01,9.00799e-01,9.99999e-01
9.622476530e-01,9.02462e-01,9.99780e-01,9.02660e-01,9.99999e-01
9.670588912e-01,9.04457e-01,9.99965e-01,9.04487e-01,9.99999e-01
9.718941857e-01,9.06283e-01,9.99999e-01,9.06283e-01,9.99999e-01
9.767536566e-01,9.08046e-01,9.99999e-01,9.08046e-01,9.99999e-01
9.816374249e-01,9.09778e-01,9.99999e-01,9.09778e-01,9.99999e-01
9.865456120e-01,9.11478e-01,9.99999e-01,9.11478e-01,9.99999e-01
9.914783401e-01,9.13149e-01,9.99999e-01,9.13149e-01,9.99999e-01
9.964357318e-01,9.14789e-01,9.99999e-01,9.14789e-01,9.99999e-01
1.001417910e+00,9.16400e-01,9.99999e-01,9.16400e-01,9.99999e-01
1.006425000e+00,9.17981e-01,9.99999e-01,9.17981e-01,9.99999e-01
1.011457125e+00,9.19534e-01,9.99999e-01,9.19534e-01,9.99999e-01
1.016514411e+00,9.21059e-01,9.99999e-01,9.21059e-01,9.99999e-01
1.021596983e+00,9.22253e-01,9.99670e-01,9.22556e-01,9.99999e-01
1.026704968e+00,9.21576e-01,9.97347e-01,9.24026e-01,9.99999e-01
1.031838492e+00,6.24406e-01,6.74690e-01,9.25470e-01,9.99999e-01
1.036997685e+00,3.39157e-01,3.65909e-01,9.26887e-01,9.99999e-01
1.042182673e+00,5.24573e-01,5.65102e-01,9.28278e-01,9.99999e-01
1.047393587e+00,1.46810e-01,1.57920e-01,9.29643e-01,9.99999e-01
1.052630555e+00,1.16319e-01,1.24942e-01,9.30984e-01,9.99999e-01
1.057893707e+00,1.99719e-01,2.14222e-01,9.32300e-01,9.99999e-01
1.063183176e+00,3.72394e-01,3.98883e-01,9.33592e-01,9.99999e-01
1.068499092e+00,5.08995e-01,5.44461e-01,9.34860e-01,9.99999e-01
1.073841587e+00,6.14756e-01,6.56717e-01,9.36104e-01,9.99999e-01
1.079210795e+00,7.50902e-01,8.01110e-01,9.37326e-01,9.99999e-01
1.084606849e+00,8.28521e-01,8.82790e-01,9.38525e-01,9.99999e-01
1.090029883e+00,8.84237e-01,9.40975e-01,9.39702e-01,9.99999e-01
1.095480033e+00,9.13212e-01,9.70616e-01,9.40857e-01,9.99999e-01
1.100957433e+00,9.30142e-01,9.87421e-01,9.41991e-01,9.99999e-01
1.106462220e+00,9.38215e-01,9.94816e-01,9.43103e-01,9.99999e-01
1.111994531e+00,9.42771e-01,9.98491e-01,9.44195e-01,9.99999e-01
1.117554504e+00,9.45033e-01,9.99751e-01,9.45267e-01,9.99999e-01
1.123142276e+00,9.46317e-01,9.99998e-01,9.46318e-01,9.99999e-01
1.128757988e+00,9.47350e-01,9.99999e-01,9.47350e-01,9.99999e-01
1.134401778e+00,9.48363e-01,9.99999e-01,9.48363e-01,9.99999e-01
1.140073787e+00,9.49356e-01,9.99999e-01,9.49356e-01,9.99999e-01
1.145774156e+00,9.50331e-01,9.99999e-01,9.50331e-01,9.99999e-01
1.151503026e+00,9.51288e-01,9.99999e-01,9.51288e-01,9.99999e-01
1.157260541e+00,9.52227e-01,9.99999e-01,9.52227e-01,9.99999e-01
1.163046844e+00,9.53148e-01,9.99999e-01,9.53148e-01,9.99999e-01
1.168862078e+00,9.54052e-01,9.99999e-01,9.54052e-01,9.99999e-01
1.174706389e+00,9.54939e-01,9.99999e-01,9.54939e-01,9.99999e-01
1.180579921e+00,9.55809e-01,9.99999e-01,9.55809e-01,9.99999e-01
1.186482820e+00,9.56245e-01,9.99563e-01,9.56663e-01,9.99999e-01
1.192415234e+00,9.42785e-01,9.84631e-01,9.57500e-01,9.99999e-01
1.198377311e+00,1.01656e-01,1.06077e-01,9.58322e-01,9.99999e-01
1.204369197e+00,6.42436e-19,6.69812e-19,9.59128e-01,9.99999e-01
1.210391043e+00,1.44304e-14,1.50330e-14,9.59919e-01,9.99999e-01
1.216442998e+00,4.87589e-13,5.07538e-13,9.60695e-01,9.99999e-01
1.222525213e+00,1.73297e-10,1.80244e-10,9.61456e-01,9.99999e-01
1.228637839e+00,1.45425e-08,1.51137e-08,9.62203e-01,9.99999e-01
1.234781029e+00,3.87538e-06,4.02454e-06,9.62935e-01,9.99999e-01
1.240954934e+00,6.62194e-04,6.87169e-04,9.63654e-01,9.99999e-01
1.247159708e+00,2.18383e-02,2.26454e-02,9.64359e-01,9.99999e-01
1.253395507e+00,1.00503e-01,1.04143e-01,9.65050e-01,9.99999e-01
1.259662485e+00,2.82612e-01,2.92641e-01,9.65729e-01,9.99999e-01
1.265960797e+00,5.32602e-01,5.51122e-01,9.66394e-01,9.99999e-01
1.272290601e+00,7.02190e-01,7.26117e-01,9.67047e-01,9.99999e-01
1.278652054e+00,2.70290e-01,2.79315e-01,9.67687e-01,9.99999e-01
1.285045314e+00,1.47330e-02,1.52151e-02,9.68315e-01,9.99999e-01
1.291470541e+00,3.38571e-02,3.49427e-02,9.68931e-01,9.99999e-01
1.297927893e+00,3.69300e-01,3.80903e-01,9.69535e-01,9.99999e-01
1.304417533e+00,3.81232e-01,3.92970e-01,9.70128e-01,9.99999e-01
1.310939621e+00,1.12371e-02,1.15762e-02,9.70709e-01,9.99999e-01
1.317494319e+00,1.28974e-05,1.32788e-05,9.71280e-01,9.99999e-01
1.324081790e+00,6.52548e-03,6.71457e-03,9.71839e-01,9.99999e-01
1.330702199e+00,7.49695e-03,7.70984e-03,9.72387e-01,9.99999e-01
1.337355710e+00,9.97167e-03,1.02492e-02,9.72925e-01,9.99999e-01
1.344042489e+00,6.25399e-03,6.42454e-03,9.73453e-01,9.99999e-01
1.350762701e+00,2.71809e-02,2.79073e-02,9.73970e-01,9.99999e-01
1.357516515e+00,1.13756e-01,1.16735e-01,9.74478e-01,9.99999e-01
1.364304097e+00,2.69897e-01,2.76824e-01,9.74976e-01,9.99999e-01
1.371125618e+00,4.38471e-01,4.49500e-01,9.75464e-01,9.99999e-01
1.377981246e+00,5.82075e-01,5.96423e-01,9.75942e-01,9.99999e-01
1.384871152e+00,6.29433e-01,6.44638e-01,9.76412e-01,9.99999e-01
1.391795508e+00,7.36650e-01,7.54090e-01,9.76872e-01,9.99999e-01
1.398754485e+00,7.82578e-01,8.00735e-01,9.77324e-01,9.99999e-01
1.405748258e+00,8.52348e-01,8.71729e-01,9.77767e-01,9.99999e-01
1.412776999e+00,8.90834e-01,9.10685e-01,9.78201e-01,9.99999e-01
1.419840884e+00,4.02134e-01,4.10916e-01,9.78627e-01,9.99999e-01
1.426940089e+00,1.16833e-30,1.19334e-30,9.79045e-01,9.99999e-01
1.434074789e+00,7.36118e-207,7.51559e-207,9.79454e-01,9.99999e-01
1.441245163e+00,3.83209e-263,3.91087e-263,9.79856e-01,9.99999e-01
1.448451389e+00,6.46544e-130,6.59570e-130,9.80250e-01,9.99999e-01
1.455693646e+00,1.03237e-69,1.05275e-69,9.80636e-01,9.99999e-01
1.462972114e+00,4.49683e-33,4.58385e-33,9.81015e-01,9.99999e-01
1.470286975e+00,4.80602e-22,4.89717e-22,9.81387e-01,9.99999e-01
1.477638409e+00,9.88550e-12,1.00692e-11,9.81751e-01,9.99999e-01
1.485026601e+00,9.63309e-09,9.80857e-09,9.82108e-01,9.99999e-01
1.492451734e+00,7.69479e-06,7.83217e-06,9.82458e-01,9.99999e-01
1.499913993e+00,1.57551e-03,1.60308e-03,9.82802e-01,9.99999e-01
1.507413563e+00,6.53012e-04,6.64211e-04,9.83139e-01,9.99999e-01
1.514950631e+00,1.61345e-07,1.64056e-07,9.83469e-01,9.99999e-01
1.522525384e+00,1.15388e-17,1.17289e-17,9.83793e-01,9.99999e-01
1.530138011e+00,3.09846e-19,3.14849e-19,9.84110e-01,9.99999e-01
1.537788701e+00,1.61936e-09,1.64499e-09,9.84422e-01,9.99999e-01
1.545477645e+00,5.52865e-04,5.61439e-04,9.84727e-01,9.99999e-01
1.553205033e+00,1.57076e-03,1.59463e-03,9.85026e-01,9.99999e-01
1.560971058e+00,2.74906e-09,2.79002e-09,9.85320e-01,9.99999e-01
1.568775913e+00,2.61869e-141,2.65693e-141,9.85608e-01,9.99999e-01
1.576619793e+00,2.53658e-122,2.57288e-122,9.85890e-01,9.99999e-01
1.584502892e+00,9.58176e-55,9.71615e-55,9.86167e-01,9.99999e-01
1.592425406e+00,1.06345e-54,1.07807e-54,9.86438e-01,9.99999e-01
1.600387533e+00,2.22382e-145,2.25378e-145,9.86704e-01,9.99999e-01
1.608389471e+00,9.33677e-180,9.46007e-180,9.86965e-01,9.99999e-01
1.616431418e+00,1.20535e-92,1.22095e-92,9.87221e-01,9.99999e-01
1.624513575e+00,9.16855e-57,9.28487e-57,9.87472e-01,9.99999e-01
1.632636143e+00,9.00446e-29,9.11642e-29,9.87718e-01,9.99999e-01
1.640799324e+00,8.50743e-22,8.61111e-22,9.87959e-01,9.99999e-01
1.649003321e+00,8.43546e-18,8.53622e-18,9.88195e-01,9.99999e-01
1.657248337e+00,4.15947e-17,4.20817e-17,9.88427e-01,9.99999e-01
1.665534579e+00,4.93573e-13,4.99236e-13,9.88654e-01,9.99999e-01
1.673862252e+00,2.15337e-10,2.17758e-10,9.88877e-01,9.99999e-01
1.682231563e+00,1.92955e-06,1.95082e-06,9.89096e-01,9.99999e-01
1.690642721e+00,2.86894e-04,2.89994e-04,9.89310e-01,9.99999e-01
1.699095934e+00,1.08126e-02,1.09271e-02,9.89520e-01,9.99999e-01
1.707591414e+00,8.53595e-02,8.62456e-02,9.89726e-01,9.99999e-01
1.716129371e+00,2.85058e-01,2.87958e-01,9.89928e-01,9.99999e-01
1.724710018e+00,4.72537e-01,4.77249e-01,9.90126e-01,9.99999e-01
1.733333568e+00,6.33701e-01,6.39894e-01,9.90320e-01,9.99999e-01
1.742000236e+00,3.08560e-01,3.11516e-01,9.90510e-01,9.99999e-01
1.750710237e+00,2.24132e-03,2.26237e-03,9.90697e-01,9.99999e-01
1.759463788e+00,1.58017e-11,1.59472e-11,9.90879e-01,9.99999e-01
1.768261107e+00,1.52482e-11,1.53857e-11,9.91059e-01,9.99999e-01
1.777102413e+00,3.53834e-11,3.56962e-11,9.91235e-01,9.99999e-01
1.785987925e+00,6.63172e-10,6.68920e-10,9.91407e-01,9.99999e-01
1.794917864e+00,3.30740e-10,3.33549e-10,9.91576e-01,9.99999e-01
1.803892454e+00,2.60281e-09,2.62448e-09,9.91742e-01,9.99999e-01
1.812911916e+00,7.04751e-11,7.10502e-11,9.91904e-01,9.99999e-01
1.821976476e+00,1.15137e-08,1.16058e-08,9.92063e-01,9.99999e-01
1.831086358e+00,1.82088e-07,1.83516e-07,9.92219e-01,9.99999e-01
1.840241790e+00,9.99914e-06,1.00760e-05,9.92373e-01,9.99999e-01
1.849442999e+00,1.48879e-04,1.50000e-04,9.92523e-01,9.99999e-01
1.858690214e+00,1.44152e-04,1.45216e-04,9.92670e-01,9.99999e-01
1.867983665e+00,1.12052e-07,1.12863e-07,9.92814e-01,9.99999e-01
1.877323583e+00,1.63502e-20,1.64662e-20,9.92955e-01,9.99999e-01
