#,Wave/freq,Total,CO2,Rayleigh,CIA
4.000000000e-01,4.90954e-07,9.99999e-01,4.90954e-07,9.99999e-01
4.020000000e-01,6.54043e-07,9.99999e-01,6.54043e-07,9.99999e-01
4.040100000e-01,8.66490e-07,9.99999e-01,8.66490e-07,9.99999e-01
4.060300500e-01,1.14158e-06,9.99999e-01,1.14158e-06,9.99999e-01
4.080602003e-01,1.49584e-06,9.99999e-01,1.49584e-06,9.99999e-01
4.101005013e-01,1.94961e-06,9.99999e-01,1.94961e-06,9.99999e-01
4.121510038e-01,2.52775e-06,9.99999e-01,2.52775e-06,9.99999e-01
4.142117588e-01,3.26058e-06,9.99999e-01,3.26058e-06,9.99999e-01
4.162828176e-01,4.18476e-06,9.99999e-01,4.18476e-06,9.99999e-01
4.183642317e-01,5.34448e-06,9.99999e-01,5.34448e-06,9.99999e-01
4.204560528e-01,6.79271e-06,9.99999e-01,6.79271e-06,9.99999e-01
4.225583331e-01,8.59256e-06,9.99999e-01,8.59256e-06,9.99999e-01
4.246711247e-01,1.08190e-05,9.99999e-01,1.08190e-05,9.99999e-01
4.267944804e-01,1.35604e-05,9.99999e-01,1.35604e-05,9.99999e-01
4.289284528e-01,1.69209e-05,9.99999e-01,1.69209e-05,9.99999e-01
4.310730950e-01,2.10220e-05,9.99999e-01,2.10220e-05,9.99999e-01
4.332284605e-01,2.60053e-05,9.99999e-01,2.60053e-05,9.99999e-01
4.353946028e-01,3.20351e-05,9.99999e-01,3.20351e-05,9.99999e-01
4.375715758e-01,3.93008e-05,9.99999e-01,3.93008e-05,9.99999e-01
4.397594337e-01,4.80201e-05,9.99999e-01,4.80201e-05,9.99999e-01
4.419582309e-01,5.84420e-05,9.99999e-01,5.84420e-05,9.99999e-01
4.441680220e-01,7.08505e-05,9.99999e-01,7.08505e-05,9.99999e-01
4.463888621e-01,8.55675e-05,9.99999e-01,8.55675e-05,9.99999e-01
4.486208064e-01,1.02957e-04,9.99999e-01,1.02957e-04,9.99999e-01
4.508639105e-01,1.23429e-04,9.99999e-01,1.23429e-04,9.99999e-01
4.531182300e-01,1.47442e-04,9.99999e-01,1.47442e-04,9.99999e-01
4.553838212e-01,1.75509e-04,9.99999e-01,1.75509e-04,9.99999e-01
4.576607403e-01,2.08201e-04,9.99999e-01,2.08201e-04,9.99999e-01
4.599490440e-01,2.46152e-04,9.99999e-01,2.46152e-04,9.99999e-01
4.622487892e-01,2.90058e-04,9.99999e-01,2.90058e-04,9.99999e-01
4.645600332e-01,3.40691e-04,9.99999e-01,3.40691e-04,9.99999e-01
4.668828333e-01,3.98891e-04,9.99999e-01,3.98891e-04,9.99999e-01
4.692172475e-01,4.65582e-04,9.99999e-01,4.65582e-04,9.99999e-01
4.715633337e-01,5.41766e-04,9.99999e-01,5.41766e-04,9.99999e-01
4.739211504e-01,6.28531e-04,9.99999e-01,6.28531e-04,9.99999e-01
4.762907561e-01,7.27056e-04,9.99999e-01,7.27056e-04,9.99999e-01
4.786722099e-01,8.38609e-04,9.99999e-01,8.38609e-04,9.99999e-01
4.810655710e-01,9.64555e-04,9.99999e-01,9.64555e-04,9.99999e-01
4.834708988e-01,1.10635e-03,9.99999e-01,1.10635e-03,9.99999e-01
4.858882533e-01,1.26556e-03,9.99999e-01,1.26556e-03,9.99999e-01
4.883176946e-01,1.44385e-03,9.99999e-01,1.44385e-03,9.99999e-01
4.907592831e-01,1.64296e-03,9.99999e-01,1.64296e-03,9.99999e-01
4.932130795e-01,1.86477e-03,9.99999e-01,1.86477e-03,9.99999e-01
4.956791449e-01,2.11124e-03,9.99999e-01,2.11124e-03,9.99999e-01
4.981575406e-01,2.38443e-03,9.99999e-01,2.38443e-03,9.99999e-01
5.006483283e-01,2.68651e-03,9.99999e-01,2.68651e-03,9.99999e-01
5.031515699e-01,3.01973e-03,9.99999e-01,3.01973e-03,9.99999e-01
5.056673278e-01,3.38645e-03,9.99999e-01,3.38645e-03,9.99999e-01
5.081956644e-01,3.78912e-03,9.99999e-01,3.78912e-03,9.99999e-01
5.107366428e-01,4.23027e-03,9.99999e-01,4.23027e-03,9.99999e-01
5.132903260e-01,4.71252e-03,9.99999e-01,4.71252e-03,9.99999e-01
5.158567776e-01,5.23857e-03,9.99999e-01,5.23857e-03,9.99999e-01
5.184360615e-01,5.81117e-03,9.99999e-01,5.81117e-03,9.99999e-01
5.210282418e-01,6.43317e-03,9.99999e-01,6.43317e-03,9.99999e-01
5.236333830e-01,7.10745e-03,9.99999e-01,7.10745e-03,9.99999e-01
5.262515499e-01,7.83697e-03,9.99999e-01,7.83697e-03,9.99999e-01
5.288828077e-01,8.62470e-03,9.99999e-01,8.62470e-03,9.99999e-01
5.315272217e-01,9.47366e-03,9.99999e-01,9.47366e-03,9.99999e-01
5.341848578e-01,1.03869e-02,9.99999e-01,1.03869e-02,9.99999e-01
5.368557821e-01,1.13675e-02,9.99999e-01,1.13675e-02,9.99999e-01
5.395400610e-01,1.24186e-02,9.99999e-01,1.24186e-02,9.99999e-01
5.422377613e-01,1.35431e-02,9.99999e-01,1.35431e-02,9.99999e-01
5.449489501e-01,1.47442e-02,9.99999e-01,1.47442e-02,9.99999e-01
5.476736949e-01,1.60249e-02,9.99999e-01,1.60249e-02,9.99999e-01
5.504120634e-01,1.73882e-02,9.99999e-01,1.73882e-02,9.99999e-01
5.531641237e-01,1.88371e-02,9.99999e-01,1.88371e-02,9.99999e-01
5.559299443e-01,2.03745e-02,9.99999e-01,2.03745e-02,9.99999e-01
5.587095940e-01,2.20033e-02,9.99999e-01,2.20033e-02,9.99999e-01
5.615031420e-01,2.37261e-02,9.99999e-01,2.37261e-02,9.99999e-01
5.643106577e-01,2.55459e-02,9.99999e-01,2.55459e-02,9.99999e-01
5.671322110e-01,2.74650e-02,9.99999e-01,2.74650e-02,9.99999e-01
5.699678720e-01,2.94861e-02,9.99999e-01,2.94861e-02,9.99999e-01
5.728177114e-01,3.16116e-02,9.99999e-01,3.16116e-02,9.99999e-01
5.756818000e-01,3.38437e-02,9.99999e-01,3.38437e-02,9.99999e-01
5.785602090e-01,3.61847e-02,9.99999e-01,3.61847e-02,9.99999e-01
5.814530100e-01,3.86365e-02,9.99999e-01,3.86365e-02,9.99999e-01
5.843602750e-01,4.12010e-02,9.99999e-01,4.12010e-02,9.99999e-01
5.872820764e-01,4.38800e-02,9.99999e-01,4.38800e-02,9.99999e-01
5.902184868e-01,4.66751e-02,9.99999e-01,4.66751e-02,9.99999e-01
5.931695792e-01,4.95877e-02,9.99999e-01,4.95877e-02,9.99999e-01
5.961354271e-01,5.26191e-02,9.99999e-01,5.26191e-02,9.99999e-01
5.991161043e-01,5.57705e-02,9.99999e-01,5.57705e-02,9.99999e-01
6.021116848e-01,5.90427e-02,9.99999e-01,5.90427e-02,9.99999e-01
6.051222432e-01,6.24365e-02,9.99999e-01,6.24365e-02,9.99999e-01
6.081478544e-01,6.59525e-02,9.99999e-01,6.59525e-02,9.99999e-01
6.111885937e-01,6.95912e-02,9.99999e-01,6.95912e-02,9.99999e-01
6.142445367e-01,7.33529e-02,9.99999e-01,7.33529e-02,9.99999e-01
6.173157594e-01,7.72374e-02,9.99999e-01,7.72374e-02,9.99999e-01
6.204023382e-01,8.12449e-02,9.99999e-01,8.12449e-02,9.99999e-01
6.235043498e-01,8.53749e-02,9.99999e-01,8.53749e-02,9.99999e-01
6.266218716e-01,8.96270e-02,9.99999e-01,8.96270e-02,9.99999e-01
6.297549810e-01,9.40007e-02,9.99999e-01,9.40007e-02,9.99999e-01
6.329037559e-01,9.84950e-02,9.99999e-01,9.84950e-02,9.99999e-01
6.360682746e-01,1.03109e-01,9.99999e-01,1.03109e-01,9.99999e-01
6.392486160e-01,1.07842e-01,9.99999e-01,1.07842e-01,9.99999e-01
6.424448591e-01,1.12692e-01,9.99999e-01,1.12692e-01,9.99999e-01
6.456570834e-01,1.17657e-01,9.99999e-01,1.17657e-01,9.99999e-01
6.488853688e-01,1.22737e-01,9.99999e-01,1.22737e-01,9.99999e-01
6.521297956e-01,1.27930e-01,9.99999e-01,1.27930e-01,9.99999e-01
6.553904446e-01,1.33233e-01,9.99999e-01,1.33233e-01,9.99999e-01
6.586673968e-01,1.38644e-01,9.99999e-01,1.38644e-01,9.99999e-01
6.619607338e-01,1.44162e-01,9.99999e-01,1.44162e-01,9.99999e-01
6.652705375e-01,1.49784e-01,9.99999e-01,1.49784e-01,9.99999e-01
6.685968902e-01,1.55508e-01,9.99999e-01,1.55508e-01,9.99999e-01
6.719398746e-01,1.61331e-01,9.99999e-01,1.61331e-01,9.99999e-01
6.752995740e-01,1.67250e-01,9.99999e-01,1.67250e-01,9.99999e-01
6.786760719e-01,1.73264e-01,9.99999e-01,1.73264e-01,9.99999e-01
6.820694522e-01,1.79368e-01,9.99999e-01,1.79368e-01,9.99999e-01
6.854797995e-01,1.85560e-01,9.99999e-01,1.85560e-01,9.99999e-01
6.889071985e-01,1.91838e-01,9.99999e-01,1.91838e-01,9.99999e-01
6.923517345e-01,1.98198e-01,9.99999e-01,1.98198e-01,9.99999e-01
6.958134932e-01,2.04636e-01,9.99999e-01,2.04636e-01,9.99999e-01
6.992925606e-01,2.11151e-01,9.99999e-01,2.11151e-01,9.99999e-01
7.027890234e-01,2.17738e-01,9.99999e-01,2.17738e-01,9.99999e-01
7.063029686e-01,2.24394e-01,9.99999e-01,2.24394e-01,9.99999e-01
7.098344834e-01,2.31116e-01,9.99999e-01,2.31116e-01,9.99999e-01
7.133836558e-01,2.37901e-01,9.99999e-01,2.37901e-01,9.99999e-01
7.169505741e-01,2.44745e-01,9.99999e-01,2.44745e-01,9.99999e-01
7.205353270e-01,2.51645e-01,9.99999e-01,2.51645e-01,9.99999e-01
7.241380036e-01,2.58597e-01,9.99999e-01,2.58597e-01,9.99999e-01
7.277586936e-01,2.65599e-01,9.99999e-01,2.65599e-01,9.99999e-01
7.313974871e-01,2.72646e-01,9.99999e-01,2.72646e-01,9.99999e-01
7.350544745e-01,2.79735e-01,9.99999e-01,2.79735e-01,9.99999e-01
7.387297469e-01,2.86864e-01,9.99999e-01,2.86864e-01,9.99999e-01
7.424233956e-01,2.94027e-01,9.99999e-01,2.94027e-01,9.99999e-01
7.461355126e-01,3.01223e-01,9.99999e-01,3.01223e-01,9.99999e-01
7.498661902e-01,3.08448e-01,9.99999e-01,3.08448e-01,9.99999e-01
7.536155211e-01,3.15698e-01,9.99999e-01,3.15698e-01,9.99999e-01
7.573835987e-01,3.22970e-01,9.99999e-01,3.22970e-01,9.99999e-01
7.611705167e-01,3.30261e-01,9.99999e-01,3.30261e-01,9.99999e-01
7.649763693e-01,3.37568e-01,9.99999e-01,3.37568e-01,9.99999e-01
7.688012511e-01,3.44887e-01,9.99999e-01,3.44887e-01,9.99999e-01
7.726452574e-01,3.52216e-01,9.99999e-01,3.52216e-01,9.99999e-01
7.765084837e-01,3.58409e-01,9.96823e-01,3.59551e-01,9.99999e-01
7.803910261e-01,2.97346e-01,8.10448e-01,3.66890e-01,9.99999e-01
7.842929812e-01,3.19661e-01,8.54185e-01,3.74229e-01,9.99999e-01
7.882144461e-01,3.20805e-01,8.40760e-01,3.81565e-01,9.99999e-01
7.921555184e-01,3.46183e-01,8.90167e-01,3.88896e-01,9.99999e-01
7.961162960e-01,3.70406e-01,9.34851e-01,3.96219e-01,9.99999e-01
8.000968774e-01,3.89769e-01,9.65894e-01,4.03531e-01,9.99999e-01
8.040973618e-01,4.04356e-01,9.84240e-01,4.10830e-01,9.99999e-01
8.081178486e-01,4.15501e-01,9.93754e-01,4.18113e-01,9.99999e-01
8.121584379e-01,4.24669e-01,9.98336e-01,4.25377e-01,9.99999e-01
8.162192301e-01,4.32571e-01,9.99887e-01,4.32620e-01,9.99999e-01
8.203003262e-01,4.39839e-01,9.99999e-01,4.39839e-01,9.99999e-01
8.244018279e-01,4.47033e-01,9.99999e-01,4.47033e-01,9.99999e-01
8.285238370e-01,4.54199e-01,9.99999e-01,4.54199e-01,9.99999e-01
8.326664562e-01,4.61335e-01,9.99999e-01,4.61335e-01,9.99999e-01
8.368297885e-01,4.68439e-01,9.99999e-01,4.68439e-01,9.99999e-01
8.410139374e-01,4.75509e-01,9.99999e-01,4.75509e-01,9.99999e-01
8.452190071e-01,4.82543e-01,9.99999e-01,4.82543e-01,9.99999e-01
8.494451021e-01,4.89538e-01,9.99999e-01,4.89538e-01,9.99999e-01
8.536923276e-01,4.96494e-01,9.99999e-01,4.96494e-01,9.99999e-01
8.579607893e-01,5.03408e-01,9.99999e-01,5.03408e-01,9.99999e-01
8.622505932e-01,5.09601e-01,9.98669e-01,5.10280e-01,9.99999e-01
8.665618462e-01,3.09535e-01,5.98590e-01,5.17106e-01,9.99999e-01
8.708946554e-01,3.03738e-01,5.79777e-01,5.23887e-01,9.99999e-01
8.752491287e-01,3.78032e-01,7.12435e-01,5.30619e-01,9.99999e-01
8.796253743e-01,4.55425e-01,8.47612e-01,5.37303e-01,9.99999e-01
8.840235012e-01,5.05480e-01,9.29299e-01,5.43936e-01,9.99999e-01
8.884436187e-01,5.34779e-01,9.71409e-01,5.50518e-01,9.99999e-01
8.928858368e-01,5.52184e-01,9.91268e-01,5.57047e-01,9.99999e-01
8.973502660e-01,5.62570e-01,9.98308e-01,5.63523e-01,9.99999e-01
9.018370173e-01,5.69207e-01,9.98708e-01,5.69943e-01,9.99999e-01
9.063462024e-01,5.56910e-01,9.66340e-01,5.76308e-01,9.99999e-01
9.108779334e-01,5.73764e-01,9.84806e-01,5.82615e-01,9.99999e-01
9.154323231e-01,5.74579e-01,9.75738e-01,5.88866e-01,9.99999e-01
9.200094847e-01,4.99519e-01,8.39446e-01,5.95058e-01,9.99999e-01
9.246095321e-01,5.34297e-01,8.88730e-01,6.01190e-01,9.99999e-01
9.292325798e-01,5.32532e-01,8.76937e-01,6.07263e-01,9.99999e-01
9.338787427e-01,5.50697e-01,8.97959e-01,6.13276e-01,9.99999e-01
9.385481364e-01,5.83812e-01,9.42806e-01,6.19227e-01,9.99999e-01
9.432408771e-01,6.03184e-01,9.64912e-01,6.25118e-01,9.99999e-01
9.479570815e-01,6.18992e-01,9.81054e-01,6.30946e-01,9.99999e-01
9.526968669e-01,6.31487e-01,9.91794e-01,6.36711e-01,9.99999e-01
9.574603512e-01,6.40568e-01,9.97125e-01,6.42414e-01,9.99999e-01
9.622476530e-01,6.47452e-01,9.99070e-01,6.48054e-01,9.99999e-01
9.670588912e-01,6.53537e-01,9.99855e-01,6.53631e-01,9.99999e-01
9.718941857e-01,6.59143e-01,9.99999e-01,6.59144e-01,9.99999e-01
9.767536566e-01,6.64593e-01,9.99999e-01,6.64593e-01,9.99999e-01
9.816374249e-01,6.69978e-01,9.99999e-01,6.69978e-01,9.99999e-01
9.865456120e-01,6.75299e-01,9.99999e-01,6.75299e-01,9.99999e-01
9.914783401e-01,6.80557e-01,9.99999e-01,6.80557e-01,9.99999e-01
9.964357318e-01,6.85750e-01,9.99999e-01,6.85750e-01,9.99999e-01
1.001417910e+00,6.90878e-01,9.99999e-01,6.90878e-01,9.99999e-01
1.006425000e+00,6.95943e-01,9.99999e-01,6.95943e-01,9.99999e-01
1.011457125e+00,7.00944e-01,9.99999e-01,7.00944e-01,9.99999e-01
1.016514411e+00,7.05880e-01,9.99998e-01,7.05881e-01,9.99999e-01
1.021596983e+00,7.09765e-01,9.98608e-01,7.10754e-01,9.99999e-01
1.026704968e+00,7.07627e-01,9.88907e-01,7.15564e-01,9.99999e-01
1.031838492e+00,3.22638e-01,4.47914e-01,7.20310e-01,9.99999e-01
1.036997685e+00,1.52859e-02,2.10842e-02,7.24993e-01,9.99999e-01
1.042182673e+00,8.66410e-02,1.18749e-01,7.29613e-01,9.99999e-01
1.047393587e+00,6.12128e-03,8.33768e-03,7.34170e-01,9.99999e-01
1.052630555e+00,4.90966e-04,6.64667e-04,7.38665e-01,9.99999e-01
1.057893707e+00,2.15218e-03,2.89623e-03,7.43098e-01,9.99999e-01
1.063183176e+00,1.87306e-02,2.50586e-02,7.47469e-01,9.99999e-01
1.068499092e+00,7.36776e-02,9.80043e-02,7.51779e-01,9.99999e-01
1.073841587e+00,1.35535e-01,1.79273e-01,7.56027e-01,9.99999e-01
1.079210795e+00,3.04243e-01,4.00206e-01,7.60216e-01,9.99999e-01
1.084606849e+00,4.53379e-01,5.93161e-01,7.64343e-01,9.99999e-01
1.090029883e+00,5.94843e-01,7.74120e-01,7.68412e-01,9.99999e-01
1.095480033e+00,6.81003e-01,8.81647e-01,7.72420e-01,9.99999e-01
1.100957433e+00,7.35922e-01,9.47900e-01,7.76370e-01,9.99999e-01
1.106462220e+00,7.63290e-01,9.78248e-01,7.80262e-01,9.99999e-01
1.111994531e+00,7.79102e-01,9.93632e-01,7.84095e-01,9.99999e-01
1.117554504e+00,7.87046e-01,9.98951e-01,7.87871e-01,9.99999e-01
1.123142276e+00,7.91586e-01,9.99993e-01,7.91590e-01,9.99999e-01
1.128757988e+00,7.95253e-01,9.99999e-01,7.95253e-01,9.99999e-01
1.134401778e+00,7.98860e-01,9.99999e-01,7.98860e-01,9.99999e-01
1.140073787e+00,8.02411e-01,9.99999e-01,8.02411e-01,9.99999e-01
1.145774156e+00,8.05908e-01,9.99999e-01,8.05908e-01,9.99999e-01
1.151503026e+00,8.09350e-01,9.99999e-01,8.09350e-01,9.99999e-01
1.157260541e+00,8.12739e-01,9.99999e-01,8.12739e-01,9.99999e-01
1.163046844e+00,8.16074e-01,9.99999e-01,8.16074e-01,9.99999e-01
1.168862078e+00,8.19357e-01,9.99999e-01,8.19357e-01,9.99999e-01
1.174706389e+00,8.22588e-01,9.99999e-01,8.22588e-01,9.99999e-01
1.180579921e+00,8.25767e-01,9.99999e-01,8.25767e-01,9.99999e-01
1.186482820e+00,8.27371e-01,9.98160e-01,8.28896e-01,9.99999e-01
1.192415234e+00,7.90252e-01,9.49850e-01,8.31974e-01,9.99999e-01
1.198377311e+00,7.04402e-02,8.43591e-02,8.35003e-01,9.99999e-01
1.204369197e+00,7.22348e-73,8.62008e-73,8.37982e-01,9.99999e-01
1.210391043e+00,1.10522e-55,1.31431e-55,8.40913e-01,9.99999e-01
1.216442998e+00,1.05975e-48,1.25594e-48,8.43796e-01,9.99999e-01
1.222525213e+00,6.63283e-38,7.83437e-38,8.46631e-01,9.99999e-01
1.228637839e+00,5.10281e-29,6.00740e-29,8.49420e-01,9.99999e-01
1.234781029e+00,1.35736e-19,1.59283e-19,8.52163e-01,9.99999e-01
1.240954934e+00,3.43544e-12,4.01871e-12,8.54860e-01,9.99999e-01
1.247159708e+00,2.21224e-06,2.57984e-06,8.57512e-01,9.99999e-01
1.253395507e+00,1.33411e-04,1.55108e-04,8.60119e-01,9.99999e-01
1.259662485e+00,6.64145e-03,7.69859e-03,8.62683e-01,9.99999e-01
1.265960797e+00,8.39191e-02,9.69934e-02,8.65204e-01,9.99999e-01
1.272290601e+00,2.30890e-01,2.66100e-01,8.67682e-01,9.99999e-01
1.278652054e+00,2.95184e-02,3.39246e-02,8.70118e-01,9.99999e-01
1.285045314e+00,3.35307e-06,3.84300e-06,8.72512e-01,9.99999e-01
1.291470541e+00,4.00011e-06,4.57226e-06,8.74866e-01,9.99999e-01
1.297927893e+00,2.52864e-02,2.88270e-02,8.77179e-01,9.99999e-01
1.304417533e+00,3.90676e-02,4.44226e-02,8.79452e-01,9.99999e-01
1.310939621e+00,4.67161e-04,5.29848e-04,8.81687e-01,9.99999e-01
1.317494319e+00,1.09471e-18,1.23852e-18,8.83882e-01,9.99999e-01
1.324081790e+00,1.43734e-08,1.62220e-08,8.86040e-01,9.99999e-01
1.330702199e+00,1.92732e-08,2.17001e-08,8.88160e-01,9.99999e-01
1.337355710e+00,9.64846e-08,1.08380e-07,8.90243e-01,9.99999e-01
1.344042489e+00,2.16866e-09,2.43045e-09,8.92290e-01,9.99999e-01
1.350762701e+00,1.36368e-06,1.52486e-06,8.94301e-01,9.99999e-01
1.357516515e+00,1.89539e-04,2.11473e-04,8.96276e-01,9.99999e-01
1.364304097e+00,6.69026e-03,7.44837e-03,8.98217e-01,9.99999e-01
1.371125618e+00,3.18449e-02,3.53783e-02,9.00123e-01,9.99999e-01
1.377981246e+00,1.12257e-01,1.24453e-01,9.01996e-01,9.99999e-01
1.384871152e+00,1.41669e-01,1.56742e-01,9.03836e-01,9.99999e-01
1.391795508e+00,2.78403e-01,3.07409e-01,9.05643e-01,9.99999e-01
1.398754485e+00,3.56610e-01,3.92994e-01,9.07417e-01,9.99999e-01
1.405748258e+00,5.09271e-01,5.60155e-01,9.09160e-01,9.99999e-01
1.412776999e+00,6.13552e-01,6.73586e-01,9.10872e-01,9.99999e-01
1.419840884e+00,1.31722e-01,1.44344e-01,9.12553e-01,9.99999e-01
1.426940089e+00,1.41642e-122,1.54934e-122,9.14204e-01,9.99999e-01
1.434074789e+00,0.00000e+00,0.00000e+00,9.15825e-01,9.99999e-01
1.441245163e+00,0.00000e+00,0.00000e+00,9.17417e-01,9.99999e-01
1.448451389e+00,0.00000e+00,0.00000e+00,9.18981e-01,9.99999e-01
1.455693646e+00,5.50048e-288,5.97543e-288,9.20516e-01,9.99999e-01
1.462972114e+00,8.37469e-133,9.08294e-133,9.22023e-01,9.99999e-01
1.470286975e+00,1.05369e-87,1.14097e-87,9.23502e-01,9.99999e-01
1.477638409e+00,1.94399e-42,2.10171e-42,9.24955e-01,9.99999e-01
1.485026601e+00,5.87805e-33,6.34517e-33,9.26382e-01,9.99999e-01
1.492451734e+00,8.78123e-18,9.46475e-18,9.27782e-01,9.99999e-01
1.499913993e+00,7.43799e-12,8.00509e-12,9.29157e-01,9.99999e-01
1.507413563e+00,2.21225e-12,2.37746e-12,9.30506e-01,9.99999e-01
1.514950631e+00,3.48201e-25,3.73674e-25,9.31831e-01,9.99999e-01
1.522525384e+00,1.53622e-67,1.64630e-67,9.33131e-01,9.99999e-01
1.530138011e+00,1.51052e-74,1.61655e-74,9.34408e-01,9.99999e-01
1.537788701e+00,4.92136e-33,5.25977e-33,9.35661e-01,9.99999e-01
1.545477645e+00,1.94660e-12,2.07772e-12,9.36891e-01,9.99999e-01
1.553205033e+00,1.12336e-11,1.19748e-11,9.38098e-01,9.99999e-01
1.560971058e+00,4.66306e-32,4.96449e-32,9.39283e-01,9.99999e-01
1.568775913e+00,0.00000e+00,0.00000e+00,9.40445e-01,9.99999e-01
1.576619793e+00,0.00000e+00,0.00000e+00,9.41587e-01,9.99999e-01
1.584502892e+00,1.34196e-224,1.42352e-224,9.42707e-01,9.99999e-01
1.592425406e+00,1.30970e-224,1.38768e-224,9.43806e-01,9.99999e-01
1.600387533e+00,0.00000e+00,0.00000e+00,9.44885e-01,9.99999e-01
1.608389471e+00,0.00000e+00,0.00000e+00,9.45943e-01,9.99999e-01
1.616431418e+00,0.00000e+00,0.00000e+00,9.46982e-01,9.99999e-01
1.624513575e+00,3.59394e-233,3.79107e-233,9.48002e-01,9.99999e-01
1.632636143e+00,1.37907e-114,1.45318e-114,9.49002e-01,9.99999e-01
1.640799324e+00,8.13424e-87,8.56249e-87,9.49984e-01,9.99999e-01
1.649003321e+00,4.07751e-68,4.28783e-68,9.50947e-01,9.99999e-01
1.657248337e+00,2.88247e-67,3.02815e-67,9.51892e-01,9.99999e-01
1.665534579e+00,5.88743e-48,6.17895e-48,9.52820e-01,9.99999e-01
1.673862252e+00,2.19501e-38,2.30149e-38,9.53730e-01,9.99999e-01
1.682231563e+00,3.92963e-21,4.11641e-21,9.54623e-01,9.99999e-01
1.690642721e+00,8.40868e-14,8.80029e-14,9.55499e-01,9.99999e-01
1.699095934e+00,1.46852e-07,1.53554e-07,9.56358e-01,9.99999e-01
1.707591414e+00,1.00540e-04,1.05036e-04,9.57202e-01,9.99999e-01
1.716129371e+00,6.63685e-03,6.92760e-03,9.58029e-01,9.99999e-01
1.724710018e+00,4.56644e-02,4.76246e-02,9.58841e-01,9.99999e-01
1.733333568e+00,1.60783e-01,1.67545e-01,9.59637e-01,9.99999e-01
1.742000236e+00,5.88788e-02,6.13054e-02,9.60418e-01,9.99999e-01
1.750710237e+00,5.07377e-07,5.27865e-07,9.61185e-01,9.99999e-01
1.759463788e+00,4.08673e-43,4.24843e-43,9.61937e-01,9.99999e-01
1.768261107e+00,1.75383e-42,1.82183e-42,9.62674e-01,9.99999e-01
1.777102413e+00,2.43274e-42,2.52517e-42,9.63398e-01,9.99999e-01
1.785987925e+00,8.63815e-38,8.95973e-38,9.64108e-01,9.99999e-01
1.794917864e+00,1.44442e-38,1.49711e-38,9.64804e-01,9.99999e-01
1.803892454e+00,5.98704e-35,6.20105e-35,9.65487e-01,9.99999e-01
1.812911916e+00,1.20470e-41,1.24690e-41,9.66157e-01,9.99999e-01
1.821976476e+00,1.00438e-30,1.03885e-30,9.66814e-01,9.99999e-01
1.831086358e+00,6.33968e-28,6.55291e-28,9.67459e-01,9.99999e-01
1.840241790e+00,1.59864e-17,1.65133e-17,9.68091e-01,9.99999e-01
1.849442999e+00,2.05037e-16,2.11659e-16,9.68712e-01,9.99999e-01
1.858690214e+00,6.44881e-16,6.65292e-16,9.69320e-01,9.99999e-01
1.867983665e+00,2.73291e-25,2.81767e-25,9.69917e-01,9.99999e-01
1.877323583e+00,1.27177e-79,1.31042e-79,9.70502e-01,9.99999e-01
