#,Wave/freq,Total,CO2,Rayleigh,CIA
4.000000000e-01,9.33982e-09,9.99999e-01,9.33982e-09,9.99999e-01
4.020000000e-01,1.34621e-08,9.99999e-01,1.34621e-08,9.99999e-01
4.040100000e-01,1.92568e-08,9.99999e-01,1.92568e-08,9.99999e-01
4.060300500e-01,2.73516e-08,9.99999e-01,2.73516e-08,9.99999e-01
4.080602003e-01,3.85808e-08,9.99999e-01,3.85808e-08,9.99999e-01
4.101005013e-01,5.40516e-08,9.99999e-01,5.40516e-08,9.99999e-01
4.121510038e-01,7.52235e-08,9.99999e-01,7.52235e-08,9.99999e-01
4.142117588e-01,1.04007e-07,9.99999e-01,1.04007e-07,9.99999e-01
4.162828176e-01,1.42887e-07,9.99999e-01,1.42887e-07,9.99999e-01
4.183642317e-01,1.95074e-07,9.99999e-01,1.95074e-07,9.99999e-01
4.204560528e-01,2.64688e-07,9.99999e-01,2.64688e-07,9.99999e-01
4.225583331e-01,3.56986e-07,9.99999e-01,3.56986e-07,9.99999e-01
4.246711247e-01,4.78633e-07,9.99999e-01,4.78633e-07,9.99999e-01
4.267944804e-01,6.38026e-07,9.99999e-01,6.38026e-07,9.99999e-01
4.289284528e-01,8.45684e-07,9.99999e-01,8.45684e-07,9.99999e-01
4.310730950e-01,1.11471e-06,9.99999e-01,1.11471e-06,9.99999e-01
4.332284605e-01,1.46132e-06,9.99999e-01,1.46132e-06,9.99999e-01
4.353946028e-01,1.90548e-06,9.99999e-01,1.90548e-06,9.99999e-01
4.375715758e-01,2.47166e-06,9.99999e-01,2.47166e-06,9.99999e-01
4.397594337e-01,3.18964e-06,9.99999e-01,3.18964e-06,9.99999e-01
4.419582309e-01,4.09549e-06,9.99999e-01,4.09549e-06,9.99999e-01
4.441680220e-01,5.23271e-06,9.99999e-01,5.23271e-06,9.99999e-01
4.463888621e-01,6.65341e-06,9.99999e-01,6.65341e-06,9.99999e-01
4.486208064e-01,8.41981e-06,9.99999e-01,8.41981e-06,9.99999e-01
4.508639105e-01,1.06057e-05,9.99999e-01,1.06057e-05,9.99999e-01
4.531182300e-01,1.32984e-05,9.99999e-01,1.32984e-05,9.99999e-01
4.553838212e-01,1.66003e-05,9.99999e-01,1.66003e-05,9.99999e-01
4.576607403e-01,2.06314e-05,9.99999e-01,2.06314e-05,9.99999e-01
4.599490440e-01,2.55317e-05,9.99999e-01,2.55317e-05,9.99999e-01
4.622487892e-01,3.14630e-05,9.99999e-01,3.14630e-05,9.99999e-01
4.645600332e-01,3.86127e-05,9.99999e-01,3.86127e-05,9.99999e-01
4.668828333e-01,4.71958e-05,9.99999e-01,4.71958e-05,9.99999e-01
4.692172475e-01,5.74585e-05,9.99999e-01,5.74585e-05,9.99999e-01
4.715633337e-01,6.96815e-05,9.99999e-01,6.96815e-05,9.99999e-01
4.739211504e-01,8.41834e-05,9.99999e-01,8.41834e-05,9.99999e-01
4.762907561e-01,1.01324e-04,9.99999e-01,1.01324e-04,9.99999e-01
4.786722099e-01,1.21510e-04,9.99999e-01,1.21510e-04,9.99999e-01
4.810655710e-01,1.45194e-04,9.99999e-01,1.45194e-04,9.99999e-01
4.834708988e-01,1.72886e-04,9.99999e-01,1.72886e-04,9.99999e-01
4.858882533e-01,2.05151e-04,9.99999e-01,2.05151e-04,9.99999e-01
4.883176946e-01,2.42616e-04,9.99999e-01,2.42616e-04,9.99999e-01
4.907592831e-01,2.85974e-04,9.99999e-01,2.85974e-04,9.99999e-01
4.932130795e-01,3.35987e-04,9.99999e-01,3.35987e-04,9.99999e-01
4.956791449e-01,3.93492e-04,9.99999e-01,3.93492e-04,9.99999e-01
4.981575406e-01,4.59404e-04,9.99999e-01,4.59404e-04,9.99999e-01
5.006483283e-01,5.34718e-04,9.99999e-01,5.34718e-04,9.99999e-01
5.031515699e-01,6.20515e-04,9.99999e-01,6.20515e-04,9.99999e-01
5.056673278e-01,7.17965e-04,9.99999e-01,7.17965e-04,9.99999e-01
5.081956644e-01,8.28329e-04,9.99999e-01,8.28329e-04,9.99999e-01
5.107366428e-01,9.52963e-04,9.99999e-01,9.52963e-04,9.99999e-01
5.132903260e-01,1.09332e-03,9.99999e-01,1.09332e-03,9.99999e-01
5.158567776e-01,1.25095e-03,9.99999e-01,1.25095e-03,9.99999e-01
5.184360615e-01,1.42750e-03,9.99999e-01,1.42750e-03,9.99999e-01
5.210282418e-01,1.62472e-03,9.99999e-01,1.62472e-03,9.99999e-01
5.236333830e-01,1.84448e-03,9.99999e-01,1.84448e-03,9.99999e-01
5.262515499e-01,2.08872e-03,9.99999e-01,2.08872e-03,9.99999e-01
5.288828077e-01,2.35949e-03,9.99999e-01,2.35949e-03,9.99999e-01
5.315272217e-01,2.65896e-03,9.99999e-01,2.65896e-03,9.99999e-01
5.341848578e-01,2.98937e-03,9.99999e-01,2.98937e-03,9.99999e-01
5.368557821e-01,3.35308e-03,9.99999e-01,3.35308e-03,9.99999e-01
5.395400610e-01,3.75251e-03,9.99999e-01,3.75251e-03,9.99999e-01
5.422377613e-01,4.19021e-03,9.99999e-01,4.19021e-03,9.99999e-01
5.449489501e-01,4.66877e-03,9.99999e-01,4.66877e-03,9.99999e-01
5.476736949e-01,5.19088e-03,9.99999e-01,5.19088e-03,9.99999e-01
5.504120634e-01,5.75932e-03,9.99999e-01,5.75932e-03,9.99999e-01
5.531641237e-01,6.37689e-03,9.99999e-01,6.37689e-03,9.99999e-01
5.559299443e-01,7.04650e-03,9.99999e-01,7.04650e-03,9.99999e-01
5.587095940e-01,7.77108e-03,9.99999e-01,7.77108e-03,9.99999e-01
5.615031420e-01,8.55361e-03,9.99999e-01,8.55361e-03,9.99999e-01
5.643106577e-01,9.39712e-03,9.99999e-01,9.39712e-03,9.99999e-01
5.671322110e-01,1.03046e-02,9.99999e-01,1.03046e-02,9.99999e-01
5.699678720e-01,1.12793e-02,9.99999e-01,1.12793e-02,9.99999e-01
5.728177114e-01,1.23240e-02,9.99999e-01,1.23240e-02,9.99999e-01
5.756818000e-01,1.34420e-02,9.99999e-01,1.34420e-02,9.99999e-01
5.785602090e-01,1.46363e-02,9.99999e-01,1.46363e-02,9.99999e-01
5.814530100e-01,1.59100e-02,9.99999e-01,1.59100e-02,9.99999e-01
5.843602750e-01,1.72660e-02,9.99999e-01,1.72660e-02,9.99999e-01
5.872820764e-01,1.87073e-02,9.99999e-01,1.87073e-02,9.99999e-01
5.902184868e-01,2.02369e-02,9.99999e-01,2.02369e-02,9.99999e-01
5.931695792e-01,2.18575e-02,9.99999e-01,2.18575e-02,9.99999e-01
5.961354271e-01,2.35721e-02,9.99999e-01,2.35721e-02,9.99999e-01
5.991161043e-01,2.53833e-02,9.99999e-01,2.53833e-02,9.99999e-01
6.021116848e-01,2.72936e-02,9.99999e-01,2.72936e-02,9.99999e-01
6.051222432e-01,2.93058e-02,9.99999e-01,2.93058e-02,9.99999e-01
6.081478544e-01,3.14221e-02,9.99999e-01,3.14221e-02,9.99999e-01
6.111885937e-01,3.36448e-02,9.99999e-01,3.36448e-02,9.99999e-01
6.142445367e-01,3.59762e-02,9.99999e-01,3.59762e-02,9.99999e-01
6.173157594e-01,3.84182e-02,9.99999e-01,3.84182e-02,9.99999e-01
6.204023382e-01,4.09728e-02,9.99999e-01,4.09728e-02,9.99999e-01
6.235043498e-01,4.36418e-02,9.99999e-01,4.36418e-02,9.99999e-01
6.266218716e-01,4.64267e-02,9.99999e-01,4.64267e-02,9.99999e-01
6.297549810e-01,4.93290e-02,9.99999e-01,4.93290e-02,9.99999e-01
6.329037559e-01,5.23500e-02,9.99999e-01,5.23500e-02,9.99999e-01
6.360682746e-01,5.54909e-02,9.99999e-01,5.54909e-02,9.99999e-01
6.392486160e-01,5.87525e-02,9.99999e-01,5.87525e-02,9.99999e-01
6.424448591e-01,6.21357e-02,9.99999e-01,6.21357e-02,9.99999e-01
6.456570834e-01,6.56411e-02,9.99999e-01,6.56411e-02,9.99999e-01
6.488853688e-01,6.92691e-02,9.99999e-01,6.92691e-02,9.99999e-01
6.521297956e-01,7.30199e-02,9.99999e-01,7.30199e-02,9.99999e-01
6.553904446e-01,7.68938e-02,9.99999e-01,7.68938e-02,9.99999e-01
6.586673968e-01,8.08905e-02,9.99999e-01,8.08905e-02,9.99999e-01
6.619607338e-01,8.50099e-02,9.99999e-01,8.50099e-02,9.99999e-01
6.652705375e-01,8.92514e-02,9.99999e-01,8.92514e-02,9.99999e-01
6.685968902e-01,9.36145e-02,9.99999e-01,9.36145e-02,9.99999e-01
6.719398746e-01,9.80983e-02,9.99999e-01,9.80983e-02,9.99999e-01
6.752995740e-01,1.02702e-01,9.99999e-01,1.02702e-01,9.99999e-01
6.786760719e-01,1.07424e-01,9.99999e-01,1.07424e-01,9.99999e-01
6.820694522e-01,1.12264e-01,9.99999e-01,1.12264e-01,9.99999e-01
6.854797995e-01,1.17220e-01,9.99999e-01,1.17220e-01,9.99999e-01
6.889071985e-01,1.22290e-01,9.99999e-01,1.22290e-01,9.99999e-01
6.923517345e-01,1.27473e-01,9.99999e-01,1.27473e-01,9.99999e-01
6.958134932e-01,1.32766e-01,9.99999e-01,1.32766e-01,9.99999e-01
6.992925606e-01,1.38168e-01,9.99999e-01,1.38168e-01,9.99999e-01
7.027890234e-01,1.43677e-01,9.99999e-01,1.43677e-01,9.99999e-01
7.063029686e-01,1.49290e-01,9.99999e-01,1.49290e-01,9.99999e-01
7.098344834e-01,1.55005e-01,9.99999e-01,1.55005e-01,9.99999e-01
7.133836558e-01,1.60819e-01,9.99999e-01,1.60819e-01,9.99999e-01
7.169505741e-01,1.66731e-01,9.99999e-01,1.66731e-01,9.99999e-01
7.205353270e-01,1.72736e-01,9.99999e-01,1.72736e-01,9.99999e-01
7.241380036e-01,1.78832e-01,9.99999e-01,1.78832e-01,9.99999e-01
7.277586936e-01,1.85017e-01,9.99999e-01,1.85017e-01,9.99999e-01
7.313974871e-01,1.91287e-01,9.99999e-01,1.91287e-01,9.99999e-01
7.350544745e-01,1.97640e-01,9.99999e-01,1.97640e-01,9.99999e-01
7.387297469e-01,2.04072e-01,9.99999e-01,2.04072e-01,9.99999e-01
7.424233956e-01,2.10580e-01,9.99999e-01,2.10580e-01,9.99999e-01
7.461355126e-01,2.17160e-01,9.99999e-01,2.17160e-01,9.99999e-01
7.498661902e-01,2.23811e-01,9.99999e-01,2.23811e-01,9.99999e-01
7.536155211e-01,2.30527e-01,9.99999e-01,2.30527e-01,9.99999e-01
7.573835987e-01,2.37307e-01,9.99999e-01,2.37307e-01,9.99999e-01
7.611705167e-01,2.44146e-01,9.99999e-01,2.44146e-01,9.99999e-01
7.649763693e-01,2.51041e-01,9.99999e-01,2.51041e-01,9.99999e-01
7.688012511e-01,2.57989e-01,9.99999e-01,2.57989e-01,9.99999e-01
7.726452574e-01,2.64986e-01,9.99999e-01,2.64986e-01,9.99999e-01
7.765084837e-01,2.72030e-01,9.99999e-01,2.72030e-01,9.99999e-01
7.803910261e-01,2.64690e-01,9.48316e-01,2.79116e-01,9.99999e-01
7.842929812e-01,2.19383e-01,7.66427e-01,2.86241e-01,9.99999e-01
7.882144461e-01,2.21735e-01,7.55739e-01,2.93401e-01,9.99999e-01
7.921555184e-01,2.54431e-01,8.46424e-01,3.00594e-01,9.99999e-01
7.961162960e-01,2.74766e-01,8.92628e-01,3.07817e-01,9.99999e-01
8.000968774e-01,2.96291e-01,9.40412e-01,3.15065e-01,9.99999e-01
8.040973618e-01,3.12152e-01,9.68409e-01,3.22335e-01,9.99999e-01
8.081178486e-01,3.24839e-01,9.85481e-01,3.29625e-01,9.99999e-01
8.121584379e-01,3.35390e-01,9.95427e-01,3.36930e-01,9.99999e-01
8.162192301e-01,3.43900e-01,9.98987e-01,3.44249e-01,9.99999e-01
8.203003262e-01,3.51570e-01,9.99981e-01,3.51577e-01,9.99999e-01
8.244018279e-01,3.58911e-01,9.99999e-01,3.58911e-01,9.99999e-01
8.285238370e-01,3.66250e-01,9.99999e-01,3.66250e-01,9.99999e-01
8.326664562e-01,3.73589e-01,9.99999e-01,3.73589e-01,9.99999e-01
8.368297885e-01,3.80926e-01,9.99999e-01,3.80926e-01,9.99999e-01
8.410139374e-01,3.88257e-01,9.99999e-01,3.88257e-01,9.99999e-01
8.452190071e-01,3.95581e-01,9.99999e-01,3.95581e-01,9.99999e-01
8.494451021e-01,4.02894e-01,9.99999e-01,4.02894e-01,9.99999e-01
8.536923276e-01,4.10194e-01,9.99999e-01,4.10194e-01,9.99999e-01
8.579607893e-01,4.17478e-01,9.99999e-01,4.17478e-01,9.99999e-01
8.622505932e-01,4.24744e-01,9.99999e-01,4.24744e-01,9.99999e-01
8.665618462e-01,3.90734e-01,9.04500e-01,4.31989e-01,9.99999e-01
8.708946554e-01,2.27353e-01,5.17640e-01,4.39211e-01,9.99999e-01
8.752491287e-01,2.59503e-01,5.81313e-01,4.46407e-01,9.99999e-01
8.796253743e-01,3.35175e-01,7.38960e-01,4.53576e-01,9.99999e-01
8.840235012e-01,3.93439e-01,8.53976e-01,4.60714e-01,9.99999e-01
8.884436187e-01,4.39311e-01,9.39056e-01,4.67821e-01,9.99999e-01
8.928858368e-01,4.63007e-01,9.74968e-01,4.74894e-01,9.99999e-01
8.973502660e-01,4.78938e-01,9.93789e-01,4.81931e-01,9.99999e-01
9.018370173e-01,4.88593e-01,9.99310e-01,4.88930e-01,9.99999e-01
9.063462024e-01,4.87774e-01,9.83635e-01,4.95889e-01,9.99999e-01
9.108779334e-01,4.83168e-01,9.60941e-01,5.02807e-01,9.99999e-01
9.154323231e-01,5.04854e-01,9.90525e-01,5.09682e-01,9.99999e-01
9.200094847e-01,4.55670e-01,8.82203e-01,5.16513e-01,9.99999e-01
9.246095321e-01,4.30950e-01,8.23527e-01,5.23297e-01,9.99999e-01
9.292325798e-01,4.56961e-01,8.62134e-01,5.30034e-01,9.99999e-01
9.338787427e-01,4.63551e-01,8.63669e-01,5.36722e-01,9.99999e-01
9.385481364e-01,4.87717e-01,8.97594e-01,5.43360e-01,9.99999e-01
9.432408771e-01,5.14451e-01,9.35457e-01,5.49946e-01,9.99999e-01
9.479570815e-01,5.37851e-01,9.66523e-01,5.56480e-01,9.99999e-01
9.526968669e-01,5.53768e-01,9.83671e-01,5.62960e-01,9.99999e-01
9.574603512e-01,5.65386e-01,9.92975e-01,5.69385e-01,9.99999e-01
9.622476530e-01,5.74488e-01,9.97800e-01,5.75755e-01,9.99999e-01
9.670588912e-01,5.81682e-01,9.99336e-01,5.82068e-01,9.99999e-01
9.718941857e-01,5.88294e-01,9.99951e-01,5.88323e-01,9.99999e-01
9.767536566e-01,5.94520e-01,9.99999e-01,5.94520e-01,9.99999e-01
9.816374249e-01,6.00658e-01,9.99999e-01,6.00658e-01,9.99999e-01
9.865456120e-01,6.06736e-01,9.99999e-01,6.06736e-01,9.99999e-01
9.914783401e-01,6.12754e-01,9.99999e-01,6.12754e-01,9.99999e-01
9.964357318e-01,6.18711e-01,9.99999e-01,6.18711e-01,9.99999e-01
1.001417910e+00,6.24606e-01,9.99999e-01,6.24606e-01,9.99999e-01
1.006425000e+00,6.30440e-01,9.99999e-01,6.30440e-01,9.99999e-01
1.011457125e+00,6.36211e-01,9.99999e-01,6.36211e-01,9.99999e-01
1.016514411e+00,6.41919e-01,9.99999e-01,6.41919e-01,9.99999e-01
1.021596983e+00,6.47517e-01,9.99926e-01,6.47565e-01,9.99999e-01
1.026704968e+00,6.48964e-01,9.93595e-01,6.53147e-01,9.99999e-01
1.031838492e+00,6.20070e-01,9.41403e-01,6.58665e-01,9.99999e-01
1.036997685e+00,6.15279e-02,9.26457e-02,6.64120e-01,9.99999e-01
1.042182673e+00,1.87519e-02,2.80083e-02,6.69511e-01,9.99999e-01
1.047393587e+00,3.33000e-02,4.93451e-02,6.74838e-01,9.99999e-01
1.052630555e+00,1.01847e-04,1.49752e-04,6.80101e-01,9.99999e-01
1.057893707e+00,3.26099e-04,4.75848e-04,6.85299e-01,9.99999e-01
1.063183176e+00,2.32328e-03,3.36496e-03,6.90434e-01,9.99999e-01
1.068499092e+00,1.15094e-02,1.65483e-02,6.95504e-01,9.99999e-01
1.073841587e+00,5.10244e-02,7.28388e-02,7.00511e-01,9.99999e-01
1.079210795e+00,1.34498e-01,1.90654e-01,7.05453e-01,9.99999e-01
1.084606849e+00,2.81194e-01,3.95863e-01,7.10332e-01,9.99999e-01
1.090029883e+00,4.41531e-01,6.17399e-01,7.15147e-01,9.99999e-01
1.095480033e+00,5.67101e-01,7.87751e-01,7.19899e-01,9.99999e-01
1.100957433e+00,6.45766e-01,8.91218e-01,7.24587e-01,9.99999e-01
1.106462220e+00,6.95211e-01,9.53372e-01,7.29213e-01,9.99999e-01
1.111994531e+00,7.20900e-01,9.82453e-01,7.33775e-01,9.99999e-01
1.117554504e+00,7.35065e-01,9.95651e-01,7.38276e-01,9.99999e-01
1.123142276e+00,7.42499e-01,9.99710e-01,7.42714e-01,9.99999e-01
1.128757988e+00,7.47090e-01,9.99999e-01,7.47090e-01,9.99999e-01
1.134401778e+00,7.51405e-01,9.99999e-01,7.51405e-01,9.99999e-01
1.140073787e+00,7.55659e-01,9.99999e-01,7.55659e-01,9.99999e-01
1.145774156e+00,7.59853e-01,9.99999e-01,7.59853e-01,9.99999e-01
1.151503026e+00,7.63986e-01,9.99999e-01,7.63986e-01,9.99999e-01
1.157260541e+00,7.68059e-01,9.99999e-01,7.68059e-01,9.99999e-01
1.163046844e+00,7.72073e-01,9.99999e-01,7.72073e-01,9.99999e-01
1.168862078e+00,7.76028e-01,9.99999e-01,7.76028e-01,9.99999e-01
1.174706389e+00,7.79925e-01,9.99999e-01,7.79925e-01,9.99999e-01
1.180579921e+00,7.83763e-01,9.99999e-01,7.83763e-01,9.99999e-01
1.186482820e+00,7.87540e-01,9.99993e-01,7.87544e-01,9.99999e-01
1.192415234e+00,7.73743e-01,9.77850e-01,7.91268e-01,9.99999e-01
1.198377311e+00,4.34059e-01,5.46030e-01,7.94936e-01,9.99999e-01
1.204369197e+00,2.81797e-18,3.52887e-18,7.98548e-01,9.99999e-01
1.210391043e+00,4.19088e-71,5.22486e-71,8.02104e-01,9.99999e-01
1.216442998e+00,1.17036e-61,1.45277e-61,8.05605e-01,9.99999e-01
1.222525213e+00,9.52564e-61,1.17738e-60,8.09052e-01,9.99999e-01
1.228637839e+00,5.37252e-47,6.61277e-47,8.12445e-01,9.99999e-01
1.234781029e+00,7.08027e-36,8.67907e-36,8.15786e-01,9.99999e-01
1.240954934e+00,7.16765e-20,8.75092e-20,8.19073e-01,9.99999e-01
1.247159708e+00,6.89079e-13,8.37980e-13,8.22308e-01,9.99999e-01
1.253395507e+00,8.60021e-07,1.04183e-06,8.25492e-01,9.99999e-01
1.259662485e+00,1.85531e-04,2.23901e-04,8.28625e-01,9.99999e-01
1.265960797e+00,9.00903e-03,1.08320e-02,8.31708e-01,9.99999e-01
1.272290601e+00,9.79476e-02,1.17339e-01,8.34740e-01,9.99999e-01
1.278652054e+00,1.01478e-01,1.21136e-01,8.37724e-01,9.99999e-01
1.285045314e+00,8.21960e-04,9.77756e-04,8.40659e-01,9.99999e-01
1.291470541e+00,7.14389e-09,8.46887e-09,8.43546e-01,9.99999e-01
1.297927893e+00,2.32674e-04,2.74903e-04,8.46386e-01,9.99999e-01
1.304417533e+00,2.22966e-02,2.62567e-02,8.49179e-01,9.99999e-01
1.310939621e+00,5.67640e-03,6.66302e-03,8.51925e-01,9.99999e-01
1.317494319e+00,1.11996e-24,1.31047e-24,8.54626e-01,9.99999e-01
1.324081790e+00,1.56493e-16,1.82545e-16,8.57282e-01,9.99999e-01
1.330702199e+00,8.30895e-10,9.66275e-10,8.59894e-01,9.99999e-01
1.337355710e+00,3.03425e-09,3.51812e-09,8.62461e-01,9.99999e-01
1.344042489e+00,1.23529e-09,1.42810e-09,8.64986e-01,9.99999e-01
1.350762701e+00,4.36666e-10,5.03380e-10,8.67467e-01,9.99999e-01
1.357516515e+00,1.56153e-06,1.79505e-06,8.69907e-01,9.99999e-01
1.364304097e+00,1.02107e-04,1.17054e-04,8.72305e-01,9.99999e-01
1.371125618e+00,8.25759e-03,9.44088e-03,8.74662e-01,9.99999e-01
1.377981246e+00,1.72363e-02,1.96541e-02,8.76979e-01,9.99999e-01
1.384871152e+00,8.93186e-02,1.01584e-01,8.79256e-01,9.99999e-01
1.391795508e+00,1.05978e-01,1.20226e-01,8.81493e-01,9.99999e-01
1.398754485e+00,2.37013e-01,2.68208e-01,8.83692e-01,9.99999e-01
1.405748258e+00,3.36945e-01,3.80362e-01,8.85853e-01,9.99999e-01
1.412776999e+00,4.80780e-01,5.41433e-01,8.87977e-01,9.99999e-01
1.419840884e+00,4.42094e-01,4.96699e-01,8.90063e-01,9.99999e-01
1.426940089e+00,2.63044e-02,2.94855e-02,8.92113e-01,9.99999e-01
1.434074789e+00,0.00000e+00,0.00000e+00,8.94127e-01,9.99999e-01
1.441245163e+00,0.00000e+00,0.00000e+00,8.96105e-01,9.99999e-01
1.448451389e+00,0.00000e+00,0.00000e+00,8.98049e-01,9.99999e-01
1.455693646e+00,0.00000e+00,0.00000e+00,8.99959e-01,9.99999e-01
1.462972114e+00,9.97179e-282,1.10572e-281,9.01834e-01,9.99999e-01
1.470286975e+00,3.00586e-117,3.32625e-117,9.03677e-01,9.99999e-01
1.477638409e+00,6.80489e-74,7.51516e-74,9.05486e-01,9.99999e-01
1.485026601e+00,2.14451e-41,2.36371e-41,9.07264e-01,9.99999e-01
1.492451734e+00,2.72943e-35,3.00264e-35,9.09010e-01,9.99999e-01
1.499913993e+00,1.14878e-15,1.26139e-15,9.10724e-01,9.99999e-01
1.507413563e+00,2.05103e-14,2.24793e-14,9.12408e-01,9.99999e-01
1.514950631e+00,7.42454e-16,8.12258e-16,9.14061e-01,9.99999e-01
1.522525384e+00,1.09987e-52,1.20114e-52,9.15685e-01,9.99999e-01
1.530138011e+00,4.40865e-125,4.80621e-125,9.17280e-01,9.99999e-01
1.537788701e+00,1.15224e-92,1.25401e-92,9.18845e-01,9.99999e-01
1.545477645e+00,5.48957e-20,5.96443e-20,9.20383e-01,9.99999e-01
1.553205033e+00,1.80810e-14,1.96129e-14,9.21892e-01,9.99999e-01
1.560971058e+00,7.72806e-15,8.36936e-15,9.23374e-01,9.99999e-01
1.568775913e+00,3.18715e-316,3.44620e-316,9.24830e-01,9.99999e-01
1.576619793e+00,0.00000e+00,0.00000e+00,9.26258e-01,9.99999e-01
1.584502892e+00,0.00000e+00,0.00000e+00,9.27661e-01,9.99999e-01
1.592425406e+00,7.56558e-282,8.14345e-282,9.29038e-01,9.99999e-01
1.600387533e+00,0.00000e+00,0.00000e+00,9.30389e-01,9.99999e-01
1.608389471e+00,0.00000e+00,0.00000e+00,9.31716e-01,9.99999e-01
1.616431418e+00,0.00000e+00,0.00000e+00,9.33019e-01,9.99999e-01
1.624513575e+00,0.00000e+00,0.00000e+00,9.34297e-01,9.99999e-01
1.632636143e+00,6.89403e-266,7.36894e-266,9.35552e-01,9.99999e-01
1.640799324e+00,1.15670e-108,1.23475e-108,9.36784e-01,9.99999e-01
1.649003321e+00,1.15824e-108,1.23480e-108,9.37993e-01,9.99999e-01
1.657248337e+00,4.34755e-84,4.62909e-84,9.39180e-01,9.99999e-01
1.665534579e+00,1.20363e-84,1.27999e-84,9.40345e-01,9.99999e-01
1.673862252e+00,3.66685e-54,3.89474e-54,9.41488e-01,9.99999e-01
1.682231563e+00,1.16665e-37,1.23768e-37,9.42610e-01,9.99999e-01
1.690642721e+00,3.72099e-21,3.94293e-21,9.43711e-01,9.99999e-01
1.699095934e+00,1.25650e-13,1.32993e-13,9.44792e-01,9.99999e-01
1.707591414e+00,2.39081e-07,2.52768e-07,9.45852e-01,9.99999e-01
1.716129371e+00,1.50333e-04,1.58765e-04,9.46893e-01,9.99999e-01
1.724710018e+00,6.54623e-03,6.90593e-03,9.47914e-01,9.99999e-01
1.733333568e+00,3.64545e-02,3.84170e-02,9.48916e-01,9.99999e-01
1.742000236e+00,1.41372e-01,1.48828e-01,9.49899e-01,9.99999e-01
1.750710237e+00,1.32084e-03,1.38909e-03,9.50864e-01,9.99999e-01
1.759463788e+00,1.02742e-51,1.07943e-51,9.51811e-01,9.99999e-01
1.768261107e+00,3.99129e-54,4.18927e-54,9.52740e-01,9.99999e-01
1.777102413e+00,1.28924e-52,1.35189e-52,9.53651e-01,9.99999e-01
1.785987925e+00,1.98814e-49,2.08281e-49,9.54546e-01,9.99999e-01
1.794917864e+00,3.31263e-47,3.46718e-47,9.55423e-01,9.99999e-01
1.803892454e+00,2.07847e-45,2.17348e-45,9.56284e-01,9.99999e-01
1.812911916e+00,1.25670e-43,1.31299e-43,9.57129e-01,9.99999e-01
1.821976476e+00,1.06279e-43,1.10943e-43,9.57957e-01,9.99999e-01
1.831086358e+00,3.45913e-35,3.60788e-35,9.58771e-01,9.99999e-01
1.840241790e+00,5.20774e-30,5.42716e-30,9.59568e-01,9.99999e-01
1.849442999e+00,6.68427e-21,6.96023e-21,9.60351e-01,9.99999e-01
1.858690214e+00,1.30095e-19,1.35357e-19,9.61118e-01,9.99999e-01
1.867983665e+00,3.15155e-20,3.27647e-20,9.61872e-01,9.99999e-01
1.877323583e+00,1.93791e-98,2.01318e-98,9.62610e-01,9.99999e-01
