#,Wave/freq,Total,CO2,Rayleigh,CIA
4.000000000e-01,1.30228e-09,9.99999e-01,1.30228e-09,9.99999e-01
4.020000000e-01,1.95164e-09,9.99999e-01,1.95164e-09,9.99999e-01
4.040100000e-01,2.90026e-09,9.99999e-01,2.90026e-09,9.99999e-01
4.060300500e-01,4.27636e-09,9.99999e-01,4.27636e-09,9.99999e-01
4.080602003e-01,6.25722e-09,9.99999e-01,6.25722e-09,9.99999e-01
4.101005013e-01,9.08705e-09,9.99999e-01,9.08705e-09,9.99999e-01
4.121510038e-01,1.30998e-08,9.99999e-01,1.30998e-08,9.99999e-01
4.142117588e-01,1.87486e-08,9.99999e-01,1.87486e-08,9.99999e-01
4.162828176e-01,2.66438e-08,9.99999e-01,2.66438e-08,9.99999e-01
4.183642317e-01,3.76018e-08,9.99999e-01,3.76018e-08,9.99999e-01
4.204560528e-01,5.27069e-08,9.99999e-01,5.27069e-08,9.99999e-01
4.225583331e-01,7.33885e-08,9.99999e-01,7.33885e-08,9.99999e-01
4.246711247e-01,1.01520e-07,9.99999e-01,1.01520e-07,9.99999e-01
4.267944804e-01,1.39536e-07,9.99999e-01,1.39536e-07,9.99999e-01
4.289284528e-01,1.90589e-07,9.99999e-01,1.90589e-07,9.99999e-01
4.310730950e-01,2.58721e-07,9.99999e-01,2.58721e-07,9.99999e-01
4.332284605e-01,3.49096e-07,9.99999e-01,3.49096e-07,9.99999e-01
4.353946028e-01,4.68261e-07,9.99999e-01,4.68261e-07,9.99999e-01
4.375715758e-01,6.24469e-07,9.99999e-01,6.24469e-07,9.99999e-01
4.397594337e-01,8.28066e-07,9.99999e-01,8.28066e-07,9.99999e-01
4.419582309e-01,1.09194e-06,9.99999e-01,1.09194e-06,9.99999e-01
4.441680220e-01,1.43205e-06,9.99999e-01,1.43205e-06,9.99999e-01
4.463888621e-01,1.86807e-06,9.99999e-01,1.86807e-06,9.99999e-01
4.486208064e-01,2.42408e-06,9.99999e-01,2.42408e-06,9.99999e-01
4.508639105e-01,3.12944e-06,9.99999e-01,3.12944e-06,9.99999e-01
4.531182300e-01,4.01971e-06,9.99999e-01,4.01971e-06,9.99999e-01
4.553838212e-01,5.13777e-06,9.99999e-01,5.13777e-06,9.99999e-01
4.576607403e-01,6.53507e-06,9.99999e-01,6.53507e-06,9.99999e-01
4.599490440e-01,8.27298e-06,9.99999e-01,8.27298e-06,9.99999e-01
4.622487892e-01,1.04244e-05,9.99999e-01,1.04244e-05,9.99999e-01
4.645600332e-01,1.30754e-05,9.99999e-01,1.30754e-05,9.99999e-01
4.668828333e-01,1.63275e-05,9.99999e-01,1.63275e-05,9.99999e-01
4.692172475e-01,2.02990e-05,9.99999e-01,2.02990e-05,9.99999e-01
4.715633337e-01,2.51284e-05,9.99999e-01,2.51284e-05,9.99999e-01
4.739211504e-01,3.09758e-05,9.99999e-01,3.09758e-05,9.99999e-01
4.762907561e-01,3.80265e-05,9.99999e-01,3.80265e-05,9.99999e-01
4.786722099e-01,4.64933e-05,9.99999e-01,4.64933e-05,9.99999e-01
4.810655710e-01,5.66200e-05,9.99999e-01,5.66200e-05,9.99999e-01
4.834708988e-01,6.86846e-05,9.99999e-01,6.86846e-05,9.99999e-01
4.858882533e-01,8.30026e-05,9.99999e-01,8.30026e-05,9.99999e-01
4.883176946e-01,9.99309e-05,9.99999e-01,9.99309e-05,9.99999e-01
4.907592831e-01,1.19871e-04,9.99999e-01,1.19871e-04,9.99999e-01
4.932130795e-01,1.43275e-04,9.99999e-01,1.43275e-04,9.99999e-01
4.956791449e-01,1.70646e-04,9.99999e-01,1.70646e-04,9.99999e-01
4.981575406e-01,2.02545e-04,9.99999e-01,2.02545e-04,9.99999e-01
5.006483283e-01,2.39594e-04,9.99999e-01,2.39594e-04,9.99999e-01
5.031515699e-01,2.82482e-04,9.99999e-01,2.82482e-04,9.99999e-01
5.056673278e-01,3.31965e-04,9.99999e-01,3.31965e-04,9.99999e-01
5.081956644e-01,3.88875e-04,9.99999e-01,3.88875e-04,9.99999e-01
5.107366428e-01,4.54119e-04,9.99999e-01,4.54119e-04,9.99999e-01
5.132903260e-01,5.28687e-04,9.99999e-01,5.28687e-04,9.99999e-01
5.158567776e-01,6.13654e-04,9.99999e-01,6.13654e-04,9.99999e-01
5.184360615e-01,7.10182e-04,9.99999e-01,7.10182e-04,9.99999e-01
5.210282418e-01,8.19527e-04,9.99999e-01,8.19527e-04,9.99999e-01
5.236333830e-01,9.43035e-04,9.99999e-01,9.43035e-04,9.99999e-01
5.262515499e-01,1.08215e-03,9.99999e-01,1.08215e-03,9.99999e-01
5.288828077e-01,1.23842e-03,9.99999e-01,1.23842e-03,9.99999e-01
5.315272217e-01,1.41349e-03,9.99999e-01,1.41349e-03,9.99999e-01
5.341848578e-01,1.60909e-03,9.99999e-01,1.60909e-03,9.99999e-01
5.368557821e-01,1.82708e-03,9.99999e-01,1.82708e-03,9.99999e-01
5.395400610e-01,2.06940e-03,9.99999e-01,2.06940e-03,9.99999e-01
5.422377613e-01,2.33810e-03,9.99999e-01,2.33810e-03,9.99999e-01
5.449489501e-01,2.63533e-03,9.99999e-01,2.63533e-03,9.99999e-01
5.476736949e-01,2.96333e-03,9.99999e-01,2.96333e-03,9.99999e-01
5.504120634e-01,3.32444e-03,9.99999e-01,3.32444e-03,9.99999e-01
5.531641237e-01,3.72109e-03,9.99999e-01,3.72109e-03,9.99999e-01
5.559299443e-01,4.15581e-03,9.99999e-01,4.15581e-03,9.99999e-01
5.587095940e-01,4.63120e-03,9.99999e-01,4.63120e-03,9.99999e-01
5.615031420e-01,5.14993e-03,9.99999e-01,5.14993e-03,9.99999e-01
5.643106577e-01,5.71477e-03,9.99999e-01,5.71477e-03,9.99999e-01
5.671322110e-01,6.32854e-03,9.99999e-01,6.32854e-03,9.99999e-01
5.699678720e-01,6.99413e-03,9.99999e-01,6.99413e-03,9.99999e-01
5.728177114e-01,7.71446e-03,9.99999e-01,7.71446e-03,9.99999e-01
5.756818000e-01,8.49251e-03,9.99999e-01,8.49251e-03,9.99999e-01
5.785602090e-01,9.33132e-03,9.99999e-01,9.33132e-03,9.99999e-01
5.814530100e-01,1.02339e-02,9.99999e-01,1.02339e-02,9.99999e-01
5.843602750e-01,1.12034e-02,9.99999e-01,1.12034e-02,9.99999e-01
5.872820764e-01,1.22427e-02,9.99999e-01,1.22427e-02,9.99999e-01
5.902184868e-01,1.33551e-02,9.99999e-01,1.33551e-02,9.99999e-01
5.931695792e-01,1.45436e-02,9.99999e-01,1.45436e-02,9.99999e-01
5.961354271e-01,1.58111e-02,9.99999e-01,1.58111e-02,9.99999e-01
5.991161043e-01,1.71608e-02,9.99999e-01,1.71608e-02,9.99999e-01
6.021116848e-01,1.85956e-02,9.99999e-01,1.85956e-02,9.99999e-01
6.051222432e-01,2.01184e-02,9.99999e-01,2.01184e-02,9.99999e-01
6.081478544e-01,2.17321e-02,9.99999e-01,2.17321e-02,9.99999e-01
6.111885937e-01,2.34395e-02,9.99999e-01,2.34395e-02,9.99999e-01
6.142445367e-01,2.52432e-02,9.99999e-01,2.52432e-02,9.99999e-01
6.173157594e-01,2.71461e-02,9.99999e-01,2.71461e-02,9.99999e-01
6.204023382e-01,2.91504e-02,9.99999e-01,2.91504e-02,9.99999e-01
6.235043498e-01,3.12588e-02,9.99999e-01,3.12588e-02,9.99999e-01
6.266218716e-01,3.34734e-02,9.99999e-01,3.34734e-02,9.99999e-01
6.297549810e-01,3.57965e-02,9.99999e-01,3.57965e-02,9.99999e-01
6.329037559e-01,3.82302e-02,9.99999e-01,3.82302e-02,9.99999e-01
6.360682746e-01,4.07762e-02,9.99999e-01,4.07762e-02,9.99999e-01
6.392486160e-01,4.34365e-02,9.99999e-01,4.34365e-02,9.99999e-01
6.424448591e-01,4.62126e-02,9.99999e-01,4.62126e-02,9.99999e-01
6.456570834e-01,4.91060e-02,9.99999e-01,4.91060e-02,9.99999e-01
6.488853688e-01,5.21181e-02,9.99999e-01,5.21181e-02,9.99999e-01
6.521297956e-01,5.52498e-02,9.99999e-01,5.52498e-02,9.99999e-01
6.553904446e-01,5.85023e-02,9.99999e-01,5.85023e-02,9.99999e-01
6.586673968e-01,6.18763e-02,9.99999e-01,6.18763e-02,9.99999e-01
6.619607338e-01,6.53725e-02,9.99999e-01,6.53725e-02,9.99999e-01
6.652705375e-01,6.89912e-02,9.99999e-01,6.89912e-02,9.99999e-01
6.685968902e-01,7.27328e-02,9.99999e-01,7.27328e-02,9.99999e-01
6.719398746e-01,7.65974e-02,9.99999e-01,7.65974e-02,9.99999e-01
6.752995740e-01,8.05849e-02,9.99999e-01,8.05849e-02,9.99999e-01
6.786760719e-01,8.46950e-02,9.99999e-01,8.46950e-02,9.99999e-01
6.820694522e-01,8.89273e-02,9.99999e-01,8.89273e-02,9.99999e-01
6.854797995e-01,9.32812e-02,9.99999e-01,9.32812e-02,9.99999e-01
6.889071985e-01,9.77560e-02,9.99999e-01,9.77560e-02,9.99999e-01
6.923517345e-01,1.02351e-01,9.99999e-01,1.02351e-01,9.99999e-01
6.958134932e-01,1.07064e-01,9.99999e-01,1.07064e-01,9.99999e-01
6.992925606e-01,1.11895e-01,9.99999e-01,1.11895e-01,9.99999e-01
7.027890234e-01,1.16842e-01,9.99999e-01,1.16842e-01,9.99999e-01
7.063029686e-01,1.21904e-01,9.99999e-01,1.21904e-01,9.99999e-01
7.098344834e-01,1.27078e-01,9.99999e-01,1.27078e-01,9.99999e-01
7.133836558e-01,1.32363e-01,9.99999e-01,1.32363e-01,9.99999e-01
7.169505741e-01,1.37757e-01,9.99999e-01,1.37757e-01,9.99999e-01
7.205353270e-01,1.43258e-01,9.99999e-01,1.43258e-01,9.99999e-01
7.241380036e-01,1.48863e-01,9.99999e-01,1.48863e-01,9.99999e-01
7.277586936e-01,1.54571e-01,9.99999e-01,1.54571e-01,9.99999e-01
7.313974871e-01,1.60377e-01,9.99999e-01,1.60377e-01,9.99999e-01
7.350544745e-01,1.66281e-01,9.99999e-01,1.66281e-01,9.99999e-01
7.387297469e-01,1.72280e-01,9.99999e-01,1.72280e-01,9.99999e-01
7.424233956e-01,1.78369e-01,9.99999e-01,1.78369e-01,9.99999e-01
7.461355126e-01,1.84548e-01,9.99999e-01,1.84548e-01,9.99999e-01
7.498661902e-01,1.90812e-01,9.99999e-01,1.90812e-01,9.99999e-01
7.536155211e-01,1.97158e-01,9.99999e-01,1.97158e-01,9.99999e-01
7.573835987e-01,2.03584e-01,9.99999e-01,2.03584e-01,9.99999e-01
7.611705167e-01,2.10086e-01,9.99999e-01,2.10086e-01,9.99999e-01
7.649763693e-01,2.16662e-01,9.99999e-01,2.16662e-01,9.99999e-01
7.688012511e-01,2.23307e-01,9.99999e-01,2.23307e-01,9.99999e-01
7.726452574e-01,2.30019e-01,9.99999e-01,2.30019e-01,9.99999e-01
7.765084837e-01,2.36793e-01,9.99999e-01,2.36793e-01,9.99999e-01
7.803910261e-01,2.29932e-01,9.43781e-01,2.43628e-01,9.99999e-01
7.842929812e-01,1.86927e-01,7.46156e-01,2.50519e-01,9.99999e-01
7.882144461e-01,1.89233e-01,7.34990e-01,2.57463e-01,9.99999e-01
7.921555184e-01,2.19964e-01,8.31758e-01,2.64457e-01,9.99999e-01
7.961162960e-01,2.39449e-01,8.81958e-01,2.71497e-01,9.99999e-01
8.000968774e-01,2.60278e-01,9.34301e-01,2.78580e-01,9.99999e-01
8.040973618e-01,2.75734e-01,9.65109e-01,2.85702e-01,9.99999e-01
8.081178486e-01,2.88160e-01,9.83948e-01,2.92860e-01,9.99999e-01
8.121584379e-01,2.98534e-01,9.94942e-01,3.00051e-01,9.99999e-01
8.162192301e-01,3.06927e-01,9.98879e-01,3.07271e-01,9.99999e-01
8.203003262e-01,3.14511e-01,9.99979e-01,3.14517e-01,9.99999e-01
8.244018279e-01,3.21786e-01,9.99999e-01,3.21786e-01,9.99999e-01
8.285238370e-01,3.29074e-01,9.99999e-01,3.29074e-01,9.99999e-01
8.326664562e-01,3.36379e-01,9.99999e-01,3.36379e-01,9.99999e-01
8.368297885e-01,3.43696e-01,9.99999e-01,3.43696e-01,9.99999e-01
8.410139374e-01,3.51024e-01,9.99999e-01,3.51024e-01,9.99999e-01
8.452190071e-01,3.58358e-01,9.99999e-01,3.58358e-01,9.99999e-01
8.494451021e-01,3.65696e-01,9.99999e-01,3.65696e-01,9.99999e-01
8.536923276e-01,3.73035e-01,9.99999e-01,3.73035e-01,9.99999e-01
8.579607893e-01,3.80372e-01,9.99999e-01,3.80372e-01,9.99999e-01
8.622505932e-01,3.87705e-01,9.99999e-01,3.87705e-01,9.99999e-01
8.665618462e-01,3.55417e-01,8.99722e-01,3.95029e-01,9.99999e-01
8.708946554e-01,1.95329e-01,4.85478e-01,4.02343e-01,9.99999e-01
8.752491287e-01,2.25465e-01,5.50392e-01,4.09644e-01,9.99999e-01
8.796253743e-01,2.98600e-01,7.16188e-01,4.16930e-01,9.99999e-01
8.840235012e-01,3.56279e-01,8.39889e-01,4.24197e-01,9.99999e-01
8.884436187e-01,4.02456e-01,9.32813e-01,4.31443e-01,9.99999e-01
8.928858368e-01,4.26535e-01,9.72343e-01,4.38667e-01,9.99999e-01
8.973502660e-01,4.42803e-01,9.93130e-01,4.45865e-01,9.99999e-01
9.018370173e-01,4.52691e-01,9.99237e-01,4.53036e-01,9.99999e-01
9.063462024e-01,4.51867e-01,9.81940e-01,4.60177e-01,9.99999e-01
9.108779334e-01,4.47140e-01,9.56885e-01,4.67286e-01,9.99999e-01
9.154323231e-01,4.69393e-01,9.89524e-01,4.74362e-01,9.99999e-01
9.200094847e-01,4.19791e-01,8.72017e-01,4.81401e-01,9.99999e-01
9.246095321e-01,3.94060e-01,8.06833e-01,4.88403e-01,9.99999e-01
9.292325798e-01,4.20543e-01,8.48955e-01,4.95366e-01,9.99999e-01
9.338787427e-01,4.27196e-01,8.50501e-01,5.02287e-01,9.99999e-01
9.385481364e-01,4.51833e-01,8.87399e-01,5.09165e-01,9.99999e-01
9.432408771e-01,4.79283e-01,9.28844e-01,5.15999e-01,9.99999e-01
9.479570815e-01,5.03459e-01,9.63027e-01,5.22787e-01,9.99999e-01
9.526968669e-01,5.19971e-01,9.81951e-01,5.29528e-01,9.99999e-01
9.574603512e-01,5.32053e-01,9.92230e-01,5.36220e-01,9.99999e-01
9.622476530e-01,5.41540e-01,9.97566e-01,5.42861e-01,9.99999e-01
9.670588912e-01,5.49049e-01,9.99266e-01,5.49451e-01,9.99999e-01
9.718941857e-01,5.55959e-01,9.99945e-01,5.55989e-01,9.99999e-01
9.767536566e-01,5.62473e-01,9.99999e-01,5.62473e-01,9.99999e-01
9.816374249e-01,5.68903e-01,9.99999e-01,5.68903e-01,9.99999e-01
9.865456120e-01,5.75276e-01,9.99999e-01,5.75276e-01,9.99999e-01
9.914783401e-01,5.81594e-01,9.99999e-01,5.81594e-01,9.99999e-01
9.964357318e-01,5.87853e-01,9.99999e-01,5.87853e-01,9.99999e-01
1.001417910e+00,5.94055e-01,9.99999e-01,5.94055e-01,9.99999e-01
1.006425000e+00,6.00197e-01,9.99999e-01,6.00197e-01,9.99999e-01
1.011457125e+00,6.06280e-01,9.99999e-01,6.06280e-01,9.99999e-01
1.016514411e+00,6.12302e-01,9.99999e-01,6.12302e-01,9.99999e-01
1.021596983e+00,6.18214e-01,9.99918e-01,6.18264e-01,9.99999e-01
1.026704968e+00,6.19745e-01,9.92920e-01,6.24164e-01,9.99999e-01
1.031838492e+00,5.90331e-01,9.37030e-01,6.30002e-01,9.99999e-01
1.036997685e+00,5.36340e-02,8.43596e-02,6.35778e-01,9.99999e-01
1.042182673e+00,1.29870e-02,2.02450e-02,6.41491e-01,9.99999e-01
1.047393587e+00,2.49389e-02,3.85369e-02,6.47141e-01,9.99999e-01
1.052630555e+00,4.67610e-05,7.16392e-05,6.52728e-01,9.99999e-01
1.057893707e+00,1.55239e-04,2.35835e-04,6.58252e-01,9.99999e-01
1.063183176e+00,1.32080e-03,1.99002e-03,6.63711e-01,9.99999e-01
1.068499092e+00,7.34303e-03,1.09744e-02,6.69107e-01,9.99999e-01
1.073841587e+00,3.76240e-02,5.57856e-02,6.74438e-01,9.99999e-01
1.079210795e+00,1.09624e-01,1.61282e-01,6.79706e-01,9.99999e-01
1.084606849e+00,2.46194e-01,3.59454e-01,6.84909e-01,9.99999e-01
1.090029883e+00,4.04977e-01,5.86881e-01,6.90049e-01,9.99999e-01
1.095480033e+00,5.33974e-01,7.68170e-01,6.95124e-01,9.99999e-01
1.100957433e+00,6.16396e-01,8.80394e-01,7.00135e-01,9.99999e-01
1.106462220e+00,6.68804e-01,9.48546e-01,7.05083e-01,9.99999e-01
1.111994531e+00,6.96196e-01,9.80604e-01,7.09966e-01,9.99999e-01
1.117554504e+00,7.11348e-01,9.95189e-01,7.14786e-01,9.99999e-01
1.123142276e+00,7.19312e-01,9.99679e-01,7.19542e-01,9.99999e-01
1.128757988e+00,7.24236e-01,9.99999e-01,7.24236e-01,9.99999e-01
1.134401778e+00,7.28866e-01,9.99999e-01,7.28866e-01,9.99999e-01
1.140073787e+00,7.33433e-01,9.99999e-01,7.33433e-01,9.99999e-01
1.145774156e+00,7.37938e-01,9.99999e-01,7.37938e-01,9.99999e-01
1.151503026e+00,7.42381e-01,9.99999e-01,7.42381e-01,9.99999e-01
1.157260541e+00,7.46762e-01,9.99999e-01,7.46762e-01,9.99999e-01
1.163046844e+00,7.51082e-01,9.99999e-01,7.51082e-01,9.99999e-01
1.168862078e+00,7.55341e-01,9.99999e-01,7.55341e-01,9.99999e-01
1.174706389e+00,7.59539e-01,9.99999e-01,7.59539e-01,9.99999e-01
1.180579921e+00,7.63676e-01,9.99999e-01,7.63676e-01,9.99999e-01
1.186482820e+00,7.67749e-01,9.99993e-01,7.67754e-01,9.99999e-01
1.192415234e+00,7.52946e-01,9.75605e-01,7.71772e-01,9.99999e-01
1.198377311e+00,4.20672e-01,5.42291e-01,7.75732e-01,9.99999e-01
1.204369197e+00,5.52605e-20,7.08801e-20,7.79633e-01,9.99999e-01
1.210391043e+00,1.93264e-78,2.46675e-78,7.83476e-01,9.99999e-01
1.216442998e+00,5.47846e-68,6.95888e-68,7.87261e-01,9.99999e-01
1.222525213e+00,5.57454e-67,7.04754e-67,7.90989e-01,9.99999e-01
1.228637839e+00,8.58226e-52,1.07999e-51,7.94661e-01,9.99999e-01
1.234781029e+00,1.79366e-39,2.24692e-39,7.98277e-01,9.99999e-01
1.240954934e+00,8.70381e-22,1.08548e-21,8.01838e-01,9.99999e-01
1.247159708e+00,4.29772e-14,5.33651e-14,8.05343e-01,9.99999e-01
1.253395507e+00,2.19260e-07,2.71094e-07,8.08794e-01,9.99999e-01
1.259662485e+00,8.24041e-05,1.01459e-04,8.12191e-01,9.99999e-01
1.265960797e+00,5.86413e-03,7.19052e-03,8.15536e-01,9.99999e-01
1.272290601e+00,7.75028e-02,9.46509e-02,8.18827e-01,9.99999e-01
1.278652054e+00,8.20545e-02,9.98148e-02,8.22066e-01,9.99999e-01
1.285045314e+00,5.02607e-04,6.09032e-04,8.25254e-01,9.99999e-01
1.291470541e+00,1.11231e-09,1.34274e-09,8.28391e-01,9.99999e-01
1.297927893e+00,1.20411e-04,1.44816e-04,8.31477e-01,9.99999e-01
1.304417533e+00,1.50998e-02,1.80941e-02,8.34513e-01,9.99999e-01
1.310939621e+00,3.87834e-03,4.63084e-03,8.37501e-01,9.99999e-01
1.317494319e+00,4.10321e-27,4.88222e-27,8.40439e-01,9.99999e-01
1.324081790e+00,4.43097e-18,5.25413e-18,8.43330e-01,9.99999e-01
1.330702199e+00,9.83911e-11,1.16278e-10,8.46173e-01,9.99999e-01
1.337355710e+00,4.66750e-10,5.49784e-10,8.48970e-01,9.99999e-01
1.344042489e+00,2.00804e-10,2.35762e-10,8.51720e-01,9.99999e-01
1.350762701e+00,5.08065e-11,5.94628e-11,8.54424e-01,9.99999e-01
1.357516515e+00,4.60096e-07,5.36815e-07,8.57084e-01,9.99999e-01
1.364304097e+00,4.04273e-05,4.70249e-05,8.59698e-01,9.99999e-01
1.371125618e+00,5.15232e-03,5.97529e-03,8.62269e-01,9.99999e-01
1.377981246e+00,1.12992e-02,1.30657e-02,8.64797e-01,9.99999e-01
1.384871152e+00,6.94587e-02,8.00878e-02,8.67282e-01,9.99999e-01
1.391795508e+00,8.38994e-02,9.64665e-02,8.69724e-01,9.99999e-01
1.398754485e+00,2.03459e-01,2.33291e-01,8.72126e-01,9.99999e-01
1.405748258e+00,3.00549e-01,3.43687e-01,8.74486e-01,9.99999e-01
1.412776999e+00,4.44902e-01,5.07412e-01,8.76806e-01,9.99999e-01
1.419840884e+00,4.11382e-01,4.67965e-01,8.79085e-01,9.99999e-01
1.426940089e+00,2.23665e-02,2.53782e-02,8.81326e-01,9.99999e-01
1.434074789e+00,0.00000e+00,0.00000e+00,8.83528e-01,9.99999e-01
1.441245163e+00,0.00000e+00,0.00000e+00,8.85692e-01,9.99999e-01
1.448451389e+00,0.00000e+00,0.00000e+00,8.87818e-01,9.99999e-01
1.455693646e+00,0.00000e+00,0.00000e+00,8.89907e-01,9.99999e-01
1.462972114e+00,1.67317e-311,1.87584e-311,8.91959e-01,9.99999e-01
1.470286975e+00,1.68335e-129,1.88299e-129,8.93976e-01,9.99999e-01
1.477638409e+00,1.58420e-81,1.76817e-81,8.95957e-01,9.99999e-01
1.485026601e+00,1.44537e-45,1.60971e-45,8.97904e-01,9.99999e-01
1.492451734e+00,7.66026e-39,8.51313e-39,8.99816e-01,9.99999e-01
1.499913993e+00,4.23745e-17,4.69942e-17,9.01694e-01,9.99999e-01
1.507413563e+00,7.54211e-16,8.34729e-16,9.03539e-01,9.99999e-01
1.514950631e+00,2.63664e-17,2.91228e-17,9.05351e-01,9.99999e-01
1.522525384e+00,4.65355e-58,5.12996e-58,9.07131e-01,9.99999e-01
1.530138011e+00,3.59760e-138,3.95828e-138,9.08879e-01,9.99999e-01
1.537788701e+00,2.67701e-102,2.93984e-102,9.10596e-01,9.99999e-01
1.545477645e+00,7.07456e-22,7.75479e-22,9.12282e-01,9.99999e-01
1.553205033e+00,6.94545e-16,7.59948e-16,9.13938e-01,9.99999e-01
1.560971058e+00,3.17810e-16,3.47120e-16,9.15564e-01,9.99999e-01
1.568775913e+00,0.00000e+00,0.00000e+00,9.17161e-01,9.99999e-01
1.576619793e+00,0.00000e+00,0.00000e+00,9.18728e-01,9.99999e-01
1.584502892e+00,0.00000e+00,0.00000e+00,9.20268e-01,9.99999e-01
1.592425406e+00,1.22820e-311,1.33242e-311,9.21780e-01,9.99999e-01
1.600387533e+00,0.00000e+00,0.00000e+00,9.23264e-01,9.99999e-01
1.608389471e+00,0.00000e+00,0.00000e+00,9.24721e-01,9.99999e-01
1.616431418e+00,0.00000e+00,0.00000e+00,9.26151e-01,9.99999e-01
1.624513575e+00,0.00000e+00,0.00000e+00,9.27556e-01,9.99999e-01
1.632636143e+00,5.61942e-294,6.04931e-294,9.28935e-01,9.99999e-01
1.640799324e+00,5.31874e-120,5.71729e-120,9.30288e-01,9.99999e-01
1.649003321e+00,5.32513e-120,5.71600e-120,9.31617e-01,9.99999e-01
1.657248337e+00,8.27971e-93,8.87502e-93,9.32921e-01,9.99999e-01
1.665534579e+00,1.99755e-93,2.13824e-93,9.34202e-01,9.99999e-01
1.673862252e+00,1.07785e-59,1.15221e-59,9.35459e-01,9.99999e-01
1.682231563e+00,1.95676e-41,2.08901e-41,9.36692e-01,9.99999e-01
1.690642721e+00,3.59836e-23,3.83659e-23,9.37903e-01,9.99999e-01
1.699095934e+00,6.89195e-15,7.33894e-15,9.39091e-01,9.99999e-01
1.707591414e+00,6.30613e-08,6.70681e-08,9.40258e-01,9.99999e-01
1.716129371e+00,6.61715e-05,7.02903e-05,9.41403e-01,9.99999e-01
1.724710018e+00,3.97324e-03,4.21552e-03,9.42526e-01,9.99999e-01
1.733333568e+00,2.59244e-02,2.74731e-02,9.43629e-01,9.99999e-01
1.742000236e+00,1.16163e-01,1.22962e-01,9.44711e-01,9.99999e-01
1.750710237e+00,8.63251e-04,9.12746e-04,9.45773e-01,9.99999e-01
1.759463788e+00,5.33785e-57,5.63769e-57,9.46815e-01,9.99999e-01
1.768261107e+00,1.18638e-59,1.25167e-59,9.47837e-01,9.99999e-01
1.777102413e+00,4.87982e-58,5.14292e-58,9.48841e-01,9.99999e-01
1.785987925e+00,1.86321e-54,1.96164e-54,9.49826e-01,9.99999e-01
1.794917864e+00,5.23206e-52,5.50284e-52,9.50792e-01,9.99999e-01
1.803892454e+00,5.24436e-50,5.51028e-50,9.51740e-01,9.99999e-01
1.812911916e+00,4.74379e-48,4.97946e-48,9.52670e-01,9.99999e-01
1.821976476e+00,4.07592e-48,4.27432e-48,9.53583e-01,9.99999e-01
1.831086358e+00,1.07082e-38,1.12189e-38,9.54479e-01,9.99999e-01
1.840241790e+00,5.39286e-33,5.64485e-33,9.55357e-01,9.99999e-01
1.849442999e+00,5.82127e-23,6.08779e-23,9.56220e-01,9.99999e-01
1.858690214e+00,1.42000e-21,1.48370e-21,9.57066e-01,9.99999e-01
1.867983665e+00,3.61365e-22,3.77249e-22,9.57896e-01,9.99999e-01
1.877323583e+00,1.09143e-108,1.13843e-108,9.58710e-01,9.99999e-01
