#,Wave/freq,Total,CO2,Rayleigh,CIA
4.000000000e-01,9.97530e-08,9.99999e-01,9.97530e-08,9.99999e-01
4.020000000e-01,1.37203e-07,9.99999e-01,1.37203e-07,9.99999e-01
4.040100000e-01,1.87463e-07,9.99999e-01,1.87463e-07,9.99999e-01
4.060300500e-01,2.54562e-07,9.99999e-01,2.54562e-07,9.99999e-01
4.080602003e-01,3.43594e-07,9.99999e-01,3.43594e-07,9.99999e-01
4.101005013e-01,4.61025e-07,9.99999e-01,4.61025e-07,9.99999e-01
4.121510038e-01,6.15009e-07,9.99999e-01,6.15009e-07,9.99999e-01
4.142117588e-01,8.15767e-07,9.99999e-01,8.15767e-07,9.99999e-01
4.162828176e-01,1.07604e-06,9.99999e-01,1.07604e-06,9.99999e-01
4.183642317e-01,1.41161e-06,9.99999e-01,1.41161e-06,9.99999e-01
4.204560528e-01,1.84192e-06,9.99999e-01,1.84192e-06,9.99999e-01
4.225583331e-01,2.39082e-06,9.99999e-01,2.39082e-06,9.99999e-01
4.246711247e-01,3.08734e-06,9.99999e-01,3.08734e-06,9.99999e-01
4.267944804e-01,3.96670e-06,9.99999e-01,3.96670e-06,9.99999e-01
4.289284528e-01,5.07135e-06,9.99999e-01,5.07135e-06,9.99999e-01
4.310730950e-01,6.45224e-06,9.99999e-01,6.45224e-06,9.99999e-01
4.332284605e-01,8.17017e-06,9.99999e-01,8.17017e-06,9.99999e-01
4.353946028e-01,1.02974e-05,9.99999e-01,1.02974e-05,9.99999e-01
4.375715758e-01,1.29193e-05,9.99999e-01,1.29193e-05,9.99999e-01
4.397594337e-01,1.61363e-05,9.99999e-01,1.61363e-05,9.99999e-01
4.419582309e-01,2.00660e-05,9.99999e-01,2.00660e-05,9.99999e-01
4.441680220e-01,2.48456e-05,9.99999e-01,2.48456e-05,9.99999e-01
4.463888621e-01,3.06341e-05,9.99999e-01,3.06341e-05,9.99999e-01
4.486208064e-01,3.76152e-05,9.99999e-01,3.76152e-05,9.99999e-01
4.508639105e-01,4.60003e-05,9.99999e-01,4.60003e-05,9.99999e-01
4.531182300e-01,5.60314e-05,9.99999e-01,5.60314e-05,9.99999e-01
4.553838212e-01,6.79846e-05,9.99999e-01,6.79846e-05,9.99999e-01
4.576607403e-01,8.21734e-05,9.99999e-01,8.21734e-05,9.99999e-01
4.599490440e-01,9.89521e-05,9.99999e-01,9.89521e-05,9.99999e-01
4.622487892e-01,1.18720e-04,9.99999e-01,1.18720e-04,9.99999e-01
4.645600332e-01,1.41926e-04,9.99999e-01,1.41926e-04,9.99999e-01
4.668828333e-01,1.69071e-04,9.99999e-01,1.69071e-04,9.99999e-01
4.692172475e-01,2.00713e-04,9.99999e-01,2.00713e-04,9.99999e-01
4.715633337e-01,2.37470e-04,9.99999e-01,2.37470e-04,9.99999e-01
4.739211504e-01,2.80026e-04,9.99999e-01,2.80026e-04,9.99999e-01
4.762907561e-01,3.29136e-04,9.99999e-01,3.29136e-04,9.99999e-01
4.786722099e-01,3.85625e-04,9.99999e-01,3.85625e-04,9.99999e-01
4.810655710e-01,4.50399e-04,9.99999e-01,4.50399e-04,9.99999e-01
4.834708988e-01,5.24442e-04,9.99999e-01,5.24442e-04,9.99999e-01
4.858882533e-01,6.08823e-04,9.99999e-01,6.08823e-04,9.99999e-01
4.883176946e-01,7.04702e-04,9.99999e-01,7.04702e-04,9.99999e-01
4.907592831e-01,8.13327e-04,9.99999e-01,8.13327e-04,9.99999e-01
4.932130795e-01,9.36041e-04,9.99999e-01,9.36041e-04,9.99999e-01
4.956791449e-01,1.07428e-03,9.99999e-01,1.07428e-03,9.99999e-01
4.981575406e-01,1.22960e-03,9.99999e-01,1.22960e-03,9.99999e-01
5.006483283e-01,1.40361e-03,9.99999e-01,1.40361e-03,9.99999e-01
5.031515699e-01,1.59807e-03,9.99999e-01,1.59807e-03,9.99999e-01
5.056673278e-01,1.81481e-03,9.99999e-01,1.81481e-03,9.99999e-01
5.081956644e-01,2.05578e-03,9.99999e-01,2.05578e-03,9.99999e-01
5.107366428e-01,2.32301e-03,9.99999e-01,2.32301e-03,9.99999e-01
5.132903260e-01,2.61866e-03,9.99999e-01,2.61866e-03,9.99999e-01
5.158567776e-01,2.94495e-03,9.99999e-01,2.94495e-03,9.99999e-01
5.184360615e-01,3.30423e-03,9.99999e-01,3.30423e-03,9.99999e-01
5.210282418e-01,3.69892e-03,9.99999e-01,3.69892e-03,9.99999e-01
5.236333830e-01,4.13153e-03,9.99999e-01,4.13153e-03,9.99999e-01
5.262515499e-01,4.60467e-03,9.99999e-01,4.60467e-03,9.99999e-01
5.288828077e-01,5.12102e-03,9.99999e-01,5.12102e-03,9.99999e-01
5.315272217e-01,5.68332e-03,9.99999e-01,5.68332e-03,9.99999e-01
5.341848578e-01,6.29440e-03,9.99999e-01,6.29440e-03,9.99999e-01
5.368557821e-01,6.95714e-03,9.99999e-01,6.95714e-03,9.99999e-01
5.395400610e-01,7.67446e-03,9.99999e-01,7.67446e-03,9.99999e-01
5.422377613e-01,8.44935e-03,9.99999e-01,8.44935e-03,9.99999e-01
5.449489501e-01,9.28483e-03,9.99999e-01,9.28483e-03,9.99999e-01
5.476736949e-01,1.01839e-02,9.99999e-01,1.01839e-02,9.99999e-01
5.504120634e-01,1.11497e-02,9.99999e-01,1.11497e-02,9.99999e-01
5.531641237e-01,1.21853e-02,9.99999e-01,1.21853e-02,9.99999e-01
5.559299443e-01,1.32937e-02,9.99999e-01,1.32937e-02,9.99999e-01
5.587095940e-01,1.44780e-02,9.99999e-01,1.44780e-02,9.99999e-01
5.615031420e-01,1.57412e-02,9.99999e-01,1.57412e-02,9.99999e-01
5.643106577e-01,1.70864e-02,9.99999e-01,1.70864e-02,9.99999e-01
5.671322110e-01,1.85166e-02,9.99999e-01,1.85166e-02,9.99999e-01
5.699678720e-01,2.00346e-02,9.99999e-01,2.00346e-02,9.99999e-01
5.728177114e-01,2.16433e-02,9.99999e-01,2.16433e-02,9.99999e-01
5.756818000e-01,2.33456e-02,9.99999e-01,2.33456e-02,9.99999e-01
5.785602090e-01,2.51442e-02,9.99999e-01,2.51442e-02,9.99999e-01
5.814530100e-01,2.70416e-02,9.99999e-01,2.70416e-02,9.99999e-01
5.843602750e-01,2.90405e-02,9.99999e-01,2.90405e-02,9.99999e-01
5.872820764e-01,3.11432e-02,9.99999e-01,3.11432e-02,9.99999e-01
5.902184868e-01,3.33521e-02,9.99999e-01,3.33521e-02,9.99999e-01
5.931695792e-01,3.56694e-02,9.99999e-01,3.56694e-02,9.99999e-01
5.961354271e-01,3.80971e-02,9.99999e-01,3.80971e-02,9.99999e-01
5.991161043e-01,4.06371e-02,9.99999e-01,4.06371e-02,9.99999e-01
6.021116848e-01,4.32912e-02,9.99999e-01,4.32912e-02,9.99999e-01
6.051222432e-01,4.60611e-02,9.99999e-01,4.60611e-02,9.99999e-01
6.081478544e-01,4.89482e-02,9.99999e-01,4.89482e-02,9.99999e-01
6.111885937e-01,5.19538e-02,9.99999e-01,5.19538e-02,9.99999e-01
6.142445367e-01,5.50791e-02,9.99999e-01,5.50791e-02,9.99999e-01
6.173157594e-01,5.83251e-02,9.99999e-01,5.83251e-02,9.99999e-01
6.204023382e-01,6.16926e-02,9.99999e-01,6.16926e-02,9.99999e-01
6.235043498e-01,6.51822e-02,9.99999e-01,6.51822e-02,9.99999e-01
6.266218716e-01,6.87944e-02,9.99999e-01,6.87944e-02,9.99999e-01
6.297549810e-01,7.25294e-02,9.99999e-01,7.25294e-02,9.99999e-01
6.329037559e-01,7.63874e-02,9.99999e-01,7.63874e-02,9.99999e-01
6.360682746e-01,8.03683e-02,9.99999e-01,8.03683e-02,9.99999e-01
6.392486160e-01,8.44719e-02,9.99999e-01,8.44719e-02,9.99999e-01
6.424448591e-01,8.86977e-02,9.99999e-01,8.86977e-02,9.99999e-01
6.456570834e-01,9.30451e-02,9.99999e-01,9.30451e-02,9.99999e-01
6.488853688e-01,9.75134e-02,9.99999e-01,9.75134e-02,9.99999e-01
6.521297956e-01,1.02102e-01,9.99999e-01,1.02102e-01,9.99999e-01
6.553904446e-01,1.06809e-01,9.99999e-01,1.06809e-01,9.99999e-01
6.586673968e-01,1.11633e-01,9.99999e-01,1.11633e-01,9.99999e-01
6.619607338e-01,1.16574e-01,9.99999e-01,1.16574e-01,9.99999e-01
6.652705375e-01,1.21630e-01,9.99999e-01,1.21630e-01,9.99999e-01
6.685968902e-01,1.26798e-01,9.99999e-01,1.26798e-01,9.99999e-01
6.719398746e-01,1.32077e-01,9.99999e-01,1.32077e-01,9.99999e-01
6.752995740e-01,1.37466e-01,9.99999e-01,1.37466e-01,9.99999e-01
6.786760719e-01,1.42961e-01,9.99999e-01,1.42961e-01,9.99999e-01
6.820694522e-01,1.48560e-01,9.99999e-01,1.48560e-01,9.99999e-01
6.854797995e-01,1.54262e-01,9.99999e-01,1.54262e-01,9.99999e-01
6.889071985e-01,1.60064e-01,9.99999e-01,1.60064e-01,9.99999e-01
6.923517345e-01,1.65963e-01,9.99999e-01,1.65963e-01,9.99999e-01
6.958134932e-01,1.71956e-01,9.99999e-01,1.71956e-01,9.99999e-01
6.992925606e-01,1.78041e-01,9.99999e-01,1.78041e-01,9.99999e-01
7.027890234e-01,1.84215e-01,9.99999e-01,1.84215e-01,9.99999e-01
7.063029686e-01,1.90474e-01,9.99999e-01,1.90474e-01,9.99999e-01
7.098344834e-01,1.96816e-01,9.99999e-01,1.96816e-01,9.99999e-01
7.133836558e-01,2.03238e-01,9.99999e-01,2.03238e-01,9.99999e-01
7.169505741e-01,2.09736e-01,9.99999e-01,2.09736e-01,9.99999e-01
7.205353270e-01,2.16308e-01,9.99999e-01,2.16308e-01,9.99999e-01
7.241380036e-01,2.22949e-01,9.99999e-01,2.22949e-01,9.99999e-01
7.277586936e-01,2.29658e-01,9.99999e-01,2.29658e-01,9.99999e-01
7.313974871e-01,2.36429e-01,9.99999e-01,2.36429e-01,9.99999e-01
7.350544745e-01,2.43261e-01,9.99999e-01,2.43261e-01,9.99999e-01
7.387297469e-01,2.50149e-01,9.99999e-01,2.50149e-01,9.99999e-01
7.424233956e-01,2.57090e-01,9.99999e-01,2.57090e-01,9.99999e-01
7.461355126e-01,2.64081e-01,9.99999e-01,2.64081e-01,9.99999e-01
7.498661902e-01,2.71119e-01,9.99999e-01,2.71119e-01,9.99999e-01
7.536155211e-01,2.78200e-01,9.99999e-01,2.78200e-01,9.99999e-01
7.573835987e-01,2.85320e-01,9.99999e-01,2.85320e-01,9.99999e-01
7.611705167e-01,2.92476e-01,9.99999e-01,2.92476e-01,9.99999e-01
7.649763693e-01,2.99665e-01,9.99999e-01,2.99665e-01,9.99999e-01
7.688012511e-01,3.06884e-01,9.99999e-01,3.06884e-01,9.99999e-01
7.726452574e-01,3.14129e-01,9.99999e-01,3.14129e-01,9.99999e-01
7.765084837e-01,3.21396e-01,9.99999e-01,3.21396e-01,9.99999e-01
7.803910261e-01,3.13555e-01,9.53970e-01,3.28684e-01,9.99999e-01
7.842929812e-01,2.66033e-01,7.91792e-01,3.35987e-01,9.99999e-01
7.882144461e-01,2.68399e-01,7.81809e-01,3.43304e-01,9.99999e-01
7.921555184e-01,3.03107e-01,8.64458e-01,3.50631e-01,9.99999e-01
7.961162960e-01,3.24189e-01,9.05643e-01,3.57965e-01,9.99999e-01
8.000968774e-01,3.46242e-01,9.47818e-01,3.65303e-01,9.99999e-01
8.040973618e-01,3.62355e-01,9.72393e-01,3.72643e-01,9.99999e-01
8.081178486e-01,3.75165e-01,9.87328e-01,3.79980e-01,9.99999e-01
8.121584379e-01,3.85768e-01,9.96012e-01,3.87312e-01,9.99999e-01
8.162192301e-01,3.94289e-01,9.99116e-01,3.94637e-01,9.99999e-01
8.203003262e-01,4.01946e-01,9.99984e-01,4.01952e-01,9.99999e-01
8.244018279e-01,4.09254e-01,9.99999e-01,4.09254e-01,9.99999e-01
8.285238370e-01,4.16540e-01,9.99999e-01,4.16540e-01,9.99999e-01
8.326664562e-01,4.23808e-01,9.99999e-01,4.23808e-01,9.99999e-01
8.368297885e-01,4.31056e-01,9.99999e-01,4.31056e-01,9.99999e-01
8.410139374e-01,4.38281e-01,9.99999e-01,4.38281e-01,9.99999e-01
8.452190071e-01,4.45481e-01,9.99999e-01,4.45481e-01,9.99999e-01
8.494451021e-01,4.52653e-01,9.99999e-01,4.52653e-01,9.99999e-01
8.536923276e-01,4.59796e-01,9.99999e-01,4.59796e-01,9.99999e-01
8.579607893e-01,4.66907e-01,9.99999e-01,4.66907e-01,9.99999e-01
8.622505932e-01,4.73984e-01,9.99999e-01,4.73984e-01,9.99999e-01
8.665618462e-01,4.38140e-01,9.10844e-01,4.81025e-01,9.99999e-01
8.708946554e-01,2.73190e-01,5.59781e-01,4.88029e-01,9.99999e-01
8.752491287e-01,3.07480e-01,6.21178e-01,4.94994e-01,9.99999e-01
8.796253743e-01,3.85206e-01,7.67467e-01,5.01918e-01,9.99999e-01
8.840235012e-01,4.43299e-01,8.71266e-01,5.08798e-01,9.99999e-01
8.884436187e-01,4.88112e-01,9.46624e-01,5.15635e-01,9.99999e-01
8.928858368e-01,5.11003e-01,9.78135e-01,5.22425e-01,9.99999e-01
8.973502660e-01,5.26301e-01,9.94582e-01,5.29168e-01,9.99999e-01
9.018370173e-01,5.35541e-01,9.99399e-01,5.35863e-01,9.99999e-01
9.063462024e-01,5.34741e-01,9.85685e-01,5.42507e-01,9.99999e-01
9.108779334e-01,5.30344e-01,9.65842e-01,5.49100e-01,9.99999e-01
9.154323231e-01,5.51047e-01,9.91731e-01,5.55641e-01,9.99999e-01
9.200094847e-01,5.03085e-01,8.94965e-01,5.62128e-01,9.99999e-01
9.246095321e-01,4.79920e-01,8.44097e-01,5.68560e-01,9.99999e-01
9.292325798e-01,5.04986e-01,8.78332e-01,5.74937e-01,9.99999e-01
9.338787427e-01,5.11404e-01,8.79823e-01,5.81257e-01,9.99999e-01
9.385481364e-01,5.34658e-01,9.10025e-01,5.87520e-01,9.99999e-01
9.432408771e-01,5.60163e-01,9.43472e-01,5.93724e-01,9.99999e-01
9.479570815e-01,5.82321e-01,9.70744e-01,5.99870e-01,9.99999e-01
9.526968669e-01,5.97318e-01,9.85745e-01,6.05956e-01,9.99999e-01
9.574603512e-01,6.08231e-01,9.93871e-01,6.11981e-01,9.99999e-01
9.622476530e-01,6.16761e-01,9.98081e-01,6.17946e-01,9.99999e-01
9.670588912e-01,6.23489e-01,9.99421e-01,6.23850e-01,9.99999e-01
9.718941857e-01,6.29665e-01,9.99957e-01,6.29691e-01,9.99999e-01
9.767536566e-01,6.35470e-01,9.99999e-01,6.35470e-01,9.99999e-01
9.816374249e-01,6.41187e-01,9.99999e-01,6.41187e-01,9.99999e-01
9.865456120e-01,6.46840e-01,9.99999e-01,6.46840e-01,9.99999e-01
9.914783401e-01,6.52431e-01,9.99999e-01,6.52431e-01,9.99999e-01
9.964357318e-01,6.57957e-01,9.99999e-01,6.57957e-01,9.99999e-01
1.001417910e+00,6.63420e-01,9.99999e-01,6.63420e-01,9.99999e-01
1.006425000e+00,6.68820e-01,9.99999e-01,6.68820e-01,9.99999e-01
1.011457125e+00,6.74155e-01,9.99999e-01,6.74155e-01,9.99999e-01
1.016514411e+00,6.79426e-01,9.99999e-01,6.79426e-01,9.99999e-01
1.021596983e+00,6.84589e-01,9.99935e-01,6.84633e-01,9.99999e-01
1.026704968e+00,6.85920e-01,9.94409e-01,6.89775e-01,9.99999e-01
1.031838492e+00,6.57935e-01,9.46867e-01,6.94854e-01,9.99999e-01
1.036997685e+00,7.34545e-02,1.04955e-01,6.99869e-01,9.99999e-01
1.042182673e+00,2.95303e-02,4.18977e-02,7.04819e-01,9.99999e-01
1.047393587e+00,4.74081e-02,6.67995e-02,7.09706e-01,9.99999e-01
1.052630555e+00,2.66179e-04,3.72523e-04,7.14530e-01,9.99999e-01
1.057893707e+00,8.05781e-04,1.12024e-03,7.19289e-01,9.99999e-01
1.063183176e+00,4.64110e-03,6.41048e-03,7.23986e-01,9.99999e-01
1.068499092e+00,1.98624e-02,2.72603e-02,7.28620e-01,9.99999e-01
1.073841587e+00,7.37518e-02,1.00590e-01,7.33190e-01,9.99999e-01
1.079210795e+00,1.72341e-01,2.33620e-01,7.37699e-01,9.99999e-01
1.084606849e+00,3.30092e-01,4.44781e-01,7.42145e-01,9.99999e-01
1.090029883e+00,4.89954e-01,6.56309e-01,7.46529e-01,9.99999e-01
1.095480033e+00,6.09696e-01,8.12004e-01,7.50852e-01,9.99999e-01
1.100957433e+00,6.82940e-01,9.04419e-01,7.55114e-01,9.99999e-01
1.106462220e+00,7.28343e-01,9.59209e-01,7.59315e-01,9.99999e-01
1.111994531e+00,7.51762e-01,9.84681e-01,7.63456e-01,9.99999e-01
1.117554504e+00,7.64626e-01,9.96206e-01,7.67537e-01,9.99999e-01
1.123142276e+00,7.71364e-01,9.99747e-01,7.71559e-01,9.99999e-01
1.128757988e+00,7.75521e-01,9.99999e-01,7.75521e-01,9.99999e-01
1.134401778e+00,7.79425e-01,9.99999e-01,7.79425e-01,9.99999e-01
1.140073787e+00,7.83271e-01,9.99999e-01,7.83271e-01,9.99999e-01
1.145774156e+00,7.87060e-01,9.99999e-01,7.87060e-01,9.99999e-01
1.151503026e+00,7.90791e-01,9.99999e-01,7.90791e-01,9.99999e-01
1.157260541e+00,7.94466e-01,9.99999e-01,7.94466e-01,9.99999e-01
1.163046844e+00,7.98085e-01,9.99999e-01,7.98085e-01,9.99999e-01
1.168862078e+00,8.01648e-01,9.99999e-01,8.01648e-01,9.99999e-01
1.174706389e+00,8.05157e-01,9.99999e-01,8.05157e-01,9.99999e-01
1.180579921e+00,8.08611e-01,9.99999e-01,8.08611e-01,9.99999e-01
1.186482820e+00,8.12007e-01,9.99994e-01,8.12011e-01,9.99999e-01
1.192415234e+00,7.99522e-01,9.80577e-01,8.15358e-01,9.99999e-01
1.198377311e+00,4.50769e-01,5.50623e-01,8.18652e-01,9.99999e-01
1.204369197e+00,3.18292e-16,3.87266e-16,8.21894e-01,9.99999e-01
1.210391043e+00,2.76691e-62,3.35348e-62,8.25084e-01,9.99999e-01
1.216442998e+00,4.76455e-54,5.75273e-54,8.28224e-01,9.99999e-01
1.222525213e+00,2.96478e-53,3.56638e-53,8.31313e-01,9.99999e-01
1.228637839e+00,3.18993e-41,3.82324e-41,8.34352e-01,9.99999e-01
1.234781029e+00,1.50986e-31,1.80315e-31,8.37342e-01,9.99999e-01
1.240954934e+00,1.45396e-17,1.73033e-17,8.40283e-01,9.99999e-01
1.247159708e+00,1.97630e-11,2.34387e-11,8.43177e-01,9.99999e-01
1.253395507e+00,4.49579e-06,5.31402e-06,8.46022e-01,9.99999e-01
1.259662485e+00,4.99165e-04,5.88068e-04,8.48821e-01,9.99999e-01
1.265960797e+00,1.53068e-02,1.79747e-02,8.51574e-01,9.99999e-01
1.272290601e+00,1.30155e-01,1.52357e-01,8.54281e-01,9.99999e-01
1.278652054e+00,1.31565e-01,1.53528e-01,8.56942e-01,9.99999e-01
1.285045314e+00,1.50063e-03,1.74581e-03,8.59560e-01,9.99999e-01
1.291470541e+00,6.78222e-08,7.86679e-08,8.62133e-01,9.99999e-01
1.297927893e+00,5.21718e-04,6.03377e-04,8.64663e-01,9.99999e-01
1.304417533e+00,3.57381e-02,4.12132e-02,8.67150e-01,9.99999e-01
1.310939621e+00,9.04537e-03,1.04018e-02,8.69595e-01,9.99999e-01
1.317494319e+00,9.77858e-22,1.12140e-21,8.71998e-01,9.99999e-01
1.324081790e+00,1.15483e-14,1.32077e-14,8.74360e-01,9.99999e-01
1.330702199e+00,1.08976e-08,1.24305e-08,8.76682e-01,9.99999e-01
1.337355710e+00,2.90933e-08,3.30994e-08,8.78964e-01,9.99999e-01
1.344042489e+00,1.10252e-08,1.25114e-08,8.81207e-01,9.99999e-01
1.350762701e+00,5.87564e-09,6.65107e-09,8.83411e-01,9.99999e-01
1.357516515e+00,6.96117e-06,7.86060e-06,8.85577e-01,9.99999e-01
1.364304097e+00,3.14183e-04,3.53927e-04,8.87705e-01,9.99999e-01
1.371125618e+00,1.46446e-02,1.64583e-02,8.89796e-01,9.99999e-01
1.377981246e+00,2.87141e-02,3.21961e-02,8.91850e-01,9.99999e-01
1.384871152e+00,1.21006e-01,1.35373e-01,8.93869e-01,9.99999e-01
1.391795508e+00,1.40552e-01,1.56892e-01,8.95852e-01,9.99999e-01
1.398754485e+00,2.84807e-01,3.17227e-01,8.97800e-01,9.99999e-01
1.405748258e+00,3.86731e-01,4.29837e-01,8.99714e-01,9.99999e-01
1.412776999e+00,5.27828e-01,5.85438e-01,9.01594e-01,9.99999e-01
1.419840884e+00,4.82866e-01,5.34473e-01,9.03441e-01,9.99999e-01
1.426940089e+00,3.23647e-02,3.57520e-02,9.05255e-01,9.99999e-01
1.434074789e+00,0.00000e+00,0.00000e+00,9.07036e-01,9.99999e-01
1.441245163e+00,0.00000e+00,0.00000e+00,9.08786e-01,9.99999e-01
1.448451389e+00,0.00000e+00,0.00000e+00,9.10505e-01,9.99999e-01
1.455693646e+00,0.00000e+00,0.00000e+00,9.12192e-01,9.99999e-01
1.462972114e+00,6.25830e-246,6.84828e-246,9.13850e-01,9.99999e-01
1.470286975e+00,1.61397e-102,1.76298e-102,9.15477e-01,9.99999e-01
1.477638409e+00,1.02243e-64,1.11488e-64,9.17076e-01,9.99999e-01
1.485026601e+00,2.22414e-36,2.42111e-36,9.18645e-01,9.99999e-01
1.492451734e+00,5.14220e-31,5.58821e-31,9.20186e-01,9.99999e-01
1.499913993e+00,6.10841e-14,6.62733e-14,9.21699e-01,9.99999e-01
1.507413563e+00,1.09350e-12,1.18449e-12,9.23185e-01,9.99999e-01
1.514950631e+00,4.10682e-14,4.44152e-14,9.24643e-01,9.99999e-01
1.522525384e+00,3.17426e-46,3.42764e-46,9.26076e-01,9.99999e-01
1.530138011e+00,2.39695e-109,2.58437e-109,9.27481e-01,9.99999e-01
1.537788701e+00,4.40415e-81,4.74145e-81,9.28862e-01,9.99999e-01
1.545477645e+00,1.02697e-17,1.10401e-17,9.30217e-01,9.99999e-01
1.553205033e+00,9.20788e-13,9.88450e-13,9.31547e-01,9.99999e-01
1.560971058e+00,3.62304e-13,3.88383e-13,9.32852e-01,9.99999e-01
1.568775913e+00,5.24857e-276,5.61864e-276,9.34134e-01,9.99999e-01
1.576619793e+00,0.00000e+00,0.00000e+00,9.35392e-01,9.99999e-01
1.584502892e+00,0.00000e+00,0.00000e+00,9.36627e-01,9.99999e-01
1.592425406e+00,4.94806e-246,5.27602e-246,9.37839e-01,9.99999e-01
1.600387533e+00,0.00000e+00,0.00000e+00,9.39028e-01,9.99999e-01
1.608389471e+00,0.00000e+00,0.00000e+00,9.40196e-01,9.99999e-01
1.616431418e+00,0.00000e+00,0.00000e+00,9.41342e-01,9.99999e-01
1.624513575e+00,1.66497e-312,1.76661e-312,9.42466e-01,9.99999e-01
1.632636143e+00,4.05395e-232,4.29639e-232,9.43570e-01,9.99999e-01
1.640799324e+00,4.93890e-95,5.22826e-95,9.44653e-01,9.99999e-01
1.649003321e+00,4.94880e-95,5.23286e-95,9.45716e-01,9.99999e-01
1.657248337e+00,1.32667e-73,1.40127e-73,9.46759e-01,9.99999e-01
1.665534579e+00,4.33590e-74,4.57478e-74,9.47783e-01,9.99999e-01
1.673862252e+00,1.64309e-47,1.73178e-47,9.48788e-01,9.99999e-01
1.682231563e+00,4.05684e-33,4.27138e-33,9.49773e-01,9.99999e-01
1.690642721e+00,9.84292e-19,1.03529e-18,9.50741e-01,9.99999e-01
1.699095934e+00,4.18637e-12,4.39887e-12,9.51690e-01,9.99999e-01
1.707591414e+00,1.22594e-06,1.28691e-06,9.52621e-01,9.99999e-01
1.716129371e+00,4.10129e-04,4.30114e-04,9.53535e-01,9.99999e-01
1.724710018e+00,1.20246e-02,1.25987e-02,9.54431e-01,9.99999e-01
1.733333568e+00,5.50780e-02,5.76545e-02,9.55311e-01,9.99999e-01
1.742000236e+00,1.79262e-01,1.87478e-01,9.56174e-01,9.99999e-01
1.750710237e+00,2.23708e-03,2.33754e-03,9.57021e-01,9.99999e-01
1.759463788e+00,2.34646e-45,2.44971e-45,9.57851e-01,9.99999e-01
1.768261107e+00,1.76130e-47,1.83723e-47,9.58667e-01,9.99999e-01
1.777102413e+00,4.33830e-46,4.52157e-46,9.59466e-01,9.99999e-01
1.785987925e+00,2.21524e-43,2.30694e-43,9.60251e-01,9.99999e-01
1.794917864e+00,1.99469e-41,2.07559e-41,9.61020e-01,9.99999e-01
1.803892454e+00,7.01269e-40,7.29139e-40,9.61775e-01,9.99999e-01
1.812911916e+00,2.64549e-38,2.74851e-38,9.62516e-01,9.99999e-01
1.821976476e+00,2.16938e-38,2.25216e-38,9.63243e-01,9.99999e-01
1.831086358e+00,5.73283e-31,5.94719e-31,9.63955e-01,9.99999e-01
1.840241790e+00,2.04788e-26,2.12291e-26,9.64655e-01,9.99999e-01
1.849442999e+00,2.02736e-18,2.10015e-18,9.65341e-01,9.99999e-01
1.858690214e+00,3.03525e-17,3.14204e-17,9.66013e-01,9.99999e-01
1.867983665e+00,6.87888e-18,7.11602e-18,9.66673e-01,9.99999e-01
1.877323583e+00,4.06991e-86,4.20740e-86,9.67321e-01,9.99999e-01
