#,Wave/freq,Total,CO2,Rayleigh,CIA
4.000000000e-01,3.60386e-08,9.99999e-01,3.60386e-08,9.99999e-01
4.020000000e-01,5.05509e-08,9.99999e-01,5.05509e-08,9.99999e-01
4.040100000e-01,7.04447e-08,9.99999e-01,7.04447e-08,9.99999e-01
4.060300500e-01,9.75262e-08,9.99999e-01,9.75262e-08,9.99999e-01
4.080602003e-01,1.34154e-07,9.99999e-01,1.34154e-07,9.99999e-01
4.101005013e-01,1.83379e-07,9.99999e-01,1.83379e-07,9.99999e-01
4.121510038e-01,2.49124e-07,9.99999e-01,2.49124e-07,9.99999e-01
4.142117588e-01,3.36398e-07,9.99999e-01,3.36398e-07,9.99999e-01
4.162828176e-01,4.51558e-07,9.99999e-01,4.51558e-07,9.99999e-01
4.183642317e-01,6.02627e-07,9.99999e-01,6.02627e-07,9.99999e-01
4.204560528e-01,7.99665e-07,9.99999e-01,7.99665e-07,9.99999e-01
4.225583331e-01,1.05521e-06,9.99999e-01,1.05521e-06,9.99999e-01
4.246711247e-01,1.38482e-06,9.99999e-01,1.38482e-06,9.99999e-01
4.267944804e-01,1.80766e-06,9.99999e-01,1.80766e-06,9.99999e-01
4.289284528e-01,2.34721e-06,9.99999e-01,2.34721e-06,9.99999e-01
4.310730950e-01,3.03213e-06,9.99999e-01,3.03213e-06,9.99999e-01
4.332284605e-01,3.89715e-06,9.99999e-01,3.89715e-06,9.99999e-01
4.353946028e-01,4.98418e-06,9.99999e-01,4.98418e-06,9.99999e-01
4.375715758e-01,6.34350e-06,9.99999e-01,6.34350e-06,9.99999e-01
4.397594337e-01,8.03519e-06,9.99999e-01,8.03519e-06,9.99999e-01
4.419582309e-01,1.01306e-05,9.99999e-01,1.01306e-05,9.99999e-01
4.441680220e-01,1.27141e-05,9.99999e-01,1.27141e-05,9.99999e-01
4.463888621e-01,1.58851e-05,9.99999e-01,1.58851e-05,9.99999e-01
4.486208064e-01,1.97597e-05,9.99999e-01,1.97597e-05,9.99999e-01
4.508639105e-01,2.44738e-05,9.99999e-01,2.44738e-05,9.99999e-01
4.531182300e-01,3.01846e-05,9.99999e-01,3.01846e-05,9.99999e-01
4.553838212e-01,3.70741e-05,9.99999e-01,3.70741e-05,9.99999e-01
4.576607403e-01,4.53516e-05,9.99999e-01,4.53516e-05,9.99999e-01
4.599490440e-01,5.52568e-05,9.99999e-01,5.52568e-05,9.99999e-01
4.622487892e-01,6.70632e-05,9.99999e-01,6.70632e-05,9.99999e-01
4.645600332e-01,8.10814e-05,9.99999e-01,8.10814e-05,9.99999e-01
4.668828333e-01,9.76631e-05,9.99999e-01,9.76631e-05,9.99999e-01
4.692172475e-01,1.17204e-04,9.99999e-01,1.17204e-04,9.99999e-01
4.715633337e-01,1.40149e-04,9.99999e-01,1.40149e-04,9.99999e-01
4.739211504e-01,1.66996e-04,9.99999e-01,1.66996e-04,9.99999e-01
4.762907561e-01,1.98297e-04,9.99999e-01,1.98297e-04,9.99999e-01
4.786722099e-01,2.34668e-04,9.99999e-01,2.34668e-04,9.99999e-01
4.810655710e-01,2.76787e-04,9.99999e-01,2.76787e-04,9.99999e-01
4.834708988e-01,3.25404e-04,9.99999e-01,3.25404e-04,9.99999e-01
4.858882533e-01,3.81339e-04,9.99999e-01,3.81339e-04,9.99999e-01
4.883176946e-01,4.45491e-04,9.99999e-01,4.45491e-04,9.99999e-01
4.907592831e-01,5.18839e-04,9.99999e-01,5.18839e-04,9.99999e-01
4.932130795e-01,6.02447e-04,9.99999e-01,6.02447e-04,9.99999e-01
4.956791449e-01,6.97466e-04,9.99999e-01,6.97466e-04,9.99999e-01
4.981575406e-01,8.05140e-04,9.99999e-01,8.05140e-04,9.99999e-01
5.006483283e-01,9.26804e-04,9.99999e-01,9.26804e-04,9.99999e-01
5.031515699e-01,1.06389e-03,9.99999e-01,1.06389e-03,9.99999e-01
5.056673278e-01,1.21793e-03,9.99999e-01,1.21793e-03,9.99999e-01
5.081956644e-01,1.39056e-03,9.99999e-01,1.39056e-03,9.99999e-01
5.107366428e-01,1.58350e-03,9.99999e-01,1.58350e-03,9.99999e-01
5.132903260e-01,1.79859e-03,9.99999e-01,1.79859e-03,9.99999e-01
5.158567776e-01,2.03777e-03,9.99999e-01,2.03777e-03,9.99999e-01
5.184360615e-01,2.30306e-03,9.99999e-01,2.30306e-03,9.99999e-01
5.210282418e-01,2.59661e-03,9.99999e-01,2.59661e-03,9.99999e-01
5.236333830e-01,2.92065e-03,9.99999e-01,2.92065e-03,9.99999e-01
5.262515499e-01,3.27749e-03,9.99999e-01,3.27749e-03,9.99999e-01
5.288828077e-01,3.66958e-03,9.99999e-01,3.66958e-03,9.99999e-01
5.315272217e-01,4.09941e-03,9.99999e-01,4.09941e-03,9.99999e-01
5.341848578e-01,4.56957e-03,9.99999e-01,4.56957e-03,9.99999e-01
5.368557821e-01,5.08275e-03,9.99999e-01,5.08275e-03,9.99999e-01
5.395400610e-01,5.64169e-03,9.99999e-01,5.64169e-03,9.99999e-01
5.422377613e-01,6.24920e-03,9.99999e-01,6.24920e-03,9.99999e-01
5.449489501e-01,6.90816e-03,9.99999e-01,6.90816e-03,9.99999e-01
5.476736949e-01,7.62150e-03,9.99999e-01,7.62150e-03,9.99999e-01
5.504120634e-01,8.39219e-03,9.99999e-01,8.39219e-03,9.99999e-01
5.531641237e-01,9.22325e-03,9.99999e-01,9.22325e-03,9.99999e-01
5.559299443e-01,1.01177e-02,9.99999e-01,1.01177e-02,9.99999e-01
5.587095940e-01,1.10787e-02,9.99999e-01,1.10787e-02,9.99999e-01
5.615031420e-01,1.21091e-02,9.99999e-01,1.21091e-02,9.99999e-01
5.643106577e-01,1.32122e-02,9.99999e-01,1.32122e-02,9.99999e-01
5.671322110e-01,1.43910e-02,9.99999e-01,1.43910e-02,9.99999e-01
5.699678720e-01,1.56485e-02,9.99999e-01,1.56485e-02,9.99999e-01
5.728177114e-01,1.69878e-02,9.99999e-01,1.69878e-02,9.99999e-01
5.756818000e-01,1.84118e-02,9.99999e-01,1.84118e-02,9.99999e-01
5.785602090e-01,1.99235e-02,9.99999e-01,1.99235e-02,9.99999e-01
5.814530100e-01,2.15257e-02,9.99999e-01,2.15257e-02,9.99999e-01
5.843602750e-01,2.32212e-02,9.99999e-01,2.32212e-02,9.99999e-01
5.872820764e-01,2.50128e-02,9.99999e-01,2.50128e-02,9.99999e-01
5.902184868e-01,2.69032e-02,9.99999e-01,2.69032e-02,9.99999e-01
5.931695792e-01,2.88947e-02,9.99999e-01,2.88947e-02,9.99999e-01
5.961354271e-01,3.09900e-02,9.99999e-01,3.09900e-02,9.99999e-01
5.991161043e-01,3.31912e-02,9.99999e-01,3.31912e-02,9.99999e-01
6.021116848e-01,3.55007e-02,9.99999e-01,3.55007e-02,9.99999e-01
6.051222432e-01,3.79204e-02,9.99999e-01,3.79204e-02,9.99999e-01
6.081478544e-01,4.04524e-02,9.99999e-01,4.04524e-02,9.99999e-01
6.111885937e-01,4.30983e-02,9.99999e-01,4.30983e-02,9.99999e-01
6.142445367e-01,4.58599e-02,9.99999e-01,4.58599e-02,9.99999e-01
6.173157594e-01,4.87386e-02,9.99999e-01,4.87386e-02,9.99999e-01
6.204023382e-01,5.17358e-02,9.99999e-01,5.17358e-02,9.99999e-01
6.235043498e-01,5.48525e-02,9.99999e-01,5.48525e-02,9.99999e-01
6.266218716e-01,5.80899e-02,9.99999e-01,5.80899e-02,9.99999e-01
6.297549810e-01,6.14487e-02,9.99999e-01,6.14487e-02,9.99999e-01
6.329037559e-01,6.49296e-02,9.99999e-01,6.49296e-02,9.99999e-01
6.360682746e-01,6.85330e-02,9.99999e-01,6.85330e-02,9.99999e-01
6.392486160e-01,7.22593e-02,9.99999e-01,7.22593e-02,9.99999e-01
6.424448591e-01,7.61085e-02,9.99999e-01,7.61085e-02,9.99999e-01
6.456570834e-01,8.00807e-02,9.99999e-01,8.00807e-02,9.99999e-01
6.488853688e-01,8.41755e-02,9.99999e-01,8.41755e-02,9.99999e-01
6.521297956e-01,8.83926e-02,9.99999e-01,8.83926e-02,9.99999e-01
6.553904446e-01,9.27314e-02,9.99999e-01,9.27314e-02,9.99999e-01
6.586673968e-01,9.71912e-02,9.99999e-01,9.71912e-02,9.99999e-01
6.619607338e-01,1.01771e-01,9.99999e-01,1.01771e-01,9.99999e-01
6.652705375e-01,1.06470e-01,9.99999e-01,1.06470e-01,9.99999e-01
6.685968902e-01,1.11286e-01,9.99999e-01,1.11286e-01,9.99999e-01
6.719398746e-01,1.16219e-01,9.99999e-01,1.16219e-01,9.99999e-01
6.752995740e-01,1.21266e-01,9.99999e-01,1.21266e-01,9.99999e-01
6.786760719e-01,1.26426e-01,9.99999e-01,1.26426e-01,9.99999e-01
6.820694522e-01,1.31698e-01,9.99999e-01,1.31698e-01,9.99999e-01
6.854797995e-01,1.37078e-01,9.99999e-01,1.37078e-01,9.99999e-01
6.889071985e-01,1.42566e-01,9.99999e-01,1.42566e-01,9.99999e-01
6.923517345e-01,1.48158e-01,9.99999e-01,1.48158e-01,9.99999e-01
6.958134932e-01,1.53853e-01,9.99999e-01,1.53853e-01,9.99999e-01
6.992925606e-01,1.59648e-01,9.99999e-01,1.59648e-01,9.99999e-01
7.027890234e-01,1.65540e-01,9.99999e-01,1.65540e-01,9.99999e-01
7.063029686e-01,1.71526e-01,9.99999e-01,1.71526e-01,9.99999e-01
7.098344834e-01,1.77605e-01,9.99999e-01,1.77605e-01,9.99999e-01
7.133836558e-01,1.83772e-01,9.99999e-01,1.83772e-01,9.99999e-01
7.169505741e-01,1.90026e-01,9.99999e-01,1.90026e-01,9.99999e-01
7.205353270e-01,1.96362e-01,9.99999e-01,1.96362e-01,9.99999e-01
7.241380036e-01,2.02778e-01,9.99999e-01,2.02778e-01,9.99999e-01
7.277586936e-01,2.09271e-01,9.99999e-01,2.09271e-01,9.99999e-01
7.313974871e-01,2.15837e-01,9.99999e-01,2.15837e-01,9.99999e-01
7.350544745e-01,2.22474e-01,9.99999e-01,2.22474e-01,9.99999e-01
7.387297469e-01,2.29178e-01,9.99999e-01,2.29178e-01,9.99999e-01
7.424233956e-01,2.35945e-01,9.99999e-01,2.35945e-01,9.99999e-01
7.461355126e-01,2.42772e-01,9.99999e-01,2.42772e-01,9.99999e-01
7.498661902e-01,2.49656e-01,9.99999e-01,2.49656e-01,9.99999e-01
7.536155211e-01,2.56594e-01,9.99999e-01,2.56594e-01,9.99999e-01
7.573835987e-01,2.63582e-01,9.99999e-01,2.63582e-01,9.99999e-01
7.611705167e-01,2.70616e-01,9.99999e-01,2.70616e-01,9.99999e-01
7.649763693e-01,2.77694e-01,9.99999e-01,2.77694e-01,9.99999e-01
7.688012511e-01,2.84811e-01,9.99999e-01,2.84811e-01,9.99999e-01
7.726452574e-01,2.91965e-01,9.99999e-01,2.91965e-01,9.99999e-01
7.765084837e-01,2.98041e-01,9.96283e-01,2.99152e-01,9.99999e-01
7.803910261e-01,2.40098e-01,7.83688e-01,3.06369e-01,9.99999e-01
7.842929812e-01,2.60590e-01,8.30930e-01,3.13612e-01,9.99999e-01
7.882144461e-01,2.61801e-01,8.15889e-01,3.20878e-01,9.99999e-01
7.921555184e-01,2.86163e-01,8.72011e-01,3.28164e-01,9.99999e-01
7.961162960e-01,3.09853e-01,9.23648e-01,3.35467e-01,9.99999e-01
8.000968774e-01,3.29037e-01,9.59897e-01,3.42783e-01,9.99999e-01
8.040973618e-01,3.43610e-01,9.81436e-01,3.50109e-01,9.99999e-01
8.081178486e-01,3.54811e-01,9.92636e-01,3.57443e-01,9.99999e-01
8.121584379e-01,3.64065e-01,9.98038e-01,3.64781e-01,9.99999e-01
8.162192301e-01,3.72071e-01,9.99867e-01,3.72120e-01,9.99999e-01
8.203003262e-01,3.79457e-01,9.99999e-01,3.79457e-01,9.99999e-01
8.244018279e-01,3.86790e-01,9.99999e-01,3.86790e-01,9.99999e-01
8.285238370e-01,3.94116e-01,9.99999e-01,3.94116e-01,9.99999e-01
8.326664562e-01,4.01431e-01,9.99999e-01,4.01431e-01,9.99999e-01
8.368297885e-01,4.08734e-01,9.99999e-01,4.08734e-01,9.99999e-01
8.410139374e-01,4.16022e-01,9.99999e-01,4.16022e-01,9.99999e-01
8.452190071e-01,4.23291e-01,9.99999e-01,4.23291e-01,9.99999e-01
8.494451021e-01,4.30541e-01,9.99999e-01,4.30541e-01,9.99999e-01
8.536923276e-01,4.37767e-01,9.99999e-01,4.37767e-01,9.99999e-01
8.579607893e-01,4.44969e-01,9.99999e-01,4.44969e-01,9.99999e-01
8.622505932e-01,4.51435e-01,9.98433e-01,4.52143e-01,9.99999e-01
8.665618462e-01,2.56424e-01,5.58307e-01,4.59288e-01,9.99999e-01
8.708946554e-01,2.47143e-01,5.29892e-01,4.66401e-01,9.99999e-01
8.752491287e-01,3.17753e-01,6.71098e-01,4.73481e-01,9.99999e-01
8.796253743e-01,3.95432e-01,8.22916e-01,4.80525e-01,9.99999e-01
8.840235012e-01,4.47150e-01,9.17171e-01,4.87532e-01,9.99999e-01
8.884436187e-01,4.77866e-01,9.66363e-01,4.94499e-01,9.99999e-01
8.928858368e-01,4.96266e-01,9.89709e-01,5.01426e-01,9.99999e-01
8.973502660e-01,5.07296e-01,9.98005e-01,5.08310e-01,9.99999e-01
9.018370173e-01,5.14367e-01,9.98480e-01,5.15149e-01,9.99999e-01
9.063462024e-01,5.01302e-01,9.60453e-01,5.21943e-01,9.99999e-01
9.108779334e-01,5.19230e-01,9.82106e-01,5.28689e-01,9.99999e-01
9.154323231e-01,5.20446e-01,9.72091e-01,5.35387e-01,9.99999e-01
9.200094847e-01,4.41218e-01,8.14002e-01,5.42035e-01,9.99999e-01
9.246095321e-01,4.77399e-01,8.70162e-01,5.48632e-01,9.99999e-01
9.292325798e-01,4.75824e-01,8.57068e-01,5.55176e-01,9.99999e-01
9.338787427e-01,4.94781e-01,8.80913e-01,5.61667e-01,9.99999e-01
9.385481364e-01,5.29988e-01,9.32906e-01,5.68104e-01,9.99999e-01
9.432408771e-01,5.50788e-01,9.58752e-01,5.74484e-01,9.99999e-01
9.479570815e-01,5.67851e-01,9.77690e-01,5.80809e-01,9.99999e-01
9.526968669e-01,5.81397e-01,9.90327e-01,5.87075e-01,9.99999e-01
9.574603512e-01,5.91273e-01,9.96609e-01,5.93284e-01,9.99999e-01
9.622476530e-01,5.98777e-01,9.98903e-01,5.99434e-01,9.99999e-01
9.670588912e-01,6.05422e-01,9.99830e-01,6.05524e-01,9.99999e-01
9.718941857e-01,6.11554e-01,9.99999e-01,6.11554e-01,9.99999e-01
9.767536566e-01,6.17523e-01,9.99999e-01,6.17523e-01,9.99999e-01
9.816374249e-01,6.23431e-01,9.99999e-01,6.23431e-01,9.99999e-01
9.865456120e-01,6.29277e-01,9.99999e-01,6.29277e-01,9.99999e-01
9.914783401e-01,6.35061e-01,9.99999e-01,6.35061e-01,9.99999e-01
9.964357318e-01,6.40782e-01,9.99999e-01,6.40782e-01,9.99999e-01
1.001417910e+00,6.46440e-01,9.99999e-01,6.46440e-01,9.99999e-01
1.006425000e+00,6.52035e-01,9.99999e-01,6.52035e-01,9.99999e-01
1.011457125e+00,6.57566e-01,9.99999e-01,6.57566e-01,9.99999e-01
1.016514411e+00,6.63033e-01,9.99998e-01,6.63033e-01,9.99999e-01
1.021596983e+00,6.67340e-01,9.98358e-01,6.68437e-01,9.99999e-01
1.026704968e+00,6.64985e-01,9.86951e-01,6.73777e-01,9.99999e-01
1.031838492e+00,2.87335e-01,4.23141e-01,6.79052e-01,9.99999e-01
1.036997685e+00,7.80499e-03,1.14064e-02,6.84264e-01,9.99999e-01
1.042182673e+00,5.83293e-02,8.46073e-02,6.89411e-01,9.99999e-01
1.047393587e+00,3.78262e-03,5.44657e-03,6.94494e-01,9.99999e-01
1.052630555e+00,1.66616e-04,2.38189e-04,6.99514e-01,9.99999e-01
1.057893707e+00,8.25688e-04,1.17207e-03,7.04469e-01,9.99999e-01
1.063183176e+00,9.57951e-03,1.35044e-02,7.09360e-01,9.99999e-01
1.068499092e+00,4.81875e-02,6.74716e-02,7.14188e-01,9.99999e-01
1.073841587e+00,9.62954e-02,1.33938e-01,7.18953e-01,9.99999e-01
1.079210795e+00,2.47141e-01,3.41519e-01,7.23654e-01,9.99999e-01
1.084606849e+00,3.93903e-01,5.40858e-01,7.28292e-01,9.99999e-01
1.090029883e+00,5.42053e-01,7.39633e-01,7.32867e-01,9.99999e-01
1.095480033e+00,6.35617e-01,8.61993e-01,7.37380e-01,9.99999e-01
1.100957433e+00,6.96471e-01,9.38854e-01,7.41830e-01,9.99999e-01
1.106462220e+00,7.27112e-01,9.74393e-01,7.46219e-01,9.99999e-01
1.111994531e+00,7.44912e-01,9.92492e-01,7.50547e-01,9.99999e-01
1.117554504e+00,7.53880e-01,9.98763e-01,7.54813e-01,9.99999e-01
1.123142276e+00,7.59013e-01,9.99992e-01,7.59018e-01,9.99999e-01
1.128757988e+00,7.63163e-01,9.99999e-01,7.63163e-01,9.99999e-01
1.134401778e+00,7.67249e-01,9.99999e-01,7.67249e-01,9.99999e-01
1.140073787e+00,7.71274e-01,9.99999e-01,7.71274e-01,9.99999e-01
1.145774156e+00,7.75241e-01,9.99999e-01,7.75241e-01,9.99999e-01
1.151503026e+00,7.79149e-01,9.99999e-01,7.79149e-01,9.99999e-01
1.157260541e+00,7.82999e-01,9.99999e-01,7.82999e-01,9.99999e-01
1.163046844e+00,7.86792e-01,9.99999e-01,7.86792e-01,9.99999e-01
1.168862078e+00,7.90527e-01,9.99999e-01,7.90527e-01,9.99999e-01
1.174706389e+00,7.94206e-01,9.99999e-01,7.94206e-01,9.99999e-01
1.180579921e+00,7.97829e-01,9.99999e-01,7.97829e-01,9.99999e-01
1.186482820e+00,7.99659e-01,9.97831e-01,8.01396e-01,9.99999e-01
1.192415234e+00,7.58399e-01,9.42216e-01,8.04909e-01,9.99999e-01
1.198377311e+00,6.65080e-02,8.22744e-02,8.08367e-01,9.99999e-01
1.204369197e+00,1.45750e-85,1.79546e-85,8.11771e-01,9.99999e-01
1.210391043e+00,2.71255e-65,3.32778e-65,8.15121e-01,9.99999e-01
1.216442998e+00,4.72327e-57,5.77121e-57,8.18419e-01,9.99999e-01
1.222525213e+00,2.57288e-44,3.13130e-44,8.21665e-01,9.99999e-01
1.228637839e+00,7.86356e-34,9.53321e-34,8.24859e-01,9.99999e-01
1.234781029e+00,1.03432e-22,1.24917e-22,8.28002e-01,9.99999e-01
1.240954934e+00,4.69245e-14,5.64610e-14,8.31095e-01,9.99999e-01
1.247159708e+00,3.33584e-07,3.99915e-07,8.34137e-01,9.99999e-01
1.253395507e+00,3.17469e-05,3.79234e-05,8.37131e-01,9.99999e-01
1.259662485e+00,2.97361e-03,3.53969e-03,8.40075e-01,9.99999e-01
1.265960797e+00,5.59921e-02,6.64222e-02,8.42972e-01,9.99999e-01
1.272290601e+00,1.78635e-01,2.11196e-01,8.45821e-01,9.99999e-01
1.278652054e+00,1.98990e-02,2.34485e-02,8.48623e-01,9.99999e-01
1.285045314e+00,6.45920e-07,7.58674e-07,8.51379e-01,9.99999e-01
1.291470541e+00,5.85364e-07,6.85366e-07,8.54089e-01,9.99999e-01
1.297927893e+00,1.40099e-02,1.63522e-02,8.56754e-01,9.99999e-01
1.304417533e+00,2.34908e-02,2.73347e-02,8.59375e-01,9.99999e-01
1.310939621e+00,2.21064e-04,2.56469e-04,8.61951e-01,9.99999e-01
1.317494319e+00,1.13804e-21,1.31644e-21,8.64484e-01,9.99999e-01
1.324081790e+00,8.12208e-10,9.36830e-10,8.66974e-01,9.99999e-01
1.330702199e+00,1.07826e-09,1.24020e-09,8.69422e-01,9.99999e-01
1.337355710e+00,7.55063e-09,8.66067e-09,8.71828e-01,9.99999e-01
1.344042489e+00,7.59214e-11,8.68473e-11,8.74194e-01,9.99999e-01
1.350762701e+00,1.80316e-07,2.05718e-07,8.76518e-01,9.99999e-01
1.357516515e+00,4.55524e-05,5.18345e-05,8.78803e-01,9.99999e-01
1.364304097e+00,3.11710e-03,3.53794e-03,8.81049e-01,9.99999e-01
1.371125618e+00,1.73129e-02,1.96012e-02,8.83255e-01,9.99999e-01
1.377981246e+00,7.77266e-02,8.77846e-02,8.85424e-01,9.99999e-01
1.384871152e+00,9.98859e-02,1.12540e-01,8.87555e-01,9.99999e-01
1.391795508e+00,2.22125e-01,2.49678e-01,8.89648e-01,9.99999e-01
1.398754485e+00,2.96884e-01,3.32939e-01,8.91705e-01,9.99999e-01
1.405748258e+00,4.51332e-01,5.04999e-01,8.93726e-01,9.99999e-01
1.412776999e+00,5.62144e-01,6.27594e-01,8.95712e-01,9.99999e-01
1.419840884e+00,1.06811e-01,1.18987e-01,8.97663e-01,9.99999e-01
1.426940089e+00,3.32588e-144,3.69715e-144,8.99579e-01,9.99999e-01
1.434074789e+00,0.00000e+00,0.00000e+00,9.01461e-01,9.99999e-01
1.441245163e+00,0.00000e+00,0.00000e+00,9.03311e-01,9.99999e-01
1.448451389e+00,0.00000e+00,0.00000e+00,9.05127e-01,9.99999e-01
1.455693646e+00,0.00000e+00,0.00000e+00,9.06911e-01,9.99999e-01
1.462972114e+00,2.84894e-156,3.13530e-156,9.08663e-01,9.99999e-01
1.470286975e+00,4.41490e-103,4.84949e-103,9.10383e-01,9.99999e-01
1.477638409e+00,1.15953e-49,1.27132e-49,9.12073e-01,9.99999e-01
1.485026601e+00,1.32680e-38,1.45206e-38,9.13733e-01,9.99999e-01
1.492451734e+00,1.41640e-20,1.54736e-20,9.15363e-01,9.99999e-01
1.499913993e+00,8.64359e-14,9.42631e-14,9.16963e-01,9.99999e-01
1.507413563e+00,2.52955e-14,2.75389e-14,9.18534e-01,9.99999e-01
1.514950631e+00,2.62119e-29,2.84888e-29,9.20077e-01,9.99999e-01
1.522525384e+00,2.81410e-79,3.05352e-79,9.21592e-01,9.99999e-01
1.530138011e+00,1.52057e-87,1.64728e-87,9.23080e-01,9.99999e-01
1.537788701e+00,1.43810e-38,1.55547e-38,9.24540e-01,9.99999e-01
1.545477645e+00,2.17846e-14,2.35261e-14,9.25974e-01,9.99999e-01
1.553205033e+00,1.46138e-13,1.57581e-13,9.27382e-01,9.99999e-01
1.560971058e+00,2.04421e-37,2.20100e-37,9.28764e-01,9.99999e-01
1.568775913e+00,0.00000e+00,0.00000e+00,9.30121e-01,9.99999e-01
1.576619793e+00,0.00000e+00,0.00000e+00,9.31453e-01,9.99999e-01
1.584502892e+00,1.43960e-264,1.54338e-264,9.32760e-01,9.99999e-01
1.592425406e+00,1.39884e-264,1.49762e-264,9.34043e-01,9.99999e-01
1.600387533e+00,0.00000e+00,0.00000e+00,9.35303e-01,9.99999e-01
1.608389471e+00,0.00000e+00,0.00000e+00,9.36540e-01,9.99999e-01
1.616431418e+00,0.00000e+00,0.00000e+00,9.37753e-01,9.99999e-01
1.624513575e+00,1.10905e-274,1.18117e-274,9.38944e-01,9.99999e-01
1.632636143e+00,8.81162e-135,9.37293e-135,9.40113e-01,9.99999e-01
1.640799324e+00,4.74644e-102,5.04263e-102,9.41261e-01,9.99999e-01
1.649003321e+00,5.88563e-80,6.24544e-80,9.42387e-01,9.99999e-01
1.657248337e+00,5.43889e-79,5.76463e-79,9.43492e-01,9.99999e-01
1.665534579e+00,3.57592e-56,3.78573e-56,9.44577e-01,9.99999e-01
1.673862252e+00,6.95529e-45,7.35509e-45,9.45641e-01,9.99999e-01
1.682231563e+00,1.58396e-24,1.67316e-24,9.46686e-01,9.99999e-01
1.690642721e+00,5.78006e-16,6.09897e-16,9.47711e-01,9.99999e-01
1.699095934e+00,1.50272e-08,1.58395e-08,9.48717e-01,9.99999e-01
1.707591414e+00,2.39060e-05,2.51721e-05,9.49704e-01,9.99999e-01
1.716129371e+00,2.88344e-03,3.03305e-03,9.50672e-01,9.99999e-01
1.724710018e+00,2.68267e-02,2.81904e-02,9.51623e-01,9.99999e-01
1.733333568e+00,1.18458e-01,1.24358e-01,9.52555e-01,9.99999e-01
1.742000236e+00,4.42690e-02,4.64293e-02,9.53470e-01,9.99999e-01
1.750710237e+00,7.04045e-08,7.37708e-08,9.54368e-01,9.99999e-01
1.759463788e+00,1.73924e-50,1.82072e-50,9.55249e-01,9.99999e-01
1.768261107e+00,1.02640e-49,1.07351e-49,9.56113e-01,9.99999e-01
1.777102413e+00,1.30264e-49,1.36122e-49,9.56961e-01,9.99999e-01
1.785987925e+00,2.87061e-44,2.99710e-44,9.57793e-01,9.99999e-01
1.794917864e+00,3.62527e-45,3.78179e-45,9.58609e-01,9.99999e-01
1.803892454e+00,6.42530e-41,6.69713e-41,9.59410e-01,9.99999e-01
1.812911916e+00,8.08436e-49,8.41948e-49,9.60195e-01,9.99999e-01
1.821976476e+00,7.64304e-36,7.95349e-36,9.60966e-01,9.99999e-01
1.831086358e+00,1.09063e-32,1.13404e-32,9.61722e-01,9.99999e-01
1.840241790e+00,2.87326e-20,2.98532e-20,9.62464e-01,9.99999e-01
1.849442999e+00,3.66111e-19,3.80102e-19,9.63191e-01,9.99999e-01
1.858690214e+00,1.54183e-18,1.59956e-18,9.63905e-01,9.99999e-01
1.867983665e+00,1.97237e-29,2.04474e-29,9.64605e-01,9.99999e-01
1.877323583e+00,1.56651e-93,1.62284e-93,9.65292e-01,9.99999e-01
