#,Wave/freq,Total,CO2,Rayleigh,CIA
4.000000000e-01,1.50285e-21,9.99999e-01,1.50285e-21,9.99999e-01
4.020000000e-01,3.87302e-21,9.99999e-01,3.87302e-21,9.99999e-01
4.040100000e-01,9.80024e-21,9.99999e-01,9.80024e-21,9.99999e-01
4.060300500e-01,2.43478e-20,9.99999e-01,2.43478e-20,9.99999e-01
4.080602003e-01,5.94122e-20,9.99999e-01,5.94122e-20,9.99999e-01
4.101005013e-01,1.42442e-19,9.99999e-01,1.42442e-19,9.99999e-01
4.121510038e-01,3.35661e-19,9.99999e-01,3.35661e-19,9.99999e-01
4.142117588e-01,7.77697e-19,9.99999e-01,7.77697e-19,9.99999e-01
4.162828176e-01,1.77220e-18,9.99999e-01,1.77220e-18,9.99999e-01
4.183642317e-01,3.97327e-18,9.99999e-01,3.97327e-18,9.99999e-01
4.204560528e-01,8.76714e-18,9.99999e-01,8.76714e-18,9.99999e-01
4.225583331e-01,1.90449e-17,9.99999e-01,1.90449e-17,9.99999e-01
4.246711247e-01,4.07422e-17,9.99999e-01,4.07422e-17,9.99999e-01
4.267944804e-01,8.58592e-17,9.99999e-01,8.58592e-17,9.99999e-01
4.289284528e-01,1.78293e-16,9.99999e-01,1.78293e-16,9.99999e-01
4.310730950e-01,3.64933e-16,9.99999e-01,3.64933e-16,9.99999e-01
4.332284605e-01,7.36458e-16,9.99999e-01,7.36458e-16,9.99999e-01
4.353946028e-01,1.46575e-15,9.99999e-01,1.46575e-15,9.99999e-01
4.375715758e-01,2.87784e-15,9.99999e-01,2.87784e-15,9.99999e-01
4.397594337e-01,5.57552e-15,9.99999e-01,5.57552e-15,9.99999e-01
4.419582309e-01,1.06618e-14,9.99999e-01,1.06618e-14,9.99999e-01
4.441680220e-01,2.01287e-14,9.99999e-01,2.01287e-14,9.99999e-01
4.463888621e-01,3.75276e-14,9.99999e-01,3.75276e-14,9.99999e-01
4.486208064e-01,6.91099e-14,9.99999e-01,6.91099e-14,9.99999e-01
4.508639105e-01,1.25745e-13,9.99999e-01,1.25745e-13,9.99999e-01
4.531182300e-01,2.26104e-13,9.99999e-01,2.26104e-13,9.99999e-01
4.553838212e-01,4.01876e-13,9.99999e-01,4.01876e-13,9.99999e-01
4.576607403e-01,7.06224e-13,9.99999e-01,7.06224e-13,9.99999e-01
4.599490440e-01,1.22731e-12,9.99999e-01,1.22731e-12,9.99999e-01
4.622487892e-01,2.10974e-12,9.99999e-01,2.10974e-12,9.99999e-01
4.645600332e-01,3.58801e-12,9.99999e-01,3.58801e-12,9.99999e-01
4.668828333e-01,6.03843e-12,9.99999e-01,6.03843e-12,9.99999e-01
4.692172475e-01,1.00584e-11,9.99999e-01,1.00584e-11,9.99999e-01
4.715633337e-01,1.65865e-11,9.99999e-01,1.65865e-11,9.99999e-01
4.739211504e-01,2.70827e-11,9.99999e-01,2.70827e-11,9.99999e-01
4.762907561e-01,4.37948e-11,9.99999e-01,4.37948e-11,9.99999e-01
4.786722099e-01,7.01504e-11,9.99999e-01,7.01504e-11,9.99999e-01
4.810655710e-01,1.11326e-10,9.99999e-01,1.11326e-10,9.99999e-01
4.834708988e-01,1.75066e-10,9.99999e-01,1.75066e-10,9.99999e-01
4.858882533e-01,2.72849e-10,9.99999e-01,2.72849e-10,9.99999e-01
4.883176946e-01,4.21537e-10,9.99999e-01,4.21537e-10,9.99999e-01
4.907592831e-01,6.45682e-10,9.99999e-01,6.45682e-10,9.99999e-01
4.932130795e-01,9.80717e-10,9.99999e-01,9.80717e-10,9.99999e-01
4.956791449e-01,1.47735e-09,9.99999e-01,1.47735e-09,9.99999e-01
4.981575406e-01,2.20753e-09,9.99999e-01,2.20753e-09,9.99999e-01
5.006483283e-01,3.27255e-09,9.99999e-01,3.27255e-09,9.99999e-01
5.031515699e-01,4.81381e-09,9.99999e-01,4.81381e-09,9.99999e-01
5.056673278e-01,7.02717e-09,9.99999e-01,7.02717e-09,9.99999e-01
5.081956644e-01,1.01818e-08,9.99999e-01,1.01818e-08,9.99999e-01
5.107366428e-01,1.46451e-08,9.99999e-01,1.46451e-08,9.99999e-01
5.132903260e-01,2.09141e-08,9.99999e-01,2.09141e-08,9.99999e-01
5.158567776e-01,2.96571e-08,9.99999e-01,2.96571e-08,9.99999e-01
5.184360615e-01,4.17660e-08,9.99999e-01,4.17660e-08,9.99999e-01
5.210282418e-01,5.84225e-08,9.99999e-01,5.84225e-08,9.99999e-01
5.236333830e-01,8.11817e-08,9.99999e-01,8.11817e-08,9.99999e-01
5.262515499e-01,1.12076e-07,9.99999e-01,1.12076e-07,9.99999e-01
5.288828077e-01,1.53746e-07,9.99999e-01,1.53746e-07,9.99999e-01
5.315272217e-01,2.09595e-07,9.99999e-01,2.09595e-07,9.99999e-01
5.341848578e-01,2.83988e-07,9.99999e-01,2.83988e-07,9.99999e-01
5.368557821e-01,3.82484e-07,9.99999e-01,3.82484e-07,9.99999e-01
5.395400610e-01,5.12121e-07,9.99999e-01,5.12121e-07,9.99999e-01
5.422377613e-01,6.81755e-07,9.99999e-01,6.81755e-07,9.99999e-01
5.449489501e-01,9.02463e-07,9.99999e-01,9.02463e-07,9.99999e-01
5.476736949e-01,1.18802e-06,9.99999e-01,1.18802e-06,9.99999e-01
5.504120634e-01,1.55547e-06,9.99999e-01,1.55547e-06,9.99999e-01
5.531641237e-01,2.02575e-06,9.99999e-01,2.02575e-06,9.99999e-01
5.559299443e-01,2.62450e-06,9.99999e-01,2.62450e-06,9.99999e-01
5.587095940e-01,3.38286e-06,9.99999e-01,3.38286e-06,9.99999e-01
5.615031420e-01,4.33854e-06,9.99999e-01,4.33854e-06,9.99999e-01
5.643106577e-01,5.53693e-06,9.99999e-01,5.53693e-06,9.99999e-01
5.671322110e-01,7.03239e-06,9.99999e-01,7.03239e-06,9.99999e-01
5.699678720e-01,8.88966e-06,9.99999e-01,8.88966e-06,9.99999e-01
5.728177114e-01,1.11855e-05,9.99999e-01,1.11855e-05,9.99999e-01
5.756818000e-01,1.40107e-05,9.99999e-01,1.40107e-05,9.99999e-01
5.785602090e-01,1.74714e-05,9.99999e-01,1.74714e-05,9.99999e-01
5.814530100e-01,2.16922e-05,9.99999e-01,2.16922e-05,9.99999e-01
5.843602750e-01,2.68178e-05,9.99999e-01,2.68178e-05,9.99999e-01
5.872820764e-01,3.30159e-05,9.99999e-01,3.30159e-05,9.99999e-01
5.902184868e-01,4.04799e-05,9.99999e-01,4.04799e-05,9.99999e-01
5.931695792e-01,4.94319e-05,9.99999e-01,4.94319e-05,9.99999e-01
5.961354271e-01,6.01259e-05,9.99999e-01,6.01259e-05,9.99999e-01
5.991161043e-01,7.28510e-05,9.99999e-01,7.28510e-05,9.99999e-01
6.021116848e-01,8.79352e-05,9.99999e-01,8.79352e-05,9.99999e-01
6.051222432e-01,1.05749e-04,9.99999e-01,1.05749e-04,9.99999e-01
6.081478544e-01,1.26709e-04,9.99999e-01,1.26709e-04,9.99999e-01
6.111885937e-01,1.51281e-04,9.99999e-01,1.51281e-04,9.99999e-01
6.142445367e-01,1.79988e-04,9.99999e-01,1.79988e-04,9.99999e-01
6.173157594e-01,2.13409e-04,9.99999e-01,2.13409e-04,9.99999e-01
6.204023382e-01,2.52185e-04,9.99999e-01,2.52185e-04,9.99999e-01
6.235043498e-01,2.97026e-04,9.99999e-01,2.97026e-04,9.99999e-01
6.266218716e-01,3.48711e-04,9.99999e-01,3.48711e-04,9.99999e-01
6.297549810e-01,4.08094e-04,9.99999e-01,4.08094e-04,9.99999e-01
6.329037559e-01,4.76109e-04,9.99999e-01,4.76109e-04,9.99999e-01
6.360682746e-01,5.53770e-04,9.99999e-01,5.53770e-04,9.99999e-01
6.392486160e-01,6.42180e-04,9.99999e-01,6.42180e-04,9.99999e-01
6.424448591e-01,7.42529e-04,9.99999e-01,7.42529e-04,9.99999e-01
6.456570834e-01,8.56100e-04,9.99999e-01,8.56100e-04,9.99999e-01
6.488853688e-01,9.84271e-04,9.99999e-01,9.84271e-04,9.99999e-01
6.521297956e-01,1.12852e-03,9.99999e-01,1.12852e-03,9.99999e-01
6.553904446e-01,1.29041e-03,9.99999e-01,1.29041e-03,9.99999e-01
6.586673968e-01,1.47163e-03,9.99999e-01,1.47163e-03,9.99999e-01
6.619607338e-01,1.67395e-03,9.99999e-01,1.67395e-03,9.99999e-01
6.652705375e-01,1.89924e-03,9.99999e-01,1.89924e-03,9.99999e-01
6.685968902e-01,2.14949e-03,9.99999e-01,2.14949e-03,9.99999e-01
6.719398746e-01,2.42676e-03,9.99999e-01,2.42676e-03,9.99999e-01
6.752995740e-01,2.73325e-03,9.99999e-01,2.73325e-03,9.99999e-01
6.786760719e-01,3.07123e-03,9.99999e-01,3.07123e-03,9.99999e-01
6.820694522e-01,3.44305e-03,9.99999e-01,3.44305e-03,9.99999e-01
6.854797995e-01,3.85119e-03,9.99999e-01,3.85119e-03,9.99999e-01
6.889071985e-01,4.29819e-03,9.99999e-01,4.29819e-03,9.99999e-01
6.923517345e-01,4.78667e-03,9.99999e-01,4.78667e-03,9.99999e-01
6.958134932e-01,5.31935e-03,9.99999e-01,5.31935e-03,9.99999e-01
6.992925606e-01,5.89901e-03,9.99999e-01,5.89901e-03,9.99999e-01
7.027890234e-01,6.52847e-03,9.99999e-01,6.52847e-03,9.99999e-01
7.063029686e-01,7.21065e-03,9.99999e-01,7.21065e-03,9.99999e-01
7.098344834e-01,7.94849e-03,9.99999e-01,7.94849e-03,9.99999e-01
7.133836558e-01,8.74499e-03,9.99999e-01,8.74499e-03,9.99999e-01
7.169505741e-01,9.60317e-03,9.99999e-01,9.60317e-03,9.99999e-01
7.205353270e-01,1.05261e-02,9.99999e-01,1.05261e-02,9.99999e-01
7.241380036e-01,1.15168e-02,9.99999e-01,1.15168e-02,9.99999e-01
7.277586936e-01,1.25784e-02,9.99999e-01,1.25784e-02,9.99999e-01
7.313974871e-01,1.37140e-02,9.99999e-01,1.37140e-02,9.99999e-01
7.350544745e-01,1.49265e-02,9.99999e-01,1.49265e-02,9.99999e-01
7.387297469e-01,1.62191e-02,9.99999e-01,1.62191e-02,9.99999e-01
7.424233956e-01,1.75948e-02,9.99999e-01,1.75948e-02,9.99999e-01
7.461355126e-01,1.90564e-02,9.99999e-01,1.90564e-02,9.99999e-01
7.498661902e-01,2.06070e-02,9.99999e-01,2.06070e-02,9.99999e-01
7.536155211e-01,2.22494e-02,9.99999e-01,2.22494e-02,9.99999e-01
7.573835987e-01,2.39862e-02,9.99999e-01,2.39862e-02,9.99999e-01
7.611705167e-01,2.58203e-02,9.99999e-01,2.58203e-02,9.99999e-01
7.649763693e-01,2.77542e-02,9.99999e-01,2.77542e-02,9.99999e-01
7.688012511e-01,2.97905e-02,9.99999e-01,2.97905e-02,9.99999e-01
7.726452574e-01,3.19314e-02,9.99999e-01,3.19314e-02,9.99999e-01
7.765084837e-01,3.38560e-02,9.90538e-01,3.41793e-02,9.99999e-01
7.803910261e-01,2.05857e-02,5.63431e-01,3.65364e-02,9.99999e-01
7.842929812e-01,2.36959e-02,6.07516e-01,3.90045e-02,9.99999e-01
7.882144461e-01,2.42397e-02,5.82885e-01,4.15857e-02,9.99999e-01
7.921555184e-01,3.04677e-02,6.88043e-01,4.42816e-02,9.99999e-01
7.961162960e-01,3.77783e-02,8.02192e-01,4.70938e-02,9.99999e-01
8.000968774e-01,4.46275e-02,8.92127e-01,5.00237e-02,9.99999e-01
8.040973618e-01,5.03669e-02,9.49019e-01,5.30726e-02,9.99999e-01
8.081178486e-01,5.50926e-02,9.79570e-01,5.62416e-02,9.99999e-01
8.121584379e-01,5.92057e-02,9.94527e-01,5.95315e-02,9.99999e-01
8.162192301e-01,6.29199e-02,9.99629e-01,6.29432e-02,9.99999e-01
8.203003262e-01,6.64772e-02,9.99999e-01,6.64772e-02,9.99999e-01
8.244018279e-01,7.01338e-02,9.99999e-01,7.01338e-02,9.99999e-01
8.285238370e-01,7.39134e-02,9.99999e-01,7.39134e-02,9.99999e-01
8.326664562e-01,7.78160e-02,9.99999e-01,7.78160e-02,9.99999e-01
8.368297885e-01,8.18414e-02,9.99999e-01,8.18414e-02,9.99999e-01
8.410139374e-01,8.59893e-02,9.99999e-01,8.59893e-02,9.99999e-01
8.452190071e-01,9.02593e-02,9.99999e-01,9.02593e-02,9.99999e-01
8.494451021e-01,9.46506e-02,9.99999e-01,9.46506e-02,9.99999e-01
8.536923276e-01,9.91625e-02,9.99999e-01,9.91625e-02,9.99999e-01
8.579607893e-01,1.03794e-01,9.99999e-01,1.03794e-01,9.99999e-01
8.622505932e-01,1.08082e-01,9.95741e-01,1.08544e-01,9.99999e-01
8.665618462e-01,3.52650e-02,3.10949e-01,1.13411e-01,9.99999e-01
8.708946554e-01,2.39891e-02,2.02622e-01,1.18393e-01,9.99999e-01
8.752491287e-01,4.19851e-02,3.39988e-01,1.23490e-01,9.99999e-01
8.796253743e-01,7.49915e-02,5.82690e-01,1.28699e-01,9.99999e-01
8.840235012e-01,1.05377e-01,7.86289e-01,1.34018e-01,9.99999e-01
8.884436187e-01,1.26744e-01,9.08916e-01,1.39445e-01,9.99999e-01
8.928858368e-01,1.40852e-01,9.71540e-01,1.44978e-01,9.99999e-01
8.973502660e-01,1.49778e-01,9.94437e-01,1.50615e-01,9.99999e-01
9.018370173e-01,1.55711e-01,9.95887e-01,1.56354e-01,9.99999e-01
9.063462024e-01,1.45089e-01,8.94555e-01,1.62191e-01,9.99999e-01
9.108779334e-01,1.59879e-01,9.50959e-01,1.68124e-01,9.99999e-01
9.154323231e-01,1.63566e-01,9.39215e-01,1.74151e-01,9.99999e-01
9.200094847e-01,1.03464e-01,5.73943e-01,1.80268e-01,9.99999e-01
9.246095321e-01,1.26749e-01,6.79715e-01,1.86474e-01,9.99999e-01
9.292325798e-01,1.27682e-01,6.62376e-01,1.92763e-01,9.99999e-01
9.338787427e-01,1.40493e-01,7.05519e-01,1.99135e-01,9.99999e-01
9.385481364e-01,1.69461e-01,8.24289e-01,2.05585e-01,9.99999e-01
9.432408771e-01,1.88630e-01,8.89305e-01,2.12110e-01,9.99999e-01
9.479570815e-01,2.05355e-01,9.38950e-01,2.18707e-01,9.99999e-01
9.526968669e-01,2.19333e-01,9.73197e-01,2.25373e-01,9.99999e-01
9.574603512e-01,2.29911e-01,9.90548e-01,2.32105e-01,9.99999e-01
9.622476530e-01,2.38167e-01,9.96937e-01,2.38898e-01,9.99999e-01
9.670588912e-01,2.45634e-01,9.99525e-01,2.45751e-01,9.99999e-01
9.718941857e-01,2.52658e-01,9.99998e-01,2.52659e-01,9.99999e-01
9.767536566e-01,2.59618e-01,9.99999e-01,2.59618e-01,9.99999e-01
9.816374249e-01,2.66627e-01,9.99999e-01,2.66627e-01,9.99999e-01
9.865456120e-01,2.73680e-01,9.99999e-01,2.73680e-01,9.99999e-01
9.914783401e-01,2.80776e-01,9.99999e-01,2.80776e-01,9.99999e-01
9.964357318e-01,2.87909e-01,9.99999e-01,2.87909e-01,9.99999e-01
1.001417910e+00,2.95078e-01,9.99999e-01,2.95078e-01,9.99999e-01
1.006425000e+00,3.02278e-01,9.99999e-01,3.02278e-01,9.99999e-01
1.011457125e+00,3.09507e-01,9.99999e-01,3.09507e-01,9.99999e-01
1.016514411e+00,3.16759e-01,9.99996e-01,3.16760e-01,9.99999e-01
1.021596983e+00,3.22553e-01,9.95425e-01,3.24035e-01,9.99999e-01
1.026704968e+00,3.19612e-01,9.64636e-01,3.31329e-01,9.99999e-01
1.031838492e+00,9.64756e-02,2.84893e-01,3.38638e-01,9.99999e-01
1.036997685e+00,8.22699e-06,2.37802e-05,3.45959e-01,9.99999e-01
1.042182673e+00,8.37108e-04,2.36947e-03,3.53289e-01,9.99999e-01
1.047393587e+00,4.04604e-05,1.12195e-04,3.60625e-01,9.99999e-01
1.052630555e+00,2.96624e-09,8.06122e-09,3.67963e-01,9.99999e-01
1.057893707e+00,5.93758e-08,1.58208e-07,3.75302e-01,9.99999e-01
1.063183176e+00,5.75580e-06,1.50424e-05,3.82638e-01,9.99999e-01
1.068499092e+00,4.19616e-04,1.07603e-03,3.89968e-01,9.99999e-01
1.073841587e+00,2.50046e-03,6.29379e-03,3.97290e-01,9.99999e-01
1.079210795e+00,2.36557e-02,5.84669e-02,4.04600e-01,9.99999e-01
1.084606849e+00,7.76809e-02,1.88593e-01,4.11896e-01,9.99999e-01
1.090029883e+00,1.82908e-01,4.36351e-01,4.19176e-01,9.99999e-01
1.095480033e+00,2.82395e-01,6.62218e-01,4.26438e-01,9.99999e-01
1.100957433e+00,3.63864e-01,8.39019e-01,4.33677e-01,9.99999e-01
1.106462220e+00,4.10110e-01,9.30177e-01,4.40893e-01,9.99999e-01
1.111994531e+00,4.38754e-01,9.79179e-01,4.48083e-01,9.99999e-01
1.117554504e+00,4.53675e-01,9.96549e-01,4.55245e-01,9.99999e-01
1.123142276e+00,4.62368e-01,9.99979e-01,4.62377e-01,9.99999e-01
1.128757988e+00,4.69476e-01,9.99999e-01,4.69476e-01,9.99999e-01
1.134401778e+00,4.76540e-01,9.99999e-01,4.76540e-01,9.99999e-01
1.140073787e+00,4.83568e-01,9.99999e-01,4.83568e-01,9.99999e-01
1.145774156e+00,4.90558e-01,9.99999e-01,4.90558e-01,9.99999e-01
1.151503026e+00,4.97508e-01,9.99999e-01,4.97508e-01,9.99999e-01
1.157260541e+00,5.04416e-01,9.99999e-01,5.04416e-01,9.99999e-01
1.163046844e+00,5.11281e-01,9.99999e-01,5.11281e-01,9.99999e-01
1.168862078e+00,5.18101e-01,9.99999e-01,5.18101e-01,9.99999e-01
1.174706389e+00,5.24874e-01,9.99999e-01,5.24874e-01,9.99999e-01
1.180579921e+00,5.31600e-01,9.99999e-01,5.31600e-01,9.99999e-01
1.186482820e+00,5.35049e-01,9.94004e-01,5.38276e-01,9.99999e-01
1.192415234e+00,4.68405e-01,8.59611e-01,5.44902e-01,9.99999e-01
1.198377311e+00,3.43680e-02,6.23200e-02,5.51477e-01,9.99999e-01
1.204369197e+00,2.67263e-235,4.78967e-235,5.57998e-01,9.99999e-01
1.210391043e+00,1.34233e-178,2.37805e-178,5.64465e-01,9.99999e-01
1.216442998e+00,1.52748e-155,2.67567e-155,5.70877e-01,9.99999e-01
1.222525213e+00,6.41283e-120,1.11096e-119,5.77234e-01,9.99999e-01
1.228637839e+00,1.37647e-90,2.35885e-90,5.83533e-01,9.99999e-01
1.234781029e+00,1.74000e-59,2.95027e-59,5.89775e-01,9.99999e-01
1.240954934e+00,1.06995e-35,1.79534e-35,5.95958e-01,9.99999e-01
1.247159708e+00,1.84937e-16,3.07161e-16,6.02082e-01,9.99999e-01
1.253395507e+00,4.20482e-12,6.91414e-12,6.08147e-01,9.99999e-01
1.259662485e+00,1.19905e-06,1.95236e-06,6.14150e-01,9.99999e-01
1.265960797e+00,7.73984e-04,1.24817e-03,6.20093e-01,9.99999e-01
1.272290601e+00,9.40568e-03,1.50257e-02,6.25974e-01,9.99999e-01
1.278652054e+00,4.06085e-04,6.42750e-04,6.31793e-01,9.99999e-01
1.285045314e+00,2.61180e-15,4.09662e-15,6.37549e-01,9.99999e-01
1.291470541e+00,2.75931e-16,4.28968e-16,6.43243e-01,9.99999e-01
1.297927893e+00,2.17785e-05,3.35636e-05,6.48874e-01,9.99999e-01
1.304417533e+00,7.44627e-05,1.13780e-04,6.54441e-01,9.99999e-01
1.310939621e+00,3.25135e-08,4.92670e-08,6.59945e-01,9.99999e-01
1.317494319e+00,1.19433e-56,1.79495e-56,6.65385e-01,9.99999e-01
1.324081790e+00,3.57517e-24,5.33001e-24,6.70761e-01,9.99999e-01
1.330702199e+00,4.18616e-24,6.19188e-24,6.76072e-01,9.99999e-01
1.337355710e+00,1.40747e-21,2.06580e-21,6.81320e-01,9.99999e-01
1.344042489e+00,2.43145e-27,3.54179e-27,6.86504e-01,9.99999e-01
1.350762701e+00,2.80770e-17,4.05957e-17,6.91623e-01,9.99999e-01
1.357516515e+00,5.06400e-12,7.26877e-12,6.96679e-01,9.99999e-01
1.364304097e+00,1.48910e-06,2.12222e-06,7.01670e-01,9.99999e-01
1.371125618e+00,1.51184e-05,2.13961e-05,7.06598e-01,9.99999e-01
1.377981246e+00,1.42127e-03,1.99768e-03,7.11462e-01,9.99999e-01
1.384871152e+00,1.69608e-03,2.36796e-03,7.16262e-01,9.99999e-01
1.391795508e+00,1.65769e-02,2.29916e-02,7.20999e-01,9.99999e-01
1.398754485e+00,3.58983e-02,4.94689e-02,7.25673e-01,9.99999e-01
1.405748258e+00,1.09904e-01,1.50495e-01,7.30283e-01,9.99999e-01
1.412776999e+00,2.01613e-01,2.74366e-01,7.34832e-01,9.99999e-01
1.419840884e+00,1.80785e-02,2.44529e-02,7.39317e-01,9.99999e-01
1.426940089e+00,0.00000e+00,0.00000e+00,7.43741e-01,9.99999e-01
1.434074789e+00,0.00000e+00,0.00000e+00,7.48103e-01,9.99999e-01
1.441245163e+00,0.00000e+00,0.00000e+00,7.52404e-01,9.99999e-01
1.448451389e+00,0.00000e+00,0.00000e+00,7.56644e-01,9.99999e-01
1.455693646e+00,0.00000e+00,0.00000e+00,7.60823e-01,9.99999e-01
1.462972114e+00,0.00000e+00,0.00000e+00,7.64942e-01,9.99999e-01
1.470286975e+00,2.58005e-284,3.35506e-284,7.69002e-01,9.99999e-01
1.477638409e+00,7.20496e-135,9.32074e-135,7.73002e-01,9.99999e-01
1.485026601e+00,7.05294e-105,9.07780e-105,7.76943e-01,9.99999e-01
1.492451734e+00,1.65028e-53,2.11350e-53,7.80826e-01,9.99999e-01
1.499913993e+00,1.98184e-36,2.52575e-36,7.84651e-01,9.99999e-01
1.507413563e+00,7.77032e-37,9.85556e-37,7.88419e-01,9.99999e-01
1.514950631e+00,6.20406e-78,7.83212e-78,7.92130e-01,9.99999e-01
1.522525384e+00,1.03655e-217,1.30255e-217,7.95784e-01,9.99999e-01
1.530138011e+00,7.65496e-241,9.57607e-241,7.99383e-01,9.99999e-01
1.537788701e+00,7.61031e-104,9.47821e-104,8.02926e-01,9.99999e-01
1.545477645e+00,3.65410e-37,4.53129e-37,8.06415e-01,9.99999e-01
1.553205033e+00,1.68785e-35,2.08415e-35,8.09849e-01,9.99999e-01
1.560971058e+00,1.31575e-100,1.61793e-100,8.13230e-01,9.99999e-01
1.568775913e+00,0.00000e+00,0.00000e+00,8.16558e-01,9.99999e-01
1.576619793e+00,0.00000e+00,0.00000e+00,8.19833e-01,9.99999e-01
1.584502892e+00,0.00000e+00,0.00000e+00,8.23056e-01,9.99999e-01
1.592425406e+00,0.00000e+00,0.00000e+00,8.26228e-01,9.99999e-01
1.600387533e+00,0.00000e+00,0.00000e+00,8.29349e-01,9.99999e-01
1.608389471e+00,0.00000e+00,0.00000e+00,8.32420e-01,9.99999e-01
1.616431418e+00,0.00000e+00,0.00000e+00,8.35441e-01,9.99999e-01
1.624513575e+00,0.00000e+00,0.00000e+00,8.38414e-01,9.99999e-01
1.632636143e+00,0.00000e+00,0.00000e+00,8.41337e-01,9.99999e-01
1.640799324e+00,1.69459e-281,2.00729e-281,8.44213e-01,9.99999e-01
1.649003321e+00,1.30710e-219,1.54313e-219,8.47042e-01,9.99999e-01
1.657248337e+00,5.05940e-217,5.95346e-217,8.49824e-01,9.99999e-01
1.665534579e+00,4.41159e-153,5.17452e-153,8.52560e-01,9.99999e-01
1.673862252e+00,1.65534e-121,1.93550e-121,8.55250e-01,9.99999e-01
1.682231563e+00,1.46786e-64,1.71099e-64,8.57896e-01,9.99999e-01
1.690642721e+00,4.03698e-41,4.69144e-41,8.60497e-01,9.99999e-01
1.699095934e+00,6.05717e-20,7.01828e-20,8.63055e-01,9.99999e-01
1.707591414e+00,3.23382e-12,3.73606e-12,8.65569e-01,9.99999e-01
1.716129371e+00,4.71856e-07,5.43587e-07,8.68041e-01,9.99999e-01
1.724710018e+00,7.44482e-05,8.55263e-05,8.70471e-01,9.99999e-01
1.733333568e+00,4.08449e-03,4.67944e-03,8.72859e-01,9.99999e-01
1.742000236e+00,2.30073e-03,2.62878e-03,8.75207e-01,9.99999e-01
1.750710237e+00,5.39707e-18,6.15040e-18,8.77514e-01,9.99999e-01
1.759463788e+00,3.07650e-137,3.49688e-137,8.79782e-01,9.99999e-01
1.768261107e+00,5.21192e-135,5.90913e-135,8.82010e-01,9.99999e-01
1.777102413e+00,5.40528e-135,6.11318e-135,8.84200e-01,9.99999e-01
1.785987925e+00,2.81401e-120,3.17482e-120,8.86352e-01,9.99999e-01
1.794917864e+00,1.11449e-122,1.25440e-122,8.88467e-01,9.99999e-01
1.803892454e+00,6.30871e-111,7.08410e-111,8.90545e-01,9.99999e-01
1.812911916e+00,5.02275e-133,5.62718e-133,8.92586e-01,9.99999e-01
1.821976476e+00,3.29419e-96,3.68234e-96,8.94592e-01,9.99999e-01
1.831086358e+00,1.56667e-88,1.74742e-88,8.96562e-01,9.99999e-01
1.840241790e+00,1.20631e-52,1.34258e-52,8.98498e-01,9.99999e-01
1.849442999e+00,2.99140e-51,3.32230e-51,9.00400e-01,9.99999e-01
1.858690214e+00,3.64056e-49,4.03490e-49,9.02267e-01,9.99999e-01
1.867983665e+00,2.81824e-78,3.11716e-78,9.04102e-01,9.99999e-01
1.877323583e+00,1.36171e-257,1.50315e-257,9.05904e-01,9.99999e-01
