#,Wave/freq,Total,CO2,Rayleigh,CIA
4.000000000e-01,2.30402e-04,9.99999e-01,2.30402e-04,9.99999e-01
4.020000000e-01,2.71835e-04,9.99999e-01,2.71835e-04,9.99999e-01
4.040100000e-01,3.19696e-04,9.99999e-01,3.19696e-04,9.99999e-01
4.060300500e-01,3.74781e-04,9.99999e-01,3.74781e-04,9.99999e-01
4.080602003e-01,4.37980e-04,9.99999e-01,4.37980e-04,9.99999e-01
4.101005013e-01,5.10262e-04,9.99999e-01,5.10262e-04,9.99999e-01
4.121510038e-01,5.92683e-04,9.99999e-01,5.92683e-04,9.99999e-01
4.142117588e-01,6.86384e-04,9.99999e-01,6.86384e-04,9.99999e-01
4.162828176e-01,7.92598e-04,9.99999e-01,7.92598e-04,9.99999e-01
4.183642317e-01,9.12650e-04,9.99999e-01,9.12650e-04,9.99999e-01
4.204560528e-01,1.04796e-03,9.99999e-01,1.04796e-03,9.99999e-01
4.225583331e-01,1.20006e-03,9.99999e-01,1.20006e-03,9.99999e-01
4.246711247e-01,1.37055e-03,9.99999e-01,1.37055e-03,9.99999e-01
4.267944804e-01,1.56116e-03,9.99999e-01,1.56116e-03,9.99999e-01
4.289284528e-01,1.77372e-03,9.99999e-01,1.77372e-03,9.99999e-01
4.310730950e-01,2.01014e-03,9.99999e-01,2.01014e-03,9.99999e-01
4.332284605e-01,2.27245e-03,9.99999e-01,2.27245e-03,9.99999e-01
4.353946028e-01,2.56277e-03,9.99999e-01,2.56277e-03,9.99999e-01
4.375715758e-01,2.88333e-03,9.99999e-01,2.88333e-03,9.99999e-01
4.397594337e-01,3.23644e-03,9.99999e-01,3.23644e-03,9.99999e-01
4.419582309e-01,3.62451e-03,9.99999e-01,3.62451e-03,9.99999e-01
4.441680220e-01,4.05005e-03,9.99999e-01,4.05005e-03,9.99999e-01
4.463888621e-01,4.51564e-03,9.99999e-01,4.51564e-03,9.99999e-01
4.486208064e-01,5.02394e-03,9.99999e-01,5.02394e-03,9.99999e-01
4.508639105e-01,5.57769e-03,9.99999e-01,5.57769e-03,9.99999e-01
4.531182300e-01,6.17970e-03,9.99999e-01,6.17970e-03,9.99999e-01
4.553838212e-01,6.83284e-03,9.99999e-01,6.83284e-03,9.99999e-01
4.576607403e-01,7.54003e-03,9.99999e-01,7.54003e-03,9.99999e-01
4.599490440e-01,8.30425e-03,9.99999e-01,8.30425e-03,9.99999e-01
4.622487892e-01,9.12850e-03,9.99999e-01,9.12850e-03,9.99999e-01
4.645600332e-01,1.00158e-02,9.99999e-01,1.00158e-02,9.99999e-01
4.668828333e-01,1.09693e-02,9.99999e-01,1.09693e-02,9.99999e-01
4.692172475e-01,1.19919e-02,9.99999e-01,1.19919e-02,9.99999e-01
4.715633337e-01,1.30869e-02,9.99999e-01,1.30869e-02,9.99999e-01
4.739211504e-01,1.42572e-02,9.99999e-01,1.42572e-02,9.99999e-01
4.762907561e-01,1.55058e-02,9.99999e-01,1.55058e-02,9.99999e-01
4.786722099e-01,1.68359e-02,9.99999e-01,1.68359e-02,9.99999e-01
4.810655710e-01,1.82505e-02,9.99999e-01,1.82505e-02,9.99999e-01
4.834708988e-01,1.97523e-02,9.99999e-01,1.97523e-02,9.99999e-01
4.858882533e-01,2.13444e-02,9.99999e-01,2.13444e-02,9.99999e-01
4.883176946e-01,2.30295e-02,9.99999e-01,2.30295e-02,9.99999e-01
4.907592831e-01,2.48104e-02,9.99999e-01,2.48104e-02,9.99999e-01
4.932130795e-01,2.66897e-02,9.99999e-01,2.66897e-02,9.99999e-01
4.956791449e-01,2.86699e-02,9.99999e-01,2.86699e-02,9.99999e-01
4.981575406e-01,3.07536e-02,9.99999e-01,3.07536e-02,9.99999e-01
5.006483283e-01,3.29431e-02,9.99999e-01,3.29431e-02,9.99999e-01
5.031515699e-01,3.52405e-02,9.99999e-01,3.52405e-02,9.99999e-01
5.056673278e-01,3.76480e-02,9.99999e-01,3.76480e-02,9.99999e-01
5.081956644e-01,4.01675e-02,9.99999e-01,4.01675e-02,9.99999e-01
5.107366428e-01,4.28007e-02,9.99999e-01,4.28007e-02,9.99999e-01
5.132903260e-01,4.55495e-02,9.99999e-01,4.55495e-02,9.99999e-01
5.158567776e-01,4.84152e-02,9.99999e-01,4.84152e-02,9.99999e-01
5.184360615e-01,5.13992e-02,9.99999e-01,5.13992e-02,9.99999e-01
5.210282418e-01,5.45027e-02,9.99999e-01,5.45027e-02,9.99999e-01
5.236333830e-01,5.77268e-02,9.99999e-01,5.77268e-02,9.99999e-01
5.262515499e-01,6.10721e-02,9.99999e-01,6.10721e-02,9.99999e-01
5.288828077e-01,6.45395e-02,9.99999e-01,6.45395e-02,9.99999e-01
5.315272217e-01,6.81294e-02,9.99999e-01,6.81294e-02,9.99999e-01
5.341848578e-01,7.18421e-02,9.99999e-01,7.18421e-02,9.99999e-01
5.368557821e-01,7.56778e-02,9.99999e-01,7.56778e-02,9.99999e-01
5.395400610e-01,7.96364e-02,9.99999e-01,7.96364e-02,9.99999e-01
5.422377613e-01,8.37177e-02,9.99999e-01,8.37177e-02,9.99999e-01
5.449489501e-01,8.79214e-02,9.99999e-01,8.79214e-02,9.99999e-01
5.476736949e-01,9.22468e-02,9.99999e-01,9.22468e-02,9.99999e-01
5.504120634e-01,9.66932e-02,9.99999e-01,9.66932e-02,9.99999e-01
5.531641237e-01,1.01260e-01,9.99999e-01,1.01260e-01,9.99999e-01
5.559299443e-01,1.05945e-01,9.99999e-01,1.05945e-01,9.99999e-01
5.587095940e-01,1.10749e-01,9.99999e-01,1.10749e-01,9.99999e-01
5.615031420e-01,1.15669e-01,9.99999e-01,1.15669e-01,9.99999e-01
5.643106577e-01,1.20703e-01,9.99999e-01,1.20703e-01,9.99999e-01
5.671322110e-01,1.25851e-01,9.99999e-01,1.25851e-01,9.99999e-01
5.699678720e-01,1.31111e-01,9.99999e-01,1.31111e-01,9.99999e-01
5.728177114e-01,1.36479e-01,9.99999e-01,1.36479e-01,9.99999e-01
5.756818000e-01,1.41955e-01,9.99999e-01,1.41955e-01,9.99999e-01
5.785602090e-01,1.47536e-01,9.99999e-01,1.47536e-01,9.99999e-01
5.814530100e-01,1.53220e-01,9.99999e-01,1.53220e-01,9.99999e-01
5.843602750e-01,1.59003e-01,9.99999e-01,1.59003e-01,9.99999e-01
5.872820764e-01,1.64885e-01,9.99999e-01,1.64885e-01,9.99999e-01
5.902184868e-01,1.70861e-01,9.99999e-01,1.70861e-01,9.99999e-01
5.931695792e-01,1.76930e-01,9.99999e-01,1.76930e-01,9.99999e-01
5.961354271e-01,1.83087e-01,9.99999e-01,1.83087e-01,9.99999e-01
5.991161043e-01,1.89331e-01,9.99999e-01,1.89331e-01,9.99999e-01
6.021116848e-01,1.95659e-01,9.99999e-01,1.95659e-01,9.99999e-01
6.051222432e-01,2.02066e-01,9.99999e-01,2.02066e-01,9.99999e-01
6.081478544e-01,2.08551e-01,9.99999e-01,2.08551e-01,9.99999e-01
6.111885937e-01,2.15109e-01,9.99999e-01,2.15109e-01,9.99999e-01
6.142445367e-01,2.21738e-01,9.99999e-01,2.21738e-01,9.99999e-01
6.173157594e-01,2.28435e-01,9.99999e-01,2.28435e-01,9.99999e-01
6.204023382e-01,2.35195e-01,9.99999e-01,2.35195e-01,9.99999e-01
6.235043498e-01,2.42016e-01,9.99999e-01,2.42016e-01,9.99999e-01
6.266218716e-01,2.48894e-01,9.99999e-01,2.48894e-01,9.99999e-01
6.297549810e-01,2.55826e-01,9.99999e-01,2.55826e-01,9.99999e-01
6.329037559e-01,2.62809e-01,9.99999e-01,2.62809e-01,9.99999e-01
6.360682746e-01,2.69838e-01,9.99999e-01,2.69838e-01,9.99999e-01
6.392486160e-01,2.76911e-01,9.99999e-01,2.76911e-01,9.99999e-01
6.424448591e-01,2.84024e-01,9.99999e-01,2.84024e-01,9.99999e-01
6.456570834e-01,2.91174e-01,9.99999e-01,2.91174e-01,9.99999e-01
6.488853688e-01,2.98358e-01,9.99999e-01,2.98358e-01,9.99999e-01
6.521297956e-01,3.05571e-01,9.99999e-01,3.05571e-01,9.99999e-01
6.553904446e-01,3.12812e-01,9.99999e-01,3.12812e-01,9.99999e-01
6.586673968e-01,3.20075e-01,9.99999e-01,3.20075e-01,9.99999e-01
6.619607338e-01,3.27359e-01,9.99999e-01,3.27359e-01,9.99999e-01
6.652705375e-01,3.34660e-01,9.99999e-01,3.34660e-01,9.99999e-01
6.685968902e-01,3.41975e-01,9.99999e-01,3.41975e-01,9.99999e-01
6.719398746e-01,3.49300e-01,9.99999e-01,3.49300e-01,9.99999e-01
6.752995740e-01,3.56633e-01,9.99999e-01,3.56633e-01,9.99999e-01
6.786760719e-01,3.63971e-01,9.99999e-01,3.63971e-01,9.99999e-01
6.820694522e-01,3.71310e-01,9.99999e-01,3.71310e-01,9.99999e-01
6.854797995e-01,3.78648e-01,9.99999e-01,3.78648e-01,9.99999e-01
6.889071985e-01,3.85981e-01,9.99999e-01,3.85981e-01,9.99999e-01
6.923517345e-01,3.93308e-01,9.99999e-01,3.93308e-01,9.99999e-01
6.958134932e-01,4.00625e-01,9.99999e-01,4.00625e-01,9.99999e-01
6.992925606e-01,4.07929e-01,9.99999e-01,4.07929e-01,9.99999e-01
7.027890234e-01,4.15218e-01,9.99999e-01,4.15218e-01,9.99999e-01
7.063029686e-01,4.22490e-01,9.99999e-01,4.22490e-01,9.99999e-01
7.098344834e-01,4.29742e-01,9.99999e-01,4.29742e-01,9.99999e-01
7.133836558e-01,4.36971e-01,9.99999e-01,4.36971e-01,9.99999e-01
7.169505741e-01,4.44175e-01,9.99999e-01,4.44175e-01,9.99999e-01
7.205353270e-01,4.51353e-01,9.99999e-01,4.51353e-01,9.99999e-01
7.241380036e-01,4.58501e-01,9.99999e-01,4.58501e-01,9.99999e-01
7.277586936e-01,4.65618e-01,9.99999e-01,4.65618e-01,9.99999e-01
7.313974871e-01,4.72701e-01,9.99999e-01,4.72701e-01,9.99999e-01
7.350544745e-01,4.79750e-01,9.99999e-01,4.79750e-01,9.99999e-01
7.387297469e-01,4.86761e-01,9.99999e-01,4.86761e-01,9.99999e-01
7.424233956e-01,4.93732e-01,9.99999e-01,4.93732e-01,9.99999e-01
7.461355126e-01,5.00664e-01,9.99999e-01,5.00664e-01,9.99999e-01
7.498661902e-01,5.07552e-01,9.99999e-01,5.07552e-01,9.99999e-01
7.536155211e-01,5.14397e-01,9.99999e-01,5.14397e-01,9.99999e-01
7.573835987e-01,5.21196e-01,9.99999e-01,5.21196e-01,9.99999e-01
7.611705167e-01,5.27947e-01,9.99999e-01,5.27947e-01,9.99999e-01
7.649763693e-01,5.34651e-01,9.99999e-01,5.34651e-01,9.99999e-01
7.688012511e-01,5.41304e-01,9.99999e-01,5.41304e-01,9.99999e-01
7.726452574e-01,5.47907e-01,9.99999e-01,5.47907e-01,9.99999e-01
7.765084837e-01,5.53421e-01,9.98131e-01,5.54457e-01,9.99999e-01
7.803910261e-01,4.94346e-01,8.81259e-01,5.60954e-01,9.99999e-01
7.842929812e-01,5.17645e-01,9.12316e-01,5.67396e-01,9.99999e-01
7.882144461e-01,5.18431e-01,9.03531e-01,5.73783e-01,9.99999e-01
7.921555184e-01,5.42276e-01,9.34775e-01,5.80114e-01,9.99999e-01
7.961162960e-01,5.64012e-01,9.61841e-01,5.86387e-01,9.99999e-01
8.000968774e-01,5.80856e-01,9.80179e-01,5.92602e-01,9.99999e-01
8.040973618e-01,5.93298e-01,9.90879e-01,5.98758e-01,9.99999e-01
8.081178486e-01,6.02674e-01,9.96392e-01,6.04855e-01,9.99999e-01
8.121584379e-01,6.10306e-01,9.99040e-01,6.10892e-01,9.99999e-01
8.162192301e-01,6.16828e-01,9.99934e-01,6.16868e-01,9.99999e-01
8.203003262e-01,6.22782e-01,9.99999e-01,6.22782e-01,9.99999e-01
8.244018279e-01,6.28635e-01,9.99999e-01,6.28635e-01,9.99999e-01
8.285238370e-01,6.34426e-01,9.99999e-01,6.34426e-01,9.99999e-01
8.326664562e-01,6.40154e-01,9.99999e-01,6.40154e-01,9.99999e-01
8.368297885e-01,6.45819e-01,9.99999e-01,6.45819e-01,9.99999e-01
8.410139374e-01,6.51420e-01,9.99999e-01,6.51420e-01,9.99999e-01
8.452190071e-01,6.56959e-01,9.99999e-01,6.56959e-01,9.99999e-01
8.494451021e-01,6.62433e-01,9.99999e-01,6.62433e-01,9.99999e-01
8.536923276e-01,6.67844e-01,9.99999e-01,6.67844e-01,9.99999e-01
8.579607893e-01,6.73191e-01,9.99999e-01,6.73191e-01,9.99999e-01
8.622505932e-01,6.77950e-01,9.99228e-01,6.78473e-01,9.99999e-01
8.665618462e-01,4.92721e-01,7.20676e-01,6.83692e-01,9.99999e-01
8.708946554e-01,4.97860e-01,7.22743e-01,6.88846e-01,9.99999e-01
8.752491287e-01,5.69923e-01,8.21289e-01,6.93937e-01,9.99999e-01
8.796253743e-01,6.35299e-01,9.08916e-01,6.98963e-01,9.99999e-01
8.840235012e-01,6.74750e-01,9.58553e-01,7.03925e-01,9.99999e-01
8.884436187e-01,6.97062e-01,9.83406e-01,7.08824e-01,9.99999e-01
8.928858368e-01,7.10058e-01,9.94954e-01,7.13659e-01,9.99999e-01
8.973502660e-01,7.17729e-01,9.99023e-01,7.18430e-01,9.99999e-01
9.018370173e-01,7.22596e-01,9.99249e-01,7.23138e-01,9.99999e-01
9.063462024e-01,7.13521e-01,9.80402e-01,7.27783e-01,9.99999e-01
9.108779334e-01,7.25923e-01,9.91203e-01,7.32365e-01,9.99999e-01
9.154323231e-01,7.25912e-01,9.85108e-01,7.36885e-01,9.99999e-01
9.200094847e-01,6.69643e-01,9.03283e-01,7.41342e-01,9.99999e-01
9.246095321e-01,6.96630e-01,9.34148e-01,7.45738e-01,9.99999e-01
9.292325798e-01,6.94802e-01,9.26312e-01,7.50072e-01,9.99999e-01
9.338787427e-01,7.08805e-01,9.39629e-01,7.54345e-01,9.99999e-01
9.385481364e-01,7.33204e-01,9.66576e-01,7.58557e-01,9.99999e-01
9.432408771e-01,7.47149e-01,9.79598e-01,7.62709e-01,9.99999e-01
9.479570815e-01,7.58388e-01,9.89028e-01,7.66801e-01,9.99999e-01
9.526968669e-01,7.67180e-01,9.95259e-01,7.70833e-01,9.99999e-01
9.574603512e-01,7.73521e-01,9.98341e-01,7.74806e-01,9.99999e-01
9.622476530e-01,7.78304e-01,9.99463e-01,7.78721e-01,9.99999e-01
9.670588912e-01,7.82513e-01,9.99916e-01,7.82577e-01,9.99999e-01
9.718941857e-01,7.86376e-01,9.99999e-01,7.86376e-01,9.99999e-01
9.767536566e-01,7.90118e-01,9.99999e-01,7.90118e-01,9.99999e-01
9.816374249e-01,7.93803e-01,9.99999e-01,7.93803e-01,9.99999e-01
9.865456120e-01,7.97432e-01,9.99999e-01,7.97432e-01,9.99999e-01
9.914783401e-01,8.01005e-01,9.99999e-01,8.01005e-01,9.99999e-01
9.964357318e-01,8.04524e-01,9.99999e-01,8.04524e-01,9.99999e-01
1.001417910e+00,8.07988e-01,9.99999e-01,8.07988e-01,9.99999e-01
1.006425000e+00,8.11398e-01,9.99999e-01,8.11398e-01,9.99999e-01
1.011457125e+00,8.14754e-01,9.99999e-01,8.14754e-01,9.99999e-01
1.016514411e+00,8.18057e-01,9.99998e-01,8.18058e-01,9.99999e-01
1.021596983e+00,8.20650e-01,9.99196e-01,8.21309e-01,9.99999e-01
1.026704968e+00,8.19199e-01,9.93559e-01,8.24509e-01,9.99999e-01
1.031838492e+00,4.41283e-01,5.33170e-01,8.27658e-01,9.99999e-01
1.036997685e+00,8.07036e-02,9.71447e-02,8.30756e-01,9.99999e-01
1.042182673e+00,2.28440e-01,2.73973e-01,8.33804e-01,9.99999e-01
1.047393587e+00,2.55374e-02,3.05177e-02,8.36803e-01,9.99999e-01
1.052630555e+00,8.24655e-03,9.82019e-03,8.39753e-01,9.99999e-01
1.057893707e+00,2.39182e-02,2.83843e-02,8.42655e-01,9.99999e-01
1.063183176e+00,9.50805e-02,1.12453e-01,8.45509e-01,9.99999e-01
1.068499092e+00,2.07823e-01,2.44982e-01,8.48316e-01,9.99999e-01
1.073841587e+00,3.09653e-01,3.63836e-01,8.51077e-01,9.99999e-01
1.079210795e+00,4.99876e-01,5.85476e-01,8.53792e-01,9.99999e-01
1.084606849e+00,6.32599e-01,7.38617e-01,8.56462e-01,9.99999e-01
1.090029883e+00,7.40794e-01,8.62303e-01,8.59088e-01,9.99999e-01
1.095480033e+00,8.01215e-01,9.29840e-01,8.61669e-01,9.99999e-01
1.100957433e+00,8.37924e-01,9.69587e-01,8.64207e-01,9.99999e-01
1.106462220e+00,8.55776e-01,9.87393e-01,8.66701e-01,9.99999e-01
1.111994531e+00,8.65958e-01,9.96321e-01,8.69154e-01,9.99999e-01
1.117554504e+00,8.71038e-01,9.99395e-01,8.71565e-01,9.99999e-01
1.123142276e+00,8.73932e-01,9.99996e-01,8.73935e-01,9.99999e-01
1.128757988e+00,8.76264e-01,9.99999e-01,8.76264e-01,9.99999e-01
1.134401778e+00,8.78553e-01,9.99999e-01,8.78553e-01,9.99999e-01
1.140073787e+00,8.80803e-01,9.99999e-01,8.80803e-01,9.99999e-01
1.145774156e+00,8.83014e-01,9.99999e-01,8.83014e-01,9.99999e-01
1.151503026e+00,8.85186e-01,9.99999e-01,8.85186e-01,9.99999e-01
1.157260541e+00,8.87321e-01,9.99999e-01,8.87321e-01,9.99999e-01
1.163046844e+00,8.89419e-01,9.99999e-01,8.89419e-01,9.99999e-01
1.168862078e+00,8.91480e-01,9.99999e-01,8.91480e-01,9.99999e-01
1.174706389e+00,8.93505e-01,9.99999e-01,8.93505e-01,9.99999e-01
1.180579921e+00,8.95495e-01,9.99999e-01,8.95495e-01,9.99999e-01
1.186482820e+00,8.96495e-01,9.98936e-01,8.97449e-01,9.99999e-01
1.192415234e+00,8.70955e-01,9.68406e-01,8.99369e-01,9.99999e-01
1.198377311e+00,8.11324e-02,9.00215e-02,9.01255e-01,9.99999e-01
1.204369197e+00,5.75388e-43,6.37120e-43,9.03108e-01,9.99999e-01
1.210391043e+00,5.19363e-33,5.73927e-33,9.04928e-01,9.99999e-01
1.216442998e+00,5.08551e-29,5.60871e-29,9.06715e-01,9.99999e-01
1.222525213e+00,8.78163e-23,9.66637e-23,9.08471e-01,9.99999e-01
1.228637839e+00,1.10232e-17,1.21108e-17,9.10195e-01,9.99999e-01
1.234781029e+00,3.04401e-12,3.33813e-12,9.11888e-01,9.99999e-01
1.240954934e+00,9.84983e-08,1.07819e-07,9.13551e-01,9.99999e-01
1.247159708e+00,2.49877e-04,2.73034e-04,9.15184e-01,9.99999e-01
1.253395507e+00,4.61691e-03,5.03596e-03,9.16788e-01,9.99999e-01
1.259662485e+00,4.97516e-02,5.41742e-02,9.18362e-01,9.99999e-01
1.265960797e+00,2.26865e-01,2.46617e-01,9.19908e-01,9.99999e-01
1.272290601e+00,4.25550e-01,4.61837e-01,9.21427e-01,9.99999e-01
1.278652054e+00,8.52730e-02,9.23950e-02,9.22917e-01,9.99999e-01
1.285045314e+00,1.89997e-04,2.05539e-04,9.24381e-01,9.99999e-01
1.291470541e+00,4.65335e-04,5.02621e-04,9.25817e-01,9.99999e-01
1.297927893e+00,1.06261e-01,1.14601e-01,9.27228e-01,9.99999e-01
1.304417533e+00,1.33394e-01,1.43649e-01,9.28613e-01,9.99999e-01
1.310939621e+00,2.72179e-03,2.92674e-03,9.29972e-01,9.99999e-01
1.317494319e+00,1.39738e-11,1.50044e-11,9.31307e-01,9.99999e-01
1.324081790e+00,1.50413e-05,1.61280e-05,9.32617e-01,9.99999e-01
1.330702199e+00,1.96705e-05,2.10626e-05,9.33903e-01,9.99999e-01
1.337355710e+00,4.53653e-05,4.85104e-05,9.35165e-01,9.99999e-01
1.344042489e+00,7.03705e-06,7.51496e-06,9.36404e-01,9.99999e-01
1.350762701e+00,2.32607e-04,2.48083e-04,9.37620e-01,9.99999e-01
1.357516515e+00,6.02616e-03,6.41890e-03,9.38814e-01,9.99999e-01
1.364304097e+00,4.70653e-02,5.00702e-02,9.39986e-01,9.99999e-01
1.371125618e+00,1.35239e-01,1.43698e-01,9.41135e-01,9.99999e-01
1.377981246e+00,2.74418e-01,2.91232e-01,9.42264e-01,9.99999e-01
1.384871152e+00,3.23390e-01,3.42803e-01,9.43371e-01,9.99999e-01
1.391795508e+00,4.76073e-01,5.04069e-01,9.44458e-01,9.99999e-01
1.398754485e+00,5.50535e-01,5.82253e-01,9.45525e-01,9.99999e-01
1.405748258e+00,6.77281e-01,7.15509e-01,9.46572e-01,9.99999e-01
1.412776999e+00,7.54264e-01,7.95973e-01,9.47599e-01,9.99999e-01
1.419840884e+00,2.30678e-01,2.43175e-01,9.48607e-01,9.99999e-01
1.426940089e+00,1.25216e-71,1.31863e-71,9.49596e-01,9.99999e-01
1.434074789e+00,0.00000e+00,0.00000e+00,9.50566e-01,9.99999e-01
1.441245163e+00,0.00000e+00,0.00000e+00,9.51519e-01,9.99999e-01
1.448451389e+00,4.99123e-314,5.24039e-314,9.52453e-01,9.99999e-01
1.455693646e+00,5.28926e-167,5.54796e-167,9.53370e-01,9.99999e-01
1.462972114e+00,1.58687e-77,1.66292e-77,9.54270e-01,9.99999e-01
1.470286975e+00,2.01494e-51,2.10955e-51,9.55152e-01,9.99999e-01
1.477638409e+00,2.01815e-25,2.11100e-25,9.56018e-01,9.99999e-01
1.485026601e+00,1.31438e-19,1.37362e-19,9.56868e-01,9.99999e-01
1.492451734e+00,3.32835e-11,3.47534e-11,9.57702e-01,9.99999e-01
1.499913993e+00,2.83468e-07,2.95735e-07,9.58520e-01,9.99999e-01
1.507413563e+00,9.27959e-08,9.67306e-08,9.59322e-01,9.99999e-01
1.514950631e+00,1.84208e-15,1.91861e-15,9.60109e-01,9.99999e-01
1.522525384e+00,6.78493e-40,7.06115e-40,9.60882e-01,9.99999e-01
1.530138011e+00,6.22868e-44,6.47714e-44,9.61639e-01,9.99999e-01
1.537788701e+00,5.33483e-20,5.54335e-20,9.62383e-01,9.99999e-01
1.545477645e+00,8.30361e-08,8.62164e-08,9.63112e-01,9.99999e-01
1.553205033e+00,3.36429e-07,3.49055e-07,9.63827e-01,9.99999e-01
1.560971058e+00,1.94801e-19,2.01964e-19,9.64529e-01,9.99999e-01
1.568775913e+00,0.00000e+00,0.00000e+00,9.65217e-01,9.99999e-01
1.576619793e+00,1.74261e-295,1.80415e-295,9.65892e-01,9.99999e-01
1.584502892e+00,1.87185e-130,1.93662e-130,9.66554e-01,9.99999e-01
1.592425406e+00,1.84904e-130,1.91173e-130,9.67204e-01,9.99999e-01
1.600387533e+00,0.00000e+00,0.00000e+00,9.67841e-01,9.99999e-01
1.608389471e+00,0.00000e+00,0.00000e+00,9.68466e-01,9.99999e-01
1.616431418e+00,5.21941e-223,5.38594e-223,9.69080e-01,9.99999e-01
1.624513575e+00,2.13713e-135,2.20395e-135,9.69681e-01,9.99999e-01
1.632636143e+00,5.06977e-67,5.22510e-67,9.70271e-01,9.99999e-01
1.640799324e+00,7.17183e-51,7.38717e-51,9.70849e-01,9.99999e-01
1.649003321e+00,3.15739e-40,3.25029e-40,9.71417e-01,9.99999e-01
1.657248337e+00,1.41544e-39,1.45625e-39,9.71973e-01,9.99999e-01
1.665534579e+00,1.32728e-28,1.36478e-28,9.72519e-01,9.99999e-01
1.673862252e+00,4.82226e-23,4.95579e-23,9.73055e-01,9.99999e-01
1.682231563e+00,3.98342e-13,4.09152e-13,9.73580e-01,9.99999e-01
1.690642721e+00,1.21502e-08,1.24733e-08,9.74095e-01,9.99999e-01
1.699095934e+00,4.49081e-05,4.60785e-05,9.74600e-01,9.99999e-01
1.707591414e+00,3.56312e-03,3.65412e-03,9.75095e-01,9.99999e-01
1.716129371e+00,5.08390e-02,5.21114e-02,9.75581e-01,9.99999e-01
1.724710018e+00,1.64106e-01,1.68132e-01,9.76058e-01,9.99999e-01
1.733333568e+00,3.38047e-01,3.46173e-01,9.76525e-01,9.99999e-01
1.742000236e+00,1.27407e-01,1.30409e-01,9.76983e-01,9.99999e-01
1.750710237e+00,5.31745e-05,5.44022e-05,9.77433e-01,9.99999e-01
1.759463788e+00,1.07599e-25,1.10034e-25,9.77874e-01,9.99999e-01
1.768261107e+00,1.96520e-25,2.00878e-25,9.78306e-01,9.99999e-01
1.777102413e+00,3.85957e-25,3.94345e-25,9.78730e-01,9.99999e-01
1.785987925e+00,1.88566e-22,1.92582e-22,9.79145e-01,9.99999e-01
1.794917864e+00,5.86079e-23,5.98312e-23,9.79553e-01,9.99999e-01
1.803892454e+00,7.98371e-21,8.14702e-21,9.79953e-01,9.99999e-01
1.812911916e+00,1.10561e-24,1.12777e-24,9.80345e-01,9.99999e-01
1.821976476e+00,1.17083e-18,1.19383e-18,9.80729e-01,9.99999e-01
1.831086358e+00,1.18776e-16,1.21064e-16,9.81106e-01,9.99999e-01
1.840241790e+00,4.68718e-11,4.77564e-11,9.81476e-01,9.99999e-01
1.849442999e+00,6.80241e-10,6.92823e-10,9.81839e-01,9.99999e-01
1.858690214e+00,1.07493e-09,1.09441e-09,9.82194e-01,9.99999e-01
1.867983665e+00,1.55619e-15,1.58384e-15,9.82543e-01,9.99999e-01
1.877323583e+00,7.33920e-47,7.46699e-47,9.82885e-01,9.99999e-01
