#,Wave/freq,Total,CO2,Rayleigh,CIA
4.000000000e-01,6.32403e-12,9.99999e-01,6.32403e-12,9.99999e-01
4.020000000e-01,1.05303e-11,9.99999e-01,1.05303e-11,9.99999e-01
4.040100000e-01,1.73489e-11,9.99999e-01,1.73489e-11,9.99999e-01
4.060300500e-01,2.83025e-11,9.99999e-01,2.83025e-11,9.99999e-01
4.080602003e-01,4.57274e-11,9.99999e-01,4.57274e-11,9.99999e-01
4.101005013e-01,7.31836e-11,9.99999e-01,7.31836e-11,9.99999e-01
4.121510038e-01,1.16042e-10,9.99999e-01,1.16042e-10,9.99999e-01
4.142117588e-01,1.82333e-10,9.99999e-01,1.82333e-10,9.99999e-01
4.162828176e-01,2.83947e-10,9.99999e-01,2.83947e-10,9.99999e-01
4.183642317e-01,4.38338e-10,9.99999e-01,4.38338e-10,9.99999e-01
4.204560528e-01,6.70899e-10,9.99999e-01,6.70899e-10,9.99999e-01
4.225583331e-01,1.01825e-09,9.99999e-01,1.01825e-09,9.99999e-01
4.246711247e-01,1.53275e-09,9.99999e-01,1.53275e-09,9.99999e-01
4.267944804e-01,2.28865e-09,9.99999e-01,2.28865e-09,9.99999e-01
4.289284528e-01,3.39038e-09,9.99999e-01,3.39038e-09,9.99999e-01
4.310730950e-01,4.98365e-09,9.99999e-01,4.98365e-09,9.99999e-01
4.332284605e-01,7.27012e-09,9.99999e-01,7.27012e-09,9.99999e-01
4.353946028e-01,1.05268e-08,9.99999e-01,1.05268e-08,9.99999e-01
4.375715758e-01,1.51313e-08,9.99999e-01,1.51313e-08,9.99999e-01
4.397594337e-01,2.15945e-08,9.99999e-01,2.15945e-08,9.99999e-01
4.419582309e-01,3.06026e-08,9.99999e-01,3.06026e-08,9.99999e-01
4.441680220e-01,4.30708e-08,9.99999e-01,4.30708e-08,9.99999e-01
4.463888621e-01,6.02110e-08,9.99999e-01,6.02110e-08,9.99999e-01
4.486208064e-01,8.36172e-08,9.99999e-01,8.36172e-08,9.99999e-01
4.508639105e-01,1.15371e-07,9.99999e-01,1.15371e-07,9.99999e-01
4.531182300e-01,1.58175e-07,9.99999e-01,1.58175e-07,9.99999e-01
4.553838212e-01,2.15512e-07,9.99999e-01,2.15512e-07,9.99999e-01
4.576607403e-01,2.91845e-07,9.99999e-01,2.91845e-07,9.99999e-01
4.599490440e-01,3.92855e-07,9.99999e-01,3.92855e-07,9.99999e-01
4.622487892e-01,5.25729e-07,9.99999e-01,5.25729e-07,9.99999e-01
4.645600332e-01,6.99508e-07,9.99999e-01,6.99508e-07,9.99999e-01
4.668828333e-01,9.25493e-07,9.99999e-01,9.25493e-07,9.99999e-01
4.692172475e-01,1.21773e-06,9.99999e-01,1.21773e-06,9.99999e-01
4.715633337e-01,1.59359e-06,9.99999e-01,1.59359e-06,9.99999e-01
4.739211504e-01,2.07441e-06,9.99999e-01,2.07441e-06,9.99999e-01
4.762907561e-01,2.68627e-06,9.99999e-01,2.68627e-06,9.99999e-01
4.786722099e-01,3.46089e-06,9.99999e-01,3.46089e-06,9.99999e-01
4.810655710e-01,4.43662e-06,9.99999e-01,4.43662e-06,9.99999e-01
4.834708988e-01,5.65961e-06,9.99999e-01,5.65961e-06,9.99999e-01
4.858882533e-01,7.18509e-06,9.99999e-01,7.18509e-06,9.99999e-01
4.883176946e-01,9.07884e-06,9.99999e-01,9.07884e-06,9.99999e-01
4.907592831e-01,1.14188e-05,9.99999e-01,1.14188e-05,9.99999e-01
4.932130795e-01,1.42970e-05,9.99999e-01,1.42970e-05,9.99999e-01
4.956791449e-01,1.78214e-05,9.99999e-01,1.78214e-05,9.99999e-01
4.981575406e-01,2.21181e-05,9.99999e-01,2.21181e-05,9.99999e-01
5.006483283e-01,2.73338e-05,9.99999e-01,2.73338e-05,9.99999e-01
5.031515699e-01,3.36385e-05,9.99999e-01,3.36385e-05,9.99999e-01
5.056673278e-01,4.12280e-05,9.99999e-01,4.12280e-05,9.99999e-01
5.081956644e-01,5.03273e-05,9.99999e-01,5.03273e-05,9.99999e-01
5.107366428e-01,6.11932e-05,9.99999e-01,6.11932e-05,9.99999e-01
5.132903260e-01,7.41185e-05,9.99999e-01,7.41185e-05,9.99999e-01
5.158567776e-01,8.94346e-05,9.99999e-01,8.94346e-05,9.99999e-01
5.184360615e-01,1.07516e-04,9.99999e-01,1.07516e-04,9.99999e-01
5.210282418e-01,1.28784e-04,9.99999e-01,1.28784e-04,9.99999e-01
5.236333830e-01,1.53710e-04,9.99999e-01,1.53710e-04,9.99999e-01
5.262515499e-01,1.82820e-04,9.99999e-01,1.82820e-04,9.99999e-01
5.288828077e-01,2.16700e-04,9.99999e-01,2.16700e-04,9.99999e-01
5.315272217e-01,2.55996e-04,9.99999e-01,2.55996e-04,9.99999e-01
5.341848578e-01,3.01426e-04,9.99999e-01,3.01426e-04,9.99999e-01
5.368557821e-01,3.53773e-04,9.99999e-01,3.53773e-04,9.99999e-01
5.395400610e-01,4.13901e-04,9.99999e-01,4.13901e-04,9.99999e-01
5.422377613e-01,4.82748e-04,9.99999e-01,4.82748e-04,9.99999e-01
5.449489501e-01,5.61340e-04,9.99999e-01,5.61340e-04,9.99999e-01
5.476736949e-01,6.50783e-04,9.99999e-01,6.50783e-04,9.99999e-01
5.504120634e-01,7.52279e-04,9.99999e-01,7.52279e-04,9.99999e-01
5.531641237e-01,8.67118e-04,9.99999e-01,8.67118e-04,9.99999e-01
5.559299443e-01,9.96687e-04,9.99999e-01,9.96687e-04,9.99999e-01
5.587095940e-01,1.14247e-03,9.99999e-01,1.14247e-03,9.99999e-01
5.615031420e-01,1.30605e-03,9.99999e-01,1.30605e-03,9.99999e-01
5.643106577e-01,1.48911e-03,9.99999e-01,1.48911e-03,9.99999e-01
5.671322110e-01,1.69343e-03,9.99999e-01,1.69343e-03,9.99999e-01
5.699678720e-01,1.92091e-03,9.99999e-01,1.92091e-03,9.99999e-01
5.728177114e-01,2.17352e-03,9.99999e-01,2.17352e-03,9.99999e-01
5.756818000e-01,2.45336e-03,9.99999e-01,2.45336e-03,9.99999e-01
5.785602090e-01,2.76262e-03,9.99999e-01,2.76262e-03,9.99999e-01
5.814530100e-01,3.10356e-03,9.99999e-01,3.10356e-03,9.99999e-01
5.843602750e-01,3.47859e-03,9.99999e-01,3.47859e-03,9.99999e-01
5.872820764e-01,3.89015e-03,9.99999e-01,3.89015e-03,9.99999e-01
5.902184868e-01,4.34081e-03,9.99999e-01,4.34081e-03,9.99999e-01
5.931695792e-01,4.83319e-03,9.99999e-01,4.83319e-03,9.99999e-01
5.961354271e-01,5.37002e-03,9.99999e-01,5.37002e-03,9.99999e-01
5.991161043e-01,5.95408e-03,9.99999e-01,5.95408e-03,9.99999e-01
6.021116848e-01,6.58821e-03,9.99999e-01,6.58821e-03,9.99999e-01
6.051222432e-01,7.27533e-03,9.99999e-01,7.27533e-03,9.99999e-01
6.081478544e-01,8.01837e-03,9.99999e-01,8.01837e-03,9.99999e-01
6.111885937e-01,8.82035e-03,9.99999e-01,8.82035e-03,9.99999e-01
6.142445367e-01,9.68428e-03,9.99999e-01,9.68428e-03,9.99999e-01
6.173157594e-01,1.06132e-02,9.99999e-01,1.06132e-02,9.99999e-01
6.204023382e-01,1.16103e-02,9.99999e-01,1.16103e-02,9.99999e-01
6.235043498e-01,1.26784e-02,9.99999e-01,1.26784e-02,9.99999e-01
6.266218716e-01,1.38209e-02,9.99999e-01,1.38209e-02,9.99999e-01
6.297549810e-01,1.50406e-02,9.99999e-01,1.50406e-02,9.99999e-01
6.329037559e-01,1.63406e-02,9.99999e-01,1.63406e-02,9.99999e-01
6.360682746e-01,1.77239e-02,9.99999e-01,1.77239e-02,9.99999e-01
6.392486160e-01,1.91936e-02,9.99999e-01,1.91936e-02,9.99999e-01
6.424448591e-01,2.07524e-02,9.99999e-01,2.07524e-02,9.99999e-01
6.456570834e-01,2.24032e-02,9.99999e-01,2.24032e-02,9.99999e-01
6.488853688e-01,2.41488e-02,9.99999e-01,2.41488e-02,9.99999e-01
6.521297956e-01,2.59918e-02,9.99999e-01,2.59918e-02,9.99999e-01
6.553904446e-01,2.79349e-02,9.99999e-01,2.79349e-02,9.99999e-01
6.586673968e-01,2.99806e-02,9.99999e-01,2.99806e-02,9.99999e-01
6.619607338e-01,3.21311e-02,9.99999e-01,3.21311e-02,9.99999e-01
6.652705375e-01,3.43889e-02,9.99999e-01,3.43889e-02,9.99999e-01
6.685968902e-01,3.67559e-02,9.99999e-01,3.67559e-02,9.99999e-01
6.719398746e-01,3.92343e-02,9.99999e-01,3.92343e-02,9.99999e-01
6.752995740e-01,4.18258e-02,9.99999e-01,4.18258e-02,9.99999e-01
6.786760719e-01,4.45322e-02,9.99999e-01,4.45322e-02,9.99999e-01
6.820694522e-01,4.73551e-02,9.99999e-01,4.73551e-02,9.99999e-01
6.854797995e-01,5.02957e-02,9.99999e-01,5.02957e-02,9.99999e-01
6.889071985e-01,5.33555e-02,9.99999e-01,5.33555e-02,9.99999e-01
6.923517345e-01,5.65354e-02,9.99999e-01,5.65354e-02,9.99999e-01
6.958134932e-01,5.98364e-02,9.99999e-01,5.98364e-02,9.99999e-01
6.992925606e-01,6.32591e-02,9.99999e-01,6.32591e-02,9.99999e-01
7.027890234e-01,6.68042e-02,9.99999e-01,6.68042e-02,9.99999e-01
7.063029686e-01,7.04721e-02,9.99999e-01,7.04721e-02,9.99999e-01
7.098344834e-01,7.42628e-02,9.99999e-01,7.42628e-02,9.99999e-01
7.133836558e-01,7.81766e-02,9.99999e-01,7.81766e-02,9.99999e-01
7.169505741e-01,8.22131e-02,9.99999e-01,8.22131e-02,9.99999e-01
7.205353270e-01,8.63721e-02,9.99999e-01,8.63721e-02,9.99999e-01
7.241380036e-01,9.06531e-02,9.99999e-01,9.06531e-02,9.99999e-01
7.277586936e-01,9.50555e-02,9.99999e-01,9.50555e-02,9.99999e-01
7.313974871e-01,9.95783e-02,9.99999e-01,9.95783e-02,9.99999e-01
7.350544745e-01,1.04221e-01,9.99999e-01,1.04221e-01,9.99999e-01
7.387297469e-01,1.08981e-01,9.99999e-01,1.08981e-01,9.99999e-01
7.424233956e-01,1.13859e-01,9.99999e-01,1.13859e-01,9.99999e-01
7.461355126e-01,1.18852e-01,9.99999e-01,1.18852e-01,9.99999e-01
7.498661902e-01,1.23958e-01,9.99999e-01,1.23958e-01,9.99999e-01
7.536155211e-01,1.29177e-01,9.99999e-01,1.29177e-01,9.99999e-01
7.573835987e-01,1.34506e-01,9.99999e-01,1.34506e-01,9.99999e-01
7.611705167e-01,1.39943e-01,9.99999e-01,1.39943e-01,9.99999e-01
7.649763693e-01,1.45486e-01,9.99999e-01,1.45486e-01,9.99999e-01
7.688012511e-01,1.51132e-01,9.99999e-01,1.51132e-01,9.99999e-01
7.726452574e-01,1.56880e-01,9.99999e-01,1.56880e-01,9.99999e-01
7.765084837e-01,1.62726e-01,9.99999e-01,1.62726e-01,9.99999e-01
7.803910261e-01,1.57234e-01,9.32207e-01,1.68668e-01,9.99999e-01
7.842929812e-01,1.21385e-01,6.94807e-01,1.74703e-01,9.99999e-01
7.882144461e-01,1.23463e-01,6.82762e-01,1.80829e-01,9.99999e-01
7.921555184e-01,1.48430e-01,7.93566e-01,1.87041e-01,9.99999e-01
7.961162960e-01,1.65074e-01,8.53806e-01,1.93339e-01,9.99999e-01
8.000968774e-01,1.83341e-01,9.18002e-01,1.99717e-01,9.99999e-01
8.040973618e-01,1.97155e-01,9.56251e-01,2.06174e-01,9.99999e-01
8.081178486e-01,2.08413e-01,9.79818e-01,2.12706e-01,9.99999e-01
8.121584379e-01,2.17913e-01,9.93631e-01,2.19310e-01,9.99999e-01
8.162192301e-01,2.25663e-01,9.98588e-01,2.25982e-01,9.99999e-01
8.203003262e-01,2.32713e-01,9.99974e-01,2.32719e-01,9.99999e-01
8.244018279e-01,2.39518e-01,9.99999e-01,2.39518e-01,9.99999e-01
8.285238370e-01,2.46376e-01,9.99999e-01,2.46376e-01,9.99999e-01
8.326664562e-01,2.53289e-01,9.99999e-01,2.53289e-01,9.99999e-01
8.368297885e-01,2.60253e-01,9.99999e-01,2.60253e-01,9.99999e-01
8.410139374e-01,2.67266e-01,9.99999e-01,2.67266e-01,9.99999e-01
8.452190071e-01,2.74323e-01,9.99999e-01,2.74323e-01,9.99999e-01
8.494451021e-01,2.81422e-01,9.99999e-01,2.81422e-01,9.99999e-01
8.536923276e-01,2.88559e-01,9.99999e-01,2.88559e-01,9.99999e-01
8.579607893e-01,2.95731e-01,9.99999e-01,2.95731e-01,9.99999e-01
8.622505932e-01,3.02934e-01,9.99999e-01,3.02934e-01,9.99999e-01
8.665618462e-01,2.75585e-01,8.88512e-01,3.10165e-01,9.99999e-01
8.708946554e-01,1.30075e-01,4.09789e-01,3.17420e-01,9.99999e-01
8.752491287e-01,1.54477e-01,4.75756e-01,3.24697e-01,9.99999e-01
8.796253743e-01,2.18654e-01,6.58611e-01,3.31992e-01,9.99999e-01
8.840235012e-01,2.72495e-01,8.03102e-01,3.39302e-01,9.99999e-01
8.884436187e-01,3.17567e-01,9.16171e-01,3.46624e-01,9.99999e-01
8.928858368e-01,3.41668e-01,9.65286e-01,3.53955e-01,9.99999e-01
8.973502660e-01,3.58167e-01,9.91353e-01,3.61291e-01,9.99999e-01
9.018370173e-01,3.68276e-01,9.99039e-01,3.68630e-01,9.99999e-01
9.063462024e-01,3.67473e-01,9.77402e-01,3.75969e-01,9.99999e-01
9.108779334e-01,3.62613e-01,9.46019e-01,3.83304e-01,9.99999e-01
9.154323231e-01,3.85487e-01,9.86825e-01,3.90633e-01,9.99999e-01
9.200094847e-01,3.36777e-01,8.46270e-01,3.97954e-01,9.99999e-01
9.246095321e-01,3.09423e-01,7.63510e-01,4.05263e-01,9.99999e-01
9.292325798e-01,3.36070e-01,8.14600e-01,4.12558e-01,9.99999e-01
9.338787427e-01,3.42617e-01,8.16072e-01,4.19837e-01,9.99999e-01
9.385481364e-01,3.67510e-01,8.60484e-01,4.27096e-01,9.99999e-01
9.432408771e-01,3.95771e-01,9.11213e-01,4.34334e-01,9.99999e-01
9.479570815e-01,4.21079e-01,9.53642e-01,4.41548e-01,9.99999e-01
9.526968669e-01,4.38557e-01,9.77317e-01,4.48735e-01,9.99999e-01
9.574603512e-01,4.51436e-01,9.90219e-01,4.55894e-01,9.99999e-01
9.622476530e-01,4.61603e-01,9.96933e-01,4.63023e-01,9.99999e-01
9.670588912e-01,4.69684e-01,9.99075e-01,4.70119e-01,9.99999e-01
9.718941857e-01,4.77148e-01,9.99931e-01,4.77180e-01,9.99999e-01
9.767536566e-01,4.84205e-01,9.99999e-01,4.84205e-01,9.99999e-01
9.816374249e-01,4.91191e-01,9.99999e-01,4.91191e-01,9.99999e-01
9.865456120e-01,4.98137e-01,9.99999e-01,4.98137e-01,9.99999e-01
9.914783401e-01,5.05042e-01,9.99999e-01,5.05042e-01,9.99999e-01
9.964357318e-01,5.11902e-01,9.99999e-01,5.11902e-01,9.99999e-01
1.001417910e+00,5.18718e-01,9.99999e-01,5.18718e-01,9.99999e-01
1.006425000e+00,5.25487e-01,9.99999e-01,5.25487e-01,9.99999e-01
1.011457125e+00,5.32209e-01,9.99999e-01,5.32209e-01,9.99999e-01
1.016514411e+00,5.38880e-01,9.99999e-01,5.38880e-01,9.99999e-01
1.021596983e+00,5.45446e-01,9.99897e-01,5.45502e-01,9.99999e-01
1.026704968e+00,5.47158e-01,9.91099e-01,5.52071e-01,9.99999e-01
1.031838492e+00,5.17178e-01,9.25866e-01,5.58588e-01,9.99999e-01
1.036997685e+00,3.81323e-02,6.74848e-02,5.65050e-01,9.99999e-01
1.042182673e+00,5.03874e-03,8.81735e-03,5.71457e-01,9.99999e-01
1.047393587e+00,1.16128e-02,2.00979e-02,5.77808e-01,9.99999e-01
1.052630555e+00,6.13303e-06,1.04999e-05,5.84103e-01,9.99999e-01
1.057893707e+00,2.16299e-05,3.66398e-05,5.90339e-01,9.99999e-01
1.063183176e+00,2.99778e-04,5.02546e-04,5.96517e-01,9.99999e-01
1.068499092e+00,2.22084e-03,3.68521e-03,6.02636e-01,9.99999e-01
1.073841587e+00,1.66315e-02,2.73231e-02,6.08694e-01,9.99999e-01
1.079210795e+00,6.35352e-02,1.03361e-01,6.14693e-01,9.99999e-01
1.084606849e+00,1.72196e-01,2.77454e-01,6.20630e-01,9.99999e-01
1.090029883e+00,3.20806e-01,5.12056e-01,6.26505e-01,9.99999e-01
1.095480033e+00,4.53884e-01,7.17809e-01,6.32318e-01,9.99999e-01
1.100957433e+00,5.43530e-01,8.51834e-01,6.38069e-01,9.99999e-01
1.106462220e+00,6.02324e-01,9.35637e-01,6.43757e-01,9.99999e-01
1.111994531e+00,6.33555e-01,9.75626e-01,6.49382e-01,9.99999e-01
1.117554504e+00,6.50977e-01,9.93943e-01,6.54944e-01,9.99999e-01
1.123142276e+00,6.60175e-01,9.99596e-01,6.60441e-01,9.99999e-01
1.128757988e+00,6.65875e-01,9.99999e-01,6.65876e-01,9.99999e-01
1.134401778e+00,6.71246e-01,9.99999e-01,6.71246e-01,9.99999e-01
1.140073787e+00,6.76552e-01,9.99999e-01,6.76552e-01,9.99999e-01
1.145774156e+00,6.81794e-01,9.99999e-01,6.81794e-01,9.99999e-01
1.151503026e+00,6.86971e-01,9.99999e-01,6.86971e-01,9.99999e-01
1.157260541e+00,6.92085e-01,9.99999e-01,6.92085e-01,9.99999e-01
1.163046844e+00,6.97135e-01,9.99999e-01,6.97135e-01,9.99999e-01
1.168862078e+00,7.02121e-01,9.99999e-01,7.02121e-01,9.99999e-01
1.174706389e+00,7.07042e-01,9.99999e-01,7.07042e-01,9.99999e-01
1.180579921e+00,7.11900e-01,9.99999e-01,7.11900e-01,9.99999e-01
1.186482820e+00,7.16689e-01,9.99991e-01,7.16695e-01,9.99999e-01
1.192415234e+00,6.99523e-01,9.69639e-01,7.21426e-01,9.99999e-01
1.198377311e+00,3.86595e-01,5.32431e-01,7.26094e-01,9.99999e-01
1.204369197e+00,1.34024e-24,1.83418e-24,7.30699e-01,9.99999e-01
1.210391043e+00,2.84840e-98,3.87409e-98,7.35242e-01,9.99999e-01
1.216442998e+00,4.24967e-85,5.74495e-85,7.39722e-01,9.99999e-01
1.222525213e+00,7.90299e-84,1.06203e-83,7.44140e-01,9.99999e-01
1.228637839e+00,9.66787e-65,1.29164e-64,7.48496e-01,9.99999e-01
1.234781029e+00,3.50153e-49,4.65139e-49,7.52792e-01,9.99999e-01
1.240954934e+00,5.94885e-27,7.85818e-27,7.57026e-01,9.99999e-01
1.247159708e+00,2.51758e-17,3.30738e-17,7.61200e-01,9.99999e-01
1.253395507e+00,5.62272e-09,7.34694e-09,7.65313e-01,9.99999e-01
1.259662485e+00,9.56350e-06,1.24303e-05,7.69367e-01,9.99999e-01
1.265960797e+00,1.91890e-03,2.48124e-03,7.73362e-01,9.99999e-01
1.272290601e+00,4.15588e-02,5.34656e-02,7.77298e-01,9.99999e-01
1.278652054e+00,4.68214e-02,5.99370e-02,7.81176e-01,9.99999e-01
1.285045314e+00,1.36927e-04,1.74430e-04,7.84996e-01,9.99999e-01
1.291470541e+00,7.63112e-12,9.67485e-12,7.88758e-01,9.99999e-01
1.297927893e+00,2.11580e-05,2.66989e-05,7.92464e-01,9.99999e-01
1.304417533e+00,5.32404e-03,6.68754e-03,7.96113e-01,9.99999e-01
1.310939621e+00,1.41590e-03,1.77052e-03,7.99707e-01,9.99999e-01
1.317494319e+00,1.14554e-33,1.42614e-33,8.03245e-01,9.99999e-01
1.324081790e+00,3.01658e-22,3.73927e-22,8.06729e-01,9.99999e-01
1.330702199e+00,3.16055e-13,3.90115e-13,8.10159e-01,9.99999e-01
1.337355710e+00,3.04772e-12,3.74627e-12,8.13535e-01,9.99999e-01
1.344042489e+00,1.48899e-12,1.82283e-12,8.16857e-01,9.99999e-01
1.350762701e+00,1.56872e-13,1.91277e-13,8.20128e-01,9.99999e-01
1.357516515e+00,1.81500e-08,2.20442e-08,8.23346e-01,9.99999e-01
1.364304097e+00,3.41598e-06,4.13300e-06,8.26514e-01,9.99999e-01
1.371125618e+00,1.46510e-03,1.76596e-03,8.29630e-01,9.99999e-01
1.377981246e+00,3.64517e-03,4.37755e-03,8.32697e-01,9.99999e-01
1.384871152e+00,3.53563e-02,4.23067e-02,8.35713e-01,9.99999e-01
1.391795508e+00,4.48723e-02,5.35033e-02,8.38681e-01,9.99999e-01
1.398754485e+00,1.34754e-01,1.60116e-01,8.41601e-01,9.99999e-01
1.405748258e+00,2.20970e-01,2.61666e-01,8.44472e-01,9.99999e-01
1.412776999e+00,3.60925e-01,4.25972e-01,8.47297e-01,9.99999e-01
1.419840884e+00,3.40149e-01,4.00140e-01,8.50074e-01,9.99999e-01
1.426940089e+00,1.50445e-02,1.76411e-02,8.52806e-01,9.99999e-01
1.434074789e+00,0.00000e+00,0.00000e+00,8.55493e-01,9.99999e-01
1.441245163e+00,0.00000e+00,0.00000e+00,8.58134e-01,9.99999e-01
1.448451389e+00,0.00000e+00,0.00000e+00,8.60731e-01,9.99999e-01
1.455693646e+00,0.00000e+00,0.00000e+00,8.63285e-01,9.99999e-01
1.462972114e+00,0.00000e+00,0.00000e+00,8.65795e-01,9.99999e-01
1.470286975e+00,1.29297e-162,1.48915e-162,8.68263e-01,9.99999e-01
1.477638409e+00,3.69849e-102,4.24777e-102,8.70689e-01,9.99999e-01
1.485026601e+00,7.68688e-57,8.80438e-57,8.73074e-01,9.99999e-01
1.492451734e+00,1.98531e-48,2.26784e-48,8.75418e-01,9.99999e-01
1.499913993e+00,5.72971e-21,6.52793e-21,8.77722e-01,9.99999e-01
1.507413563e+00,1.01657e-19,1.15521e-19,8.79986e-01,9.99999e-01
1.514950631e+00,3.18367e-21,3.60873e-21,8.82211e-01,9.99999e-01
1.522525384e+00,1.38848e-72,1.56997e-72,8.84397e-01,9.99999e-01
1.530138011e+00,1.48709e-173,1.67739e-173,8.86546e-01,9.99999e-01
1.537788701e+00,2.41793e-128,2.72088e-128,8.88657e-01,9.99999e-01
1.545477645e+00,5.50929e-27,6.18512e-27,8.90732e-01,9.99999e-01
1.553205033e+00,1.07587e-19,1.20510e-19,8.92770e-01,9.99999e-01
1.560971058e+00,5.88356e-20,6.57547e-20,8.94772e-01,9.99999e-01
1.568775913e+00,0.00000e+00,0.00000e+00,8.96740e-01,9.99999e-01
1.576619793e+00,0.00000e+00,0.00000e+00,8.98672e-01,9.99999e-01
1.584502892e+00,0.00000e+00,0.00000e+00,9.00571e-01,9.99999e-01
1.592425406e+00,0.00000e+00,0.00000e+00,9.02435e-01,9.99999e-01
1.600387533e+00,0.00000e+00,0.00000e+00,9.04267e-01,9.99999e-01
1.608389471e+00,0.00000e+00,0.00000e+00,9.06066e-01,9.99999e-01
1.616431418e+00,0.00000e+00,0.00000e+00,9.07833e-01,9.99999e-01
1.624513575e+00,0.00000e+00,0.00000e+00,9.09569e-01,9.99999e-01
1.632636143e+00,0.00000e+00,0.00000e+00,9.11273e-01,9.99999e-01
1.640799324e+00,1.20479e-150,1.31967e-150,9.12947e-01,9.99999e-01
1.649003321e+00,1.20639e-150,1.31905e-150,9.14591e-01,9.99999e-01
1.657248337e+00,2.21881e-116,2.42174e-116,9.16206e-01,9.99999e-01
1.665534579e+00,3.69103e-117,4.02164e-117,9.17791e-01,9.99999e-01
1.673862252e+00,1.20422e-74,1.30986e-74,9.19347e-01,9.99999e-01
1.682231563e+00,1.23130e-51,1.33709e-51,9.20875e-01,9.99999e-01
1.690642721e+00,1.29275e-28,1.40154e-28,9.22376e-01,9.99999e-01
1.699095934e+00,2.81447e-18,3.04646e-18,9.23849e-01,9.99999e-01
1.707591414e+00,1.84997e-09,1.99932e-09,9.25296e-01,9.99999e-01
1.716129371e+00,7.55754e-06,8.15518e-06,9.26716e-01,9.99999e-01
1.724710018e+00,1.05893e-03,1.14095e-03,9.28110e-01,9.99999e-01
1.733333568e+00,1.04262e-02,1.12173e-02,9.29479e-01,9.99999e-01
1.742000236e+00,6.86017e-02,7.37000e-02,9.30822e-01,9.99999e-01
1.750710237e+00,2.85493e-04,3.06277e-04,9.32141e-01,9.99999e-01
1.759463788e+00,2.86431e-71,3.06856e-71,9.33436e-01,9.99999e-01
1.768261107e+00,1.36529e-74,1.46066e-74,9.34707e-01,9.99999e-01
1.777102413e+00,1.13999e-72,1.21800e-72,9.35954e-01,9.99999e-01
1.785987925e+00,4.81666e-68,5.13953e-68,9.37179e-01,9.99999e-01
1.794917864e+00,5.67544e-65,6.04812e-65,9.38381e-01,9.99999e-01
1.803892454e+00,1.96056e-62,2.08667e-62,9.39560e-01,9.99999e-01
1.812911916e+00,5.42424e-60,5.76606e-60,9.40718e-01,9.99999e-01
1.821976476e+00,4.72956e-60,5.02153e-60,9.41854e-01,9.99999e-01
1.831086358e+00,3.51282e-48,3.72527e-48,9.42969e-01,9.99999e-01
1.840241790e+00,4.79842e-41,5.08272e-41,9.44064e-01,9.99999e-01
1.849442999e+00,1.63073e-28,1.72539e-28,9.45138e-01,9.99999e-01
1.858690214e+00,7.54492e-27,7.97398e-27,9.46192e-01,9.99999e-01
1.867983665e+00,2.13295e-27,2.25178e-27,9.47226e-01,9.99999e-01
1.877323583e+00,2.13488e-136,2.25141e-136,9.48241e-01,9.99999e-01
