#,Wave/freq,Total,O2,CO2,Rayleigh,CIA
4.000000000e-01,3.17199e-02,9.99999e-01,9.99999e-01,3.17199e-02,9.99999e-01
4.020000000e-01,3.39597e-02,9.99999e-01,9.99999e-01,3.39597e-02,9.99999e-01
4.040100000e-01,3.63063e-02,9.99999e-01,9.99999e-01,3.63063e-02,9.99999e-01
4.060300500e-01,3.87637e-02,9.99999e-01,9.99999e-01,3.87637e-02,9.99999e-01
4.080602003e-01,4.13340e-02,9.99999e-01,9.99999e-01,4.13340e-02,9.99999e-01
4.101005013e-01,4.40189e-02,9.99999e-01,9.99999e-01,4.40189e-02,9.99999e-01
4.121510038e-01,4.68199e-02,9.99999e-01,9.99999e-01,4.68199e-02,9.99999e-01
4.142117588e-01,4.97385e-02,9.99999e-01,9.99999e-01,4.97385e-02,9.99999e-01
4.162828176e-01,5.27760e-02,9.99999e-01,9.99999e-01,5.27760e-02,9.99999e-01
4.183642317e-01,5.59334e-02,9.99999e-01,9.99999e-01,5.59334e-02,9.99999e-01
4.204560528e-01,5.92117e-02,9.99999e-01,9.99999e-01,5.92117e-02,9.99999e-01
4.225583331e-01,6.26117e-02,9.99999e-01,9.99999e-01,6.26117e-02,9.99999e-01
4.246711247e-01,6.61340e-02,9.99999e-01,9.99999e-01,6.61340e-02,9.99999e-01
4.267944804e-01,6.97789e-02,9.99999e-01,9.99999e-01,6.97789e-02,9.99999e-01
4.289284528e-01,7.35468e-02,9.99999e-01,9.99999e-01,7.35468e-02,9.99999e-01
4.310730950e-01,7.74376e-02,9.99999e-01,9.99999e-01,7.74376e-02,9.99999e-01
4.332284605e-01,8.14513e-02,9.99999e-01,9.99999e-01,8.14513e-02,9.99999e-01
4.353946028e-01,8.55875e-02,9.99999e-01,9.99999e-01,8.55875e-02,9.99999e-01
4.375715758e-01,8.98458e-02,9.99999e-01,9.99999e-01,8.98458e-02,9.99999e-01
4.397594337e-01,9.42256e-02,9.99999e-01,9.99999e-01,9.42256e-02,9.99999e-01
4.419582309e-01,9.87260e-02,9.99999e-01,9.99999e-01,9.87260e-02,9.99999e-01
4.441680220e-01,1.03346e-01,9.99999e-01,9.99999e-01,1.03346e-01,9.99999e-01
4.463888621e-01,1.08085e-01,9.99999e-01,9.99999e-01,1.08085e-01,9.99999e-01
4.486208064e-01,1.12940e-01,9.99999e-01,9.99999e-01,1.12940e-01,9.99999e-01
4.508639105e-01,1.17912e-01,9.99999e-01,9.99999e-01,1.17912e-01,9.99999e-01
4.531182300e-01,1.22998e-01,9.99999e-01,9.99999e-01,1.22998e-01,9.99999e-01
4.553838212e-01,1.28196e-01,9.99999e-01,9.99999e-01,1.28196e-01,9.99999e-01
4.576607403e-01,1.33504e-01,9.99999e-01,9.99999e-01,1.33504e-01,9.99999e-01
4.599490440e-01,1.38921e-01,9.99999e-01,9.99999e-01,1.38921e-01,9.99999e-01
4.622487892e-01,1.44445e-01,9.99999e-01,9.99999e-01,1.44445e-01,9.99999e-01
4.645600332e-01,1.50072e-01,9.99999e-01,9.99999e-01,1.50072e-01,9.99999e-01
4.668828333e-01,1.55801e-01,9.99999e-01,9.99999e-01,1.55801e-01,9.99999e-01
4.692172475e-01,1.61629e-01,9.99999e-01,9.99999e-01,1.61629e-01,9.99999e-01
4.715633337e-01,1.67553e-01,9.99999e-01,9.99999e-01,1.67553e-01,9.99999e-01
4.739211504e-01,1.73571e-01,9.99999e-01,9.99999e-01,1.73571e-01,9.99999e-01
4.762907561e-01,1.79680e-01,9.99999e-01,9.99999e-01,1.79680e-01,9.99999e-01
4.786722099e-01,1.85877e-01,9.99999e-01,9.99999e-01,1.85877e-01,9.99999e-01
4.810655710e-01,1.92158e-01,9.99999e-01,9.99999e-01,1.92158e-01,9.99999e-01
4.834708988e-01,1.98522e-01,9.99999e-01,9.99999e-01,1.98522e-01,9.99999e-01
4.858882533e-01,2.04965e-01,9.99999e-01,9.99999e-01,2.04965e-01,9.99999e-01
4.883176946e-01,2.11483e-01,9.99999e-01,9.99999e-01,2.11483e-01,9.99999e-01
4.907592831e-01,2.18073e-01,9.99999e-01,9.99999e-01,2.18073e-01,9.99999e-01
4.932130795e-01,2.24733e-01,9.99999e-01,9.99999e-01,2.24733e-01,9.99999e-01
4.956791449e-01,2.31458e-01,9.99999e-01,9.99999e-01,2.31458e-01,9.99999e-01
4.981575406e-01,2.38246e-01,9.99999e-01,9.99999e-01,2.38246e-01,9.99999e-01
5.006483283e-01,2.45093e-01,9.99999e-01,9.99999e-01,2.45093e-01,9.99999e-01
5.031515699e-01,2.51996e-01,9.99999e-01,9.99999e-01,2.51996e-01,9.99999e-01
5.056673278e-01,2.58951e-01,9.99999e-01,9.99999e-01,2.58951e-01,9.99999e-01
5.081956644e-01,2.65955e-01,9.99999e-01,9.99999e-01,2.65955e-01,9.99999e-01
5.107366428e-01,2.73004e-01,9.99999e-01,9.99999e-01,2.73004e-01,9.99999e-01
5.132903260e-01,2.80096e-01,9.99999e-01,9.99999e-01,2.80096e-01,9.99999e-01
5.158567776e-01,2.87226e-01,9.99999e-01,9.99999e-01,2.87226e-01,9.99999e-01
5.184360615e-01,2.94391e-01,9.99999e-01,9.99999e-01,2.94391e-01,9.99999e-01
5.210282418e-01,3.01589e-01,9.99999e-01,9.99999e-01,3.01589e-01,9.99999e-01
5.236333830e-01,3.08815e-01,9.99999e-01,9.99999e-01,3.08815e-01,9.99999e-01
5.262515499e-01,3.16066e-01,9.99999e-01,9.99999e-01,3.16066e-01,9.99999e-01
5.288828077e-01,3.23339e-01,9.99999e-01,9.99999e-01,3.23339e-01,9.99999e-01
5.315272217e-01,3.30631e-01,9.99999e-01,9.99999e-01,3.30631e-01,9.99999e-01
5.341848578e-01,3.37939e-01,9.99999e-01,9.99999e-01,3.37939e-01,9.99999e-01
5.368557821e-01,3.45258e-01,9.99999e-01,9.99999e-01,3.45258e-01,9.99999e-01
5.395400610e-01,3.52588e-01,9.99999e-01,9.99999e-01,3.52588e-01,9.99999e-01
5.422377613e-01,3.59923e-01,9.99999e-01,9.99999e-01,3.59923e-01,9.99999e-01
5.449489501e-01,3.67262e-01,9.99999e-01,9.99999e-01,3.67262e-01,9.99999e-01
5.476736949e-01,3.74601e-01,9.99999e-01,9.99999e-01,3.74601e-01,9.99999e-01
5.504120634e-01,3.81937e-01,9.99999e-01,9.99999e-01,3.81937e-01,9.99999e-01
5.531641237e-01,3.89268e-01,9.99999e-01,9.99999e-01,3.89268e-01,9.99999e-01
5.559299443e-01,3.96590e-01,9.99999e-01,9.99999e-01,3.96590e-01,9.99999e-01
5.587095940e-01,4.03902e-01,9.99999e-01,9.99999e-01,4.03902e-01,9.99999e-01
5.615031420e-01,4.11200e-01,9.99999e-01,9.99999e-01,4.11200e-01,9.99999e-01
5.643106577e-01,4.18481e-01,9.99999e-01,9.99999e-01,4.18481e-01,9.99999e-01
5.671322110e-01,4.25744e-01,9.99999e-01,9.99999e-01,4.25744e-01,9.99999e-01
5.699678720e-01,4.32986e-01,9.99999e-01,9.99999e-01,4.32986e-01,9.99999e-01
5.728177114e-01,4.40205e-01,9.99999e-01,9.99999e-01,4.40205e-01,9.99999e-01
5.756818000e-01,4.47397e-01,9.99999e-01,9.99999e-01,4.47397e-01,9.99999e-01
5.785602090e-01,4.54562e-01,9.99999e-01,9.99999e-01,4.54562e-01,9.99999e-01
5.814530100e-01,4.61696e-01,9.99999e-01,9.99999e-01,4.61696e-01,9.99999e-01
5.843602750e-01,4.68798e-01,9.99999e-01,9.99999e-01,4.68798e-01,9.99999e-01
5.872820764e-01,4.75866e-01,9.99999e-01,9.99999e-01,4.75866e-01,9.99999e-01
5.902184868e-01,4.82898e-01,9.99999e-01,9.99999e-01,4.82898e-01,9.99999e-01
5.931695792e-01,4.89892e-01,9.99999e-01,9.99999e-01,4.89892e-01,9.99999e-01
5.961354271e-01,4.96845e-01,9.99999e-01,9.99999e-01,4.96845e-01,9.99999e-01
5.991161043e-01,5.03758e-01,9.99999e-01,9.99999e-01,5.03758e-01,9.99999e-01
6.021116848e-01,5.10627e-01,9.99999e-01,9.99999e-01,5.10627e-01,9.99999e-01
6.051222432e-01,5.17451e-01,9.99999e-01,9.99999e-01,5.17451e-01,9.99999e-01
6.081478544e-01,5.24229e-01,9.99999e-01,9.99999e-01,5.24229e-01,9.99999e-01
6.111885937e-01,5.30959e-01,9.99999e-01,9.99999e-01,5.30959e-01,9.99999e-01
6.142445367e-01,5.37640e-01,9.99999e-01,9.99999e-01,5.37640e-01,9.99999e-01
6.173157594e-01,5.44271e-01,9.99999e-01,9.99999e-01,5.44271e-01,9.99999e-01
6.204023382e-01,5.50850e-01,9.99999e-01,9.99999e-01,5.50850e-01,9.99999e-01
6.235043498e-01,5.57377e-01,9.99999e-01,9.99999e-01,5.57377e-01,9.99999e-01
6.266218716e-01,5.63849e-01,9.99999e-01,9.99999e-01,5.63849e-01,9.99999e-01
6.297549810e-01,5.70267e-01,9.99999e-01,9.99999e-01,5.70267e-01,9.99999e-01
6.329037559e-01,5.76629e-01,9.99999e-01,9.99999e-01,5.76629e-01,9.99999e-01
6.360682746e-01,5.82934e-01,9.99999e-01,9.99999e-01,5.82934e-01,9.99999e-01
6.392486160e-01,5.89181e-01,9.99999e-01,9.99999e-01,5.89181e-01,9.99999e-01
6.424448591e-01,5.95370e-01,9.99999e-01,9.99999e-01,5.95370e-01,9.99999e-01
6.456570834e-01,6.01500e-01,9.99999e-01,9.99999e-01,6.01500e-01,9.99999e-01
6.488853688e-01,6.07570e-01,9.99999e-01,9.99999e-01,6.07570e-01,9.99999e-01
6.521297956e-01,6.13579e-01,9.99999e-01,9.99999e-01,6.13579e-01,9.99999e-01
6.553904446e-01,6.19527e-01,9.99999e-01,9.99999e-01,6.19527e-01,9.99999e-01
6.586673968e-01,6.25414e-01,9.99999e-01,9.99999e-01,6.25414e-01,9.99999e-01
6.619607338e-01,6.31239e-01,9.99999e-01,9.99999e-01,6.31239e-01,9.99999e-01
6.652705375e-01,6.37002e-01,9.99999e-01,9.99999e-01,6.37002e-01,9.99999e-01
6.685968902e-01,6.42702e-01,9.99999e-01,9.99999e-01,6.42702e-01,9.99999e-01
6.719398746e-01,6.48338e-01,9.99999e-01,9.99999e-01,6.48338e-01,9.99999e-01
6.752995740e-01,6.53912e-01,9.99999e-01,9.99999e-01,6.53912e-01,9.99999e-01
6.786760719e-01,6.59421e-01,9.99999e-01,9.99999e-01,6.59421e-01,9.99999e-01
6.820694522e-01,6.64867e-01,9.99999e-01,9.99999e-01,6.64867e-01,9.99999e-01
6.854797995e-01,6.70249e-01,9.99999e-01,9.99999e-01,6.70249e-01,9.99999e-01
6.889071985e-01,6.75567e-01,9.99999e-01,9.99999e-01,6.75567e-01,9.99999e-01
6.923517345e-01,6.80821e-01,9.99999e-01,9.99999e-01,6.80821e-01,9.99999e-01
6.958134932e-01,6.86011e-01,9.99999e-01,9.99999e-01,6.86011e-01,9.99999e-01
6.992925606e-01,6.91137e-01,9.99999e-01,9.99999e-01,6.91137e-01,9.99999e-01
7.027890234e-01,6.96198e-01,9.99999e-01,9.99999e-01,6.96198e-01,9.99999e-01
7.063029686e-01,7.01196e-01,9.99999e-01,9.99999e-01,7.01196e-01,9.99999e-01
7.098344834e-01,7.06130e-01,9.99999e-01,9.99999e-01,7.06130e-01,9.99999e-01
7.133836558e-01,7.11000e-01,9.99999e-01,9.99999e-01,7.11000e-01,9.99999e-01
7.169505741e-01,7.15806e-01,9.99999e-01,9.99999e-01,7.15806e-01,9.99999e-01
7.205353270e-01,7.20549e-01,9.99999e-01,9.99999e-01,7.20549e-01,9.99999e-01
7.241380036e-01,7.25229e-01,9.99999e-01,9.99999e-01,7.25229e-01,9.99999e-01
7.277586936e-01,7.29845e-01,9.99999e-01,9.99999e-01,7.29845e-01,9.99999e-01
7.313974871e-01,7.34399e-01,9.99999e-01,9.99999e-01,7.34399e-01,9.99999e-01
7.350544745e-01,7.38891e-01,9.99999e-01,9.99999e-01,7.38891e-01,9.99999e-01
7.387297469e-01,7.43321e-01,9.99999e-01,9.99999e-01,7.43321e-01,9.99999e-01
7.424233956e-01,7.47689e-01,9.99999e-01,9.99999e-01,7.47689e-01,9.99999e-01
7.461355126e-01,7.51996e-01,9.99999e-01,9.99999e-01,7.51996e-01,9.99999e-01
7.498661902e-01,7.56241e-01,9.99999e-01,9.99999e-01,7.56241e-01,9.99999e-01
7.536155211e-01,7.60426e-01,9.99999e-01,9.99999e-01,7.60426e-01,9.99999e-01
7.573835987e-01,7.64551e-01,9.99999e-01,9.99999e-01,7.64551e-01,9.99999e-01
7.611705167e-01,7.68616e-01,9.99999e-01,9.99999e-01,7.68616e-01,9.99999e-01
7.649763693e-01,7.72622e-01,9.99999e-01,9.99999e-01,7.72622e-01,9.99999e-01
7.688012511e-01,7.76569e-01,9.99999e-01,9.99999e-01,7.76569e-01,9.99999e-01
7.726452574e-01,7.80457e-01,9.99999e-01,9.99999e-01,7.80457e-01,9.99999e-01
7.765084837e-01,7.84288e-01,9.99999e-01,9.99999e-01,7.84288e-01,9.99999e-01
7.803910261e-01,7.78484e-01,9.99999e-01,9.87847e-01,7.88061e-01,9.99999e-01
7.842929812e-01,7.52098e-01,9.99999e-01,9.49885e-01,7.91777e-01,9.99999e-01
7.882144461e-01,7.52601e-01,9.99999e-01,9.46146e-01,7.95437e-01,9.99999e-01
7.921555184e-01,7.74164e-01,9.99999e-01,9.68866e-01,7.99041e-01,9.99999e-01
7.961162960e-01,7.85856e-01,9.99999e-01,9.79150e-01,8.02590e-01,9.99999e-01
8.000968774e-01,7.96935e-01,9.99999e-01,9.88649e-01,8.06084e-01,9.99999e-01
8.040973618e-01,8.04757e-01,9.99999e-01,9.94112e-01,8.09523e-01,9.99999e-01
8.081178486e-01,8.10709e-01,9.99999e-01,9.97292e-01,8.12909e-01,9.99999e-01
8.121584379e-01,8.15560e-01,9.99999e-01,9.99164e-01,8.16242e-01,9.99999e-01
8.162192301e-01,8.19371e-01,9.99999e-01,9.99815e-01,8.19522e-01,9.99999e-01
8.203003262e-01,8.22748e-01,9.99999e-01,9.99996e-01,8.22750e-01,9.99999e-01
8.244018279e-01,8.25927e-01,9.99999e-01,9.99999e-01,8.25927e-01,9.99999e-01
8.285238370e-01,8.29053e-01,9.99999e-01,9.99999e-01,8.29053e-01,9.99999e-01
8.326664562e-01,8.32129e-01,9.99999e-01,9.99999e-01,8.32129e-01,9.99999e-01
8.368297885e-01,8.35155e-01,9.99999e-01,9.99999e-01,8.35155e-01,9.99999e-01
8.410139374e-01,8.38132e-01,9.99999e-01,9.99999e-01,8.38132e-01,9.99999e-01
8.452190071e-01,8.41060e-01,9.99999e-01,9.99999e-01,8.41060e-01,9.99999e-01
8.494451021e-01,8.43941e-01,9.99999e-01,9.99999e-01,8.43941e-01,9.99999e-01
8.536923276e-01,8.46774e-01,9.99999e-01,9.99999e-01,8.46774e-01,9.99999e-01
8.579607893e-01,8.49560e-01,9.99999e-01,9.99999e-01,8.49560e-01,9.99999e-01
8.622505932e-01,8.52300e-01,9.99999e-01,9.99999e-01,8.52300e-01,9.99999e-01
8.665618462e-01,8.25639e-01,9.99999e-01,9.65664e-01,8.54995e-01,9.99999e-01
8.708946554e-01,7.50506e-01,9.99999e-01,8.75077e-01,8.57645e-01,9.99999e-01
8.752491287e-01,7.74069e-01,9.99999e-01,8.99817e-01,8.60250e-01,9.99999e-01
8.796253743e-01,8.14885e-01,9.99999e-01,9.44451e-01,8.62812e-01,9.99999e-01
8.840235012e-01,8.40230e-01,9.99999e-01,9.70992e-01,8.65330e-01,9.99999e-01
8.884436187e-01,8.57827e-01,9.99999e-01,9.88499e-01,8.67806e-01,9.99999e-01
8.928858368e-01,8.66176e-01,9.99999e-01,9.95329e-01,8.70240e-01,9.99999e-01
8.973502660e-01,8.71643e-01,9.99999e-01,9.98865e-01,8.72632e-01,9.99999e-01
9.018370173e-01,8.74875e-01,9.99999e-01,9.99874e-01,8.74984e-01,9.99999e-01
9.063462024e-01,8.74453e-01,9.99999e-01,9.96759e-01,8.77295e-01,9.99999e-01
9.108779334e-01,8.73089e-01,9.99999e-01,9.92634e-01,8.79567e-01,9.99999e-01
9.154323231e-01,8.80273e-01,9.99999e-01,9.98269e-01,8.81799e-01,9.99999e-01
9.200094847e-01,8.60918e-01,9.99999e-01,9.73896e-01,8.83993e-01,9.99999e-01
9.246095321e-01,8.54584e-01,9.99999e-01,9.64380e-01,8.86148e-01,9.99999e-01
9.292325798e-01,8.63181e-01,9.99999e-01,9.71758e-01,8.88266e-01,9.99999e-01
9.338787427e-01,8.66164e-01,9.99999e-01,9.72837e-01,8.90348e-01,9.99999e-01
9.385481364e-01,8.74570e-01,9.99999e-01,9.80027e-01,8.92393e-01,9.99999e-01
9.432408771e-01,8.83449e-01,9.99999e-01,9.87753e-01,8.94402e-01,9.99999e-01
9.479570815e-01,8.90728e-01,9.99999e-01,9.93699e-01,8.96375e-01,9.99999e-01
9.526968669e-01,8.95582e-01,9.99999e-01,9.96957e-01,8.98314e-01,9.99999e-01
9.574603512e-01,8.99048e-01,9.99999e-01,9.98698e-01,9.00219e-01,9.99999e-01
9.622476530e-01,9.01724e-01,9.99999e-01,9.99593e-01,9.02090e-01,9.99999e-01
9.670588912e-01,9.03818e-01,9.99999e-01,9.99878e-01,9.03928e-01,9.99999e-01
9.718941857e-01,9.05726e-01,9.99999e-01,9.99990e-01,9.05733e-01,9.99999e-01
9.767536566e-01,9.07506e-01,9.99999e-01,9.99999e-01,9.07506e-01,9.99999e-01
9.816374249e-01,9.09248e-01,9.99999e-01,9.99999e-01,9.09248e-01,9.99999e-01
9.865456120e-01,9.10958e-01,9.99999e-01,9.99999e-01,9.10958e-01,9.99999e-01
9.914783401e-01,9.12638e-01,9.99999e-01,9.99999e-01,9.12638e-01,9.99999e-01
9.964357318e-01,9.14287e-01,9.99999e-01,9.99999e-01,9.14287e-01,9.99999e-01
1.001417910e+00,9.15907e-01,9.99999e-01,9.99999e-01,9.15907e-01,9.99999e-01
1.006425000e+00,9.17497e-01,9.99999e-01,9.99999e-01,9.17497e-01,9.99999e-01
1.011457125e+00,9.19059e-01,9.99999e-01,9.99999e-01,9.19059e-01,9.99999e-01
1.016514411e+00,9.20593e-01,9.99999e-01,9.99999e-01,9.20593e-01,9.99999e-01
1.021596983e+00,9.22083e-01,9.99999e-01,9.99982e-01,9.22098e-01,9.99999e-01
1.026704968e+00,9.22414e-01,9.99999e-01,9.98741e-01,9.23577e-01,9.99999e-01
1.031838492e+00,9.05881e-01,9.99999e-01,9.79300e-01,9.25028e-01,9.99999e-01
1.036997685e+00,3.50876e-01,9.99999e-01,3.78730e-01,9.26453e-01,9.99999e-01
1.042182673e+00,4.37776e-01,9.99999e-01,4.71816e-01,9.27852e-01,9.99999e-01
1.047393587e+00,3.85314e-01,9.99999e-01,4.14661e-01,9.29226e-01,9.99999e-01
1.052630555e+00,1.00327e-01,9.99999e-01,1.07811e-01,9.30574e-01,9.99999e-01
1.057893707e+00,1.67810e-01,9.99999e-01,1.80073e-01,9.31897e-01,9.99999e-01
1.063183176e+00,2.71868e-01,9.99999e-01,2.91329e-01,9.33197e-01,9.99999e-01
1.068499092e+00,4.15420e-01,9.99999e-01,4.44550e-01,9.34472e-01,9.99999e-01
1.073841587e+00,5.61467e-01,9.99999e-01,6.00035e-01,9.35724e-01,9.99999e-01
1.079210795e+00,6.79450e-01,9.99999e-01,7.25170e-01,9.36952e-01,9.99999e-01
1.084606849e+00,7.87650e-01,9.99999e-01,8.39569e-01,9.38158e-01,9.99999e-01
1.090029883e+00,8.58113e-01,9.99999e-01,9.13525e-01,9.39342e-01,9.99999e-01
1.095480033e+00,8.99573e-01,9.99999e-01,9.56479e-01,9.40504e-01,9.99999e-01
1.100957433e+00,9.21710e-01,9.99999e-01,9.78829e-01,9.41644e-01,9.99999e-01
1.106462220e+00,9.34465e-01,9.99999e-01,9.91197e-01,9.42763e-01,9.99999e-01
1.111994531e+00,9.40775e-01,9.99999e-01,9.96729e-01,9.43861e-01,9.99999e-01
1.117554504e+00,9.44185e-01,9.99999e-01,9.99201e-01,9.44939e-01,9.99999e-01
1.123142276e+00,9.45947e-01,9.99999e-01,9.99947e-01,9.45997e-01,9.99999e-01
1.128757988e+00,9.47034e-01,9.99999e-01,9.99999e-01,9.47034e-01,9.99999e-01
1.134401778e+00,9.48053e-01,9.99999e-01,9.99999e-01,9.48053e-01,9.99999e-01
1.140073787e+00,9.49052e-01,9.99999e-01,9.99999e-01,9.49052e-01,9.99999e-01
1.145774156e+00,9.50033e-01,9.99999e-01,9.99999e-01,9.50033e-01,9.99999e-01
1.151503026e+00,9.50996e-01,9.99999e-01,9.99999e-01,9.50996e-01,9.99999e-01
1.157260541e+00,9.51940e-01,9.99999e-01,9.99999e-01,9.51940e-01,9.99999e-01
1.163046844e+00,9.52866e-01,9.99999e-01,9.99999e-01,9.52866e-01,9.99999e-01
1.168862078e+00,9.53776e-01,9.99999e-01,9.99999e-01,9.53776e-01,9.99999e-01
1.174706389e+00,9.54668e-01,9.99999e-01,9.99999e-01,9.54668e-01,9.99999e-01
1.180579921e+00,9.55543e-01,9.99999e-01,9.99999e-01,9.55543e-01,9.99999e-01
1.186482820e+00,9.56399e-01,9.99999e-01,9.99997e-01,9.56401e-01,9.99999e-01
1.192415234e+00,9.52899e-01,9.99999e-01,9.95460e-01,9.57244e-01,9.99999e-01
1.198377311e+00,5.82250e-01,9.99999e-01,6.07731e-01,9.58070e-01,9.99999e-01
1.204369197e+00,3.13611e-05,9.99999e-01,3.27059e-05,9.58881e-01,9.99999e-01
1.210391043e+00,4.17564e-15,9.99999e-01,4.35109e-15,9.59677e-01,9.99999e-01
1.216442998e+00,2.62102e-13,9.99999e-01,2.72893e-13,9.60457e-01,9.99999e-01
1.222525213e+00,4.44509e-13,9.99999e-01,4.62440e-13,9.61223e-01,9.99999e-01
1.228637839e+00,5.33018e-10,9.99999e-01,5.54087e-10,9.61974e-01,9.99999e-01
1.234781029e+00,2.90462e-07,9.99999e-01,3.01712e-07,9.62711e-01,9.99999e-01
1.240954934e+00,6.04343e-05,9.99999e-01,6.27280e-05,9.63434e-01,9.99999e-01
1.247159708e+00,4.39983e-03,9.99999e-01,4.56346e-03,9.64143e-01,9.99999e-01
1.253395507e+00,5.24089e-02,9.99999e-01,5.43188e-02,9.64839e-01,9.99999e-01
1.259662485e+00,1.86911e-01,9.99999e-01,1.93585e-01,9.65521e-01,9.99999e-01
1.265960797e+00,3.73770e-01,9.99999e-01,3.86848e-01,9.66191e-01,9.99999e-01
1.272290601e+00,6.57369e-01,9.99999e-01,6.79909e-01,9.66847e-01,9.99999e-01
1.278652054e+00,5.95850e-01,9.99999e-01,6.15871e-01,9.67491e-01,9.99999e-01
1.285045314e+00,6.34200e-02,9.99999e-01,6.55082e-02,9.68123e-01,9.99999e-01
1.291470541e+00,1.99697e-02,9.99999e-01,2.06140e-02,9.68743e-01,9.99999e-01
1.297927893e+00,9.98564e-02,9.99999e-01,1.03014e-01,9.69351e-01,9.99999e-01
1.304417533e+00,4.82959e-01,9.99999e-01,4.97923e-01,9.69947e-01,9.99999e-01
1.310939621e+00,1.51373e-01,9.99999e-01,1.55969e-01,9.70532e-01,9.99999e-01
1.317494319e+00,1.43445e-05,9.99999e-01,1.47713e-05,9.71105e-01,9.99999e-01
1.324081790e+00,2.69338e-04,9.99999e-01,2.77191e-04,9.71668e-01,9.99999e-01
1.330702199e+00,1.47273e-02,9.99999e-01,1.51481e-02,9.72219e-01,9.99999e-01
1.337355710e+00,9.63506e-03,9.99999e-01,9.90485e-03,9.72761e-01,9.99999e-01
1.344042489e+00,4.27509e-03,9.99999e-01,4.39240e-03,9.73291e-01,9.99999e-01
1.350762701e+00,1.24568e-02,9.99999e-01,1.27918e-02,9.73812e-01,9.99999e-01
1.357516515e+00,5.38794e-02,9.99999e-01,5.52993e-02,9.74323e-01,9.99999e-01
1.364304097e+00,1.65634e-01,9.99999e-01,1.69912e-01,9.74823e-01,9.99999e-01
1.371125618e+00,3.80126e-01,9.99999e-01,3.89747e-01,9.75314e-01,9.99999e-01
1.377981246e+00,4.63414e-01,9.99999e-01,4.74908e-01,9.75796e-01,9.99999e-01
1.384871152e+00,6.32783e-01,9.99999e-01,6.48164e-01,9.76268e-01,9.99999e-01
1.391795508e+00,6.54621e-01,9.99999e-01,6.70215e-01,9.76732e-01,9.99999e-01
1.398754485e+00,7.64398e-01,9.99999e-01,7.82243e-01,9.77186e-01,9.99999e-01
1.405748258e+00,8.15393e-01,9.99999e-01,8.34048e-01,9.77631e-01,9.99999e-01
1.412776999e+00,8.72443e-01,9.99999e-01,8.92005e-01,9.78068e-01,9.99999e-01
1.419840884e+00,8.22676e-01,9.99999e-01,8.40754e-01,9.78497e-01,9.99999e-01
1.426940089e+00,1.24141e-01,9.99999e-01,1.26814e-01,9.78917e-01,9.99999e-01
1.434074789e+00,2.04052e-203,9.99999e-01,2.08359e-203,9.79329e-01,9.99999e-01
1.441245163e+00,1.25812e-299,9.99999e-01,1.28415e-299,9.79733e-01,9.99999e-01
1.448451389e+00,1.71035e-246,9.99999e-01,1.74502e-246,9.80130e-01,9.99999e-01
1.455693646e+00,9.48590e-111,9.99999e-01,9.67436e-111,9.80518e-01,9.99999e-01
1.462972114e+00,1.96740e-54,9.99999e-01,2.00571e-54,9.80899e-01,9.99999e-01
1.470286975e+00,1.04324e-23,9.99999e-01,1.06314e-23,9.81273e-01,9.99999e-01
