#,Wave/freq,Total,O2,CO2,Rayleigh,CIA
4.000000000e-01,2.49944e-19,9.99999e-01,9.99999e-01,2.49944e-19,9.99999e-01
4.020000000e-01,5.82988e-19,9.99999e-01,9.99999e-01,5.82988e-19,9.99999e-01
4.040100000e-01,1.33608e-18,9.99999e-01,9.99999e-01,1.33608e-18,9.99999e-01
4.060300500e-01,3.01226e-18,9.99999e-01,9.99999e-01,3.01226e-18,9.99999e-01
4.080602003e-01,6.68309e-18,9.99999e-01,9.99999e-01,6.68309e-18,9.99999e-01
4.101005013e-01,1.45958e-17,9.99999e-01,9.99999e-01,1.45958e-17,9.99999e-01
4.121510038e-01,3.13888e-17,9.99999e-01,9.99999e-01,3.13888e-17,9.99999e-01
4.142117588e-01,6.64897e-17,9.99999e-01,9.99999e-01,6.64897e-17,9.99999e-01
4.162828176e-01,1.38770e-16,9.99999e-01,9.99999e-01,1.38770e-16,9.99999e-01
4.183642317e-01,2.85446e-16,9.99999e-01,9.99999e-01,2.85446e-16,9.99999e-01
4.204560528e-01,5.78850e-16,9.99999e-01,9.99999e-01,5.78850e-16,9.99999e-01
4.225583331e-01,1.15756e-15,9.99999e-01,9.99999e-01,1.15756e-15,9.99999e-01
4.246711247e-01,2.28336e-15,9.99999e-01,9.99999e-01,2.28336e-15,9.99999e-01
4.267944804e-01,4.44406e-15,9.99999e-01,9.99999e-01,4.44406e-15,9.99999e-01
4.289284528e-01,8.53634e-15,9.99999e-01,9.99999e-01,8.53634e-15,9.99999e-01
4.310730950e-01,1.61869e-14,9.99999e-01,9.99999e-01,1.61869e-14,9.99999e-01
4.332284605e-01,3.03087e-14,9.99999e-01,9.99999e-01,3.03087e-14,9.99999e-01
4.353946028e-01,5.60518e-14,9.99999e-01,9.99999e-01,5.60518e-14,9.99999e-01
4.375715758e-01,1.02409e-13,9.99999e-01,9.99999e-01,1.02409e-13,9.99999e-01
4.397594337e-01,1.84891e-13,9.99999e-01,9.99999e-01,1.84891e-13,9.99999e-01
4.419582309e-01,3.29933e-13,9.99999e-01,9.99999e-01,3.29933e-13,9.99999e-01
4.441680220e-01,5.82060e-13,9.99999e-01,9.99999e-01,5.82060e-13,9.99999e-01
4.463888621e-01,1.01541e-12,9.99999e-01,9.99999e-01,1.01541e-12,9.99999e-01
4.486208064e-01,1.75202e-12,9.99999e-01,9.99999e-01,1.75202e-12,9.99999e-01
4.508639105e-01,2.99060e-12,9.99999e-01,9.99999e-01,2.99060e-12,9.99999e-01
4.531182300e-01,5.05115e-12,9.99999e-01,9.99999e-01,5.05115e-12,9.99999e-01
4.553838212e-01,8.44357e-12,9.99999e-01,9.99999e-01,8.44357e-12,9.99999e-01
4.576607403e-01,1.39719e-11,9.99999e-01,9.99999e-01,1.39719e-11,9.99999e-01
4.599490440e-01,2.28909e-11,9.99999e-01,9.99999e-01,2.28909e-11,9.99999e-01
4.622487892e-01,3.71395e-11,9.99999e-01,9.99999e-01,3.71395e-11,9.99999e-01
4.645600332e-01,5.96839e-11,9.99999e-01,9.99999e-01,5.96839e-11,9.99999e-01
4.668828333e-01,9.50188e-11,9.99999e-01,9.99999e-01,9.50188e-11,9.99999e-01
4.692172475e-01,1.49890e-10,9.99999e-01,9.99999e-01,1.49890e-10,9.99999e-01
4.715633337e-01,2.34329e-10,9.99999e-01,9.99999e-01,2.34329e-10,9.99999e-01
4.739211504e-01,3.63116e-10,9.99999e-01,9.99999e-01,3.63116e-10,9.99999e-01
4.762907561e-01,5.57838e-10,9.99999e-01,9.99999e-01,5.57838e-10,9.99999e-01
4.786722099e-01,8.49742e-10,9.99999e-01,9.99999e-01,8.49742e-10,9.99999e-01
4.810655710e-01,1.28368e-09,9.99999e-01,9.99999e-01,1.28368e-09,9.99999e-01
4.834708988e-01,1.92347e-09,9.99999e-01,9.99999e-01,1.92347e-09,9.99999e-01
4.858882533e-01,2.85922e-09,9.99999e-01,9.99999e-01,2.85922e-09,9.99999e-01
4.883176946e-01,4.21704e-09,9.99999e-01,9.99999e-01,4.21704e-09,9.99999e-01
4.907592831e-01,6.17212e-09,9.99999e-01,9.99999e-01,6.17212e-09,9.99999e-01
4.932130795e-01,8.96589e-09,9.99999e-01,9.99999e-01,8.96589e-09,9.99999e-01
4.956791449e-01,1.29285e-08,9.99999e-01,9.99999e-01,1.29285e-08,9.99999e-01
4.981575406e-01,1.85083e-08,9.99999e-01,9.99999e-01,1.85083e-08,9.99999e-01
5.006483283e-01,2.63090e-08,9.99999e-01,9.99999e-01,2.63090e-08,9.99999e-01
5.031515699e-01,3.71387e-08,9.99999e-01,9.99999e-01,3.71387e-08,9.99999e-01
5.056673278e-01,5.20704e-08,9.99999e-01,9.99999e-01,5.20704e-08,9.99999e-01
5.081956644e-01,7.25197e-08,9.99999e-01,9.99999e-01,7.25197e-08,9.99999e-01
5.107366428e-01,1.00341e-07,9.99999e-01,9.99999e-01,1.00341e-07,9.99999e-01
5.132903260e-01,1.37949e-07,9.99999e-01,9.99999e-01,1.37949e-07,9.99999e-01
5.158567776e-01,1.88463e-07,9.99999e-01,9.99999e-01,1.88463e-07,9.99999e-01
5.184360615e-01,2.55892e-07,9.99999e-01,9.99999e-01,2.55892e-07,9.99999e-01
5.210282418e-01,3.45353e-07,9.99999e-01,9.99999e-01,3.45353e-07,9.99999e-01
5.236333830e-01,4.63339e-07,9.99999e-01,9.99999e-01,4.63339e-07,9.99999e-01
5.262515499e-01,6.18035e-07,9.99999e-01,9.99999e-01,6.18035e-07,9.99999e-01
5.288828077e-01,8.19702e-07,9.99999e-01,9.99999e-01,8.19702e-07,9.99999e-01
5.315272217e-01,1.08113e-06,9.99999e-01,9.99999e-01,1.08113e-06,9.99999e-01
5.341848578e-01,1.41815e-06,9.99999e-01,9.99999e-01,1.41815e-06,9.99999e-01
5.368557821e-01,1.85029e-06,9.99999e-01,9.99999e-01,1.85029e-06,9.99999e-01
5.395400610e-01,2.40147e-06,9.99999e-01,9.99999e-01,2.40147e-06,9.99999e-01
5.422377613e-01,3.10081e-06,9.99999e-01,9.99999e-01,3.10081e-06,9.99999e-01
5.449489501e-01,3.98367e-06,9.99999e-01,9.99999e-01,3.98367e-06,9.99999e-01
5.476736949e-01,5.09261e-06,9.99999e-01,9.99999e-01,5.09261e-06,9.99999e-01
5.504120634e-01,6.47876e-06,9.99999e-01,9.99999e-01,6.47876e-06,9.99999e-01
5.531641237e-01,8.20309e-06,9.99999e-01,9.99999e-01,8.20309e-06,9.99999e-01
5.559299443e-01,1.03381e-05,9.99999e-01,9.99999e-01,1.03381e-05,9.99999e-01
5.587095940e-01,1.29693e-05,9.99999e-01,9.99999e-01,1.29693e-05,9.99999e-01
5.615031420e-01,1.61975e-05,9.99999e-01,9.99999e-01,1.61975e-05,9.99999e-01
5.643106577e-01,2.01407e-05,9.99999e-01,9.99999e-01,2.01407e-05,9.99999e-01
5.671322110e-01,2.49362e-05,9.99999e-01,9.99999e-01,2.49362e-05,9.99999e-01
5.699678720e-01,3.07435e-05,9.99999e-01,9.99999e-01,3.07435e-05,9.99999e-01
5.728177114e-01,3.77469e-05,9.99999e-01,9.99999e-01,3.77469e-05,9.99999e-01
5.756818000e-01,4.61582e-05,9.99999e-01,9.99999e-01,4.61582e-05,9.99999e-01
5.785602090e-01,5.62200e-05,9.99999e-01,9.99999e-01,5.62200e-05,9.99999e-01
5.814530100e-01,6.82089e-05,9.99999e-01,9.99999e-01,6.82089e-05,9.99999e-01
5.843602750e-01,8.24391e-05,9.99999e-01,9.99999e-01,8.24391e-05,9.99999e-01
5.872820764e-01,9.92658e-05,9.99999e-01,9.99999e-01,9.92658e-05,9.99999e-01
5.902184868e-01,1.19089e-04,9.99999e-01,9.99999e-01,1.19089e-04,9.99999e-01
5.931695792e-01,1.42359e-04,9.99999e-01,9.99999e-01,1.42359e-04,9.99999e-01
5.961354271e-01,1.69576e-04,9.99999e-01,9.99999e-01,1.69576e-04,9.99999e-01
5.991161043e-01,2.01300e-04,9.99999e-01,9.99999e-01,2.01300e-04,9.99999e-01
6.021116848e-01,2.38151e-04,9.99999e-01,9.99999e-01,2.38151e-04,9.99999e-01
6.051222432e-01,2.80814e-04,9.99999e-01,9.99999e-01,2.80814e-04,9.99999e-01
6.081478544e-01,3.30043e-04,9.99999e-01,9.99999e-01,3.30043e-04,9.99999e-01
6.111885937e-01,3.86667e-04,9.99999e-01,9.99999e-01,3.86667e-04,9.99999e-01
6.142445367e-01,4.51592e-04,9.99999e-01,9.99999e-01,4.51592e-04,9.99999e-01
6.173157594e-01,5.25803e-04,9.99999e-01,9.99999e-01,5.25803e-04,9.99999e-01
6.204023382e-01,6.10372e-04,9.99999e-01,9.99999e-01,6.10372e-04,9.99999e-01
6.235043498e-01,7.06460e-04,9.99999e-01,9.99999e-01,7.06460e-04,9.99999e-01
6.266218716e-01,8.15315e-04,9.99999e-01,9.99999e-01,8.15315e-04,9.99999e-01
6.297549810e-01,9.38285e-04,9.99999e-01,9.99999e-01,9.38285e-04,9.99999e-01
6.329037559e-01,1.07681e-03,9.99999e-01,9.99999e-01,1.07681e-03,9.99999e-01
6.360682746e-01,1.23243e-03,9.99999e-01,9.99999e-01,1.23243e-03,9.99999e-01
6.392486160e-01,1.40678e-03,9.99999e-01,9.99999e-01,1.40678e-03,9.99999e-01
6.424448591e-01,1.60160e-03,9.99999e-01,9.99999e-01,1.60160e-03,9.99999e-01
6.456570834e-01,1.81875e-03,9.99999e-01,9.99999e-01,1.81875e-03,9.99999e-01
6.488853688e-01,2.06015e-03,9.99999e-01,9.99999e-01,2.06015e-03,9.99999e-01
6.521297956e-01,2.32785e-03,9.99999e-01,9.99999e-01,2.32785e-03,9.99999e-01
6.553904446e-01,2.62401e-03,9.99999e-01,9.99999e-01,2.62401e-03,9.99999e-01
6.586673968e-01,2.95085e-03,9.99999e-01,9.99999e-01,2.95085e-03,9.99999e-01
6.619607338e-01,3.31071e-03,9.99999e-01,9.99999e-01,3.31071e-03,9.99999e-01
6.652705375e-01,3.70603e-03,9.99999e-01,9.99999e-01,3.70603e-03,9.99999e-01
6.685968902e-01,4.13932e-03,9.99999e-01,9.99999e-01,4.13932e-03,9.99999e-01
6.719398746e-01,4.61318e-03,9.99999e-01,9.99999e-01,4.61318e-03,9.99999e-01
6.752995740e-01,5.13030e-03,9.99999e-01,9.99999e-01,5.13030e-03,9.99999e-01
6.786760719e-01,5.69342e-03,9.99999e-01,9.99999e-01,5.69342e-03,9.99999e-01
6.820694522e-01,6.30536e-03,9.99999e-01,9.99999e-01,6.30536e-03,9.99999e-01
6.854797995e-01,6.96901e-03,9.99999e-01,9.99999e-01,6.96901e-03,9.99999e-01
6.889071985e-01,7.68730e-03,9.99999e-01,9.99999e-01,7.68730e-03,9.99999e-01
6.923517345e-01,8.46321e-03,9.99999e-01,9.99999e-01,8.46321e-03,9.99999e-01
6.958134932e-01,9.29975e-03,9.99999e-01,9.99999e-01,9.29975e-03,9.99999e-01
6.992925606e-01,1.02000e-02,9.99999e-01,9.99999e-01,1.02000e-02,9.99999e-01
7.027890234e-01,1.11669e-02,9.99999e-01,9.99999e-01,1.11669e-02,9.99999e-01
7.063029686e-01,1.22037e-02,9.99999e-01,9.99999e-01,1.22037e-02,9.99999e-01
7.098344834e-01,1.33134e-02,9.99999e-01,9.99999e-01,1.33134e-02,9.99999e-01
7.133836558e-01,1.44990e-02,9.99999e-01,9.99999e-01,1.44990e-02,9.99999e-01
7.169505741e-01,1.57637e-02,9.99999e-01,9.99999e-01,1.57637e-02,9.99999e-01
7.205353270e-01,1.71103e-02,9.99999e-01,9.99999e-01,1.71103e-02,9.99999e-01
7.241380036e-01,1.85419e-02,9.99999e-01,9.99999e-01,1.85419e-02,9.99999e-01
7.277586936e-01,2.00615e-02,9.99999e-01,9.99999e-01,2.00615e-02,9.99999e-01
7.313974871e-01,2.16718e-02,9.99999e-01,9.99999e-01,2.16718e-02,9.99999e-01
7.350544745e-01,2.33758e-02,9.99999e-01,9.99999e-01,2.33758e-02,9.99999e-01
7.387297469e-01,2.51760e-02,9.99999e-01,9.99999e-01,2.51760e-02,9.99999e-01
7.424233956e-01,2.70752e-02,9.99999e-01,9.99999e-01,2.70752e-02,9.99999e-01
7.461355126e-01,2.90758e-02,9.99999e-01,9.99999e-01,2.90758e-02,9.99999e-01
7.498661902e-01,3.11803e-02,9.99999e-01,9.99999e-01,3.11803e-02,9.99999e-01
7.536155211e-01,3.33911e-02,9.99999e-01,9.99999e-01,3.33911e-02,9.99999e-01
7.573835987e-01,3.57102e-02,9.99999e-01,9.99999e-01,3.57102e-02,9.99999e-01
7.611705167e-01,3.81398e-02,9.99999e-01,9.99999e-01,3.81398e-02,9.99999e-01
7.649763693e-01,4.06818e-02,9.99999e-01,9.99999e-01,4.06818e-02,9.99999e-01
7.688012511e-01,4.33379e-02,9.99999e-01,9.99999e-01,4.33379e-02,9.99999e-01
7.726452574e-01,4.61097e-02,9.99999e-01,9.99999e-01,4.61097e-02,9.99999e-01
7.765084837e-01,4.89989e-02,9.99999e-01,9.99999e-01,4.89989e-02,9.99999e-01
7.803910261e-01,4.64981e-02,9.99999e-01,8.94081e-01,5.20066e-02,9.99999e-01
7.842929812e-01,3.09342e-02,9.99999e-01,5.61073e-01,5.51340e-02,9.99999e-01
7.882144461e-01,3.18471e-02,9.99999e-01,5.45494e-01,5.83820e-02,9.99999e-01
7.921555184e-01,4.22157e-02,9.99999e-01,6.83636e-01,6.17516e-02,9.99999e-01
7.961162960e-01,5.03558e-02,9.99999e-01,7.71815e-01,6.52433e-02,9.99999e-01
8.000968774e-01,5.98196e-02,9.99999e-01,8.68743e-01,6.88576e-02,9.99999e-01
8.040973618e-01,6.74759e-02,9.99999e-01,9.29486e-01,7.25947e-02,9.99999e-01
8.081178486e-01,7.39281e-02,9.99999e-01,9.66950e-01,7.64549e-02,9.99999e-01
8.121584379e-01,7.96069e-02,9.99999e-01,9.89669e-01,8.04379e-02,9.99999e-01
8.162192301e-01,8.43499e-02,9.99999e-01,9.97709e-01,8.45436e-02,9.99999e-01
8.203003262e-01,8.87684e-02,9.99999e-01,9.99965e-01,8.87714e-02,9.99999e-01
8.244018279e-01,9.31210e-02,9.99999e-01,9.99999e-01,9.31210e-02,9.99999e-01
8.285238370e-01,9.75914e-02,9.99999e-01,9.99999e-01,9.75914e-02,9.99999e-01
8.326664562e-01,1.02182e-01,9.99999e-01,9.99999e-01,1.02182e-01,9.99999e-01
8.368297885e-01,1.06891e-01,9.99999e-01,9.99999e-01,1.06891e-01,9.99999e-01
8.410139374e-01,1.11717e-01,9.99999e-01,9.99999e-01,1.11717e-01,9.99999e-01
8.452190071e-01,1.16660e-01,9.99999e-01,9.99999e-01,1.16660e-01,9.99999e-01
8.494451021e-01,1.21718e-01,9.99999e-01,9.99999e-01,1.21718e-01,9.99999e-01
8.536923276e-01,1.26888e-01,9.99999e-01,9.99999e-01,1.26888e-01,9.99999e-01
8.579607893e-01,1.32169e-01,9.99999e-01,9.99999e-01,1.32169e-01,9.99999e-01
8.622505932e-01,1.37559e-01,9.99999e-01,9.99999e-01,1.37559e-01,9.99999e-01
8.665618462e-01,1.22098e-01,9.99999e-01,8.53495e-01,1.43056e-01,9.99999e-01
8.708946554e-01,3.65179e-02,9.99999e-01,2.45651e-01,1.48658e-01,9.99999e-01
8.752491287e-01,4.70511e-02,9.99999e-01,3.04811e-01,1.54361e-01,9.99999e-01
8.796253743e-01,8.17305e-02,9.99999e-01,5.10290e-01,1.60165e-01,9.99999e-01
8.840235012e-01,1.16088e-01,9.99999e-01,6.99051e-01,1.66065e-01,9.99999e-01
8.884436187e-01,1.49194e-01,9.99999e-01,8.67102e-01,1.72060e-01,9.99999e-01
8.928858368e-01,1.68111e-01,9.99999e-01,9.43664e-01,1.78147e-01,9.99999e-01
8.973502660e-01,1.81742e-01,9.99999e-01,9.86002e-01,1.84322e-01,9.99999e-01
9.018370173e-01,1.90287e-01,9.99999e-01,9.98447e-01,1.90583e-01,9.99999e-01
9.063462024e-01,1.89450e-01,9.99999e-01,9.62036e-01,1.96926e-01,9.99999e-01
9.108779334e-01,1.85631e-01,9.99999e-01,9.12868e-01,2.03349e-01,9.99999e-01
9.154323231e-01,2.05397e-01,9.99999e-01,9.78785e-01,2.09849e-01,9.99999e-01
9.200094847e-01,1.67483e-01,9.99999e-01,7.73875e-01,2.16422e-01,9.99999e-01
9.246095321e-01,1.43343e-01,9.99999e-01,6.42607e-01,2.23064e-01,9.99999e-01
9.292325798e-01,1.63916e-01,9.99999e-01,7.13380e-01,2.29774e-01,9.99999e-01
9.338787427e-01,1.69694e-01,9.99999e-01,7.17380e-01,2.36546e-01,9.99999e-01
9.385481364e-01,1.90128e-01,9.99999e-01,7.81200e-01,2.43379e-01,9.99999e-01
9.432408771e-01,2.14881e-01,9.99999e-01,8.58602e-01,2.50268e-01,9.99999e-01
9.479570815e-01,2.37834e-01,9.99999e-01,9.24666e-01,2.57210e-01,9.99999e-01
9.526968669e-01,2.54423e-01,9.99999e-01,9.62983e-01,2.64202e-01,9.99999e-01
9.574603512e-01,2.66895e-01,9.99999e-01,9.83977e-01,2.71241e-01,9.99999e-01
9.622476530e-01,2.76923e-01,9.99999e-01,9.94972e-01,2.78322e-01,9.99999e-01
9.670588912e-01,2.85012e-01,9.99999e-01,9.98490e-01,2.85443e-01,9.99999e-01
9.718941857e-01,2.92568e-01,9.99999e-01,9.99892e-01,2.92600e-01,9.99999e-01
9.767536566e-01,2.99789e-01,9.99999e-01,9.99999e-01,2.99789e-01,9.99999e-01
9.816374249e-01,3.07008e-01,9.99999e-01,9.99999e-01,3.07008e-01,9.99999e-01
9.865456120e-01,3.14254e-01,9.99999e-01,9.99999e-01,3.14254e-01,9.99999e-01
9.914783401e-01,3.21522e-01,9.99999e-01,9.99999e-01,3.21522e-01,9.99999e-01
9.964357318e-01,3.28809e-01,9.99999e-01,9.99999e-01,3.28809e-01,9.99999e-01
1.001417910e+00,3.36113e-01,9.99999e-01,9.99999e-01,3.36113e-01,9.99999e-01
1.006425000e+00,3.43430e-01,9.99999e-01,9.99999e-01,3.43430e-01,9.99999e-01
1.011457125e+00,3.50757e-01,9.99999e-01,9.99999e-01,3.50757e-01,9.99999e-01
1.016514411e+00,3.58092e-01,9.99999e-01,9.99999e-01,3.58092e-01,9.99999e-01
1.021596983e+00,3.65354e-01,9.99999e-01,9.99791e-01,3.65430e-01,9.99999e-01
1.026704968e+00,3.67081e-01,9.99999e-01,9.84740e-01,3.72769e-01,9.99999e-01
1.031838492e+00,3.37214e-01,9.99999e-01,8.87158e-01,3.80106e-01,9.99999e-01
1.036997685e+00,1.41995e-02,9.99999e-01,3.66498e-02,3.87438e-01,9.99999e-01
1.042182673e+00,3.75288e-04,9.99999e-01,9.50666e-04,3.94763e-01,9.99999e-01
1.047393587e+00,1.10145e-03,9.99999e-01,2.73940e-03,4.02078e-01,9.99999e-01
1.052630555e+00,1.33860e-08,9.99999e-01,3.26983e-08,4.09379e-01,9.99999e-01
1.057893707e+00,5.01247e-08,9.99999e-01,1.20299e-07,4.16665e-01,9.99999e-01
1.063183176e+00,3.72875e-06,9.99999e-01,8.79560e-06,4.23933e-01,9.99999e-01
1.068499092e+00,5.74926e-05,9.99999e-01,1.33338e-04,4.31181e-01,9.99999e-01
1.073841587e+00,1.31360e-03,9.99999e-01,2.99631e-03,4.38405e-01,9.99999e-01
1.079210795e+00,1.18664e-02,9.99999e-01,2.66299e-02,4.45604e-01,9.99999e-01
1.084606849e+00,5.63783e-02,9.99999e-01,1.24517e-01,4.52776e-01,9.99999e-01
1.090029883e+00,1.53847e-01,9.99999e-01,3.34508e-01,4.59918e-01,9.99999e-01
1.095480033e+00,2.71360e-01,9.99999e-01,5.81035e-01,4.67029e-01,9.99999e-01
1.100957433e+00,3.64225e-01,9.99999e-01,7.68235e-01,4.74105e-01,9.99999e-01
1.106462220e+00,4.31317e-01,9.99999e-01,8.96436e-01,4.81146e-01,9.99999e-01
1.111994531e+00,4.68726e-01,9.99999e-01,9.60209e-01,4.88150e-01,9.99999e-01
1.117554504e+00,4.90229e-01,9.99999e-01,9.90133e-01,4.95113e-01,9.99999e-01
1.123142276e+00,5.01710e-01,9.99999e-01,9.99348e-01,5.02036e-01,9.99999e-01
1.128757988e+00,5.08916e-01,9.99999e-01,9.99999e-01,5.08916e-01,9.99999e-01
1.134401778e+00,5.15752e-01,9.99999e-01,9.99999e-01,5.15752e-01,9.99999e-01
1.140073787e+00,5.22541e-01,9.99999e-01,9.99999e-01,5.22541e-01,9.99999e-01
1.145774156e+00,5.29284e-01,9.99999e-01,9.99999e-01,5.29284e-01,9.99999e-01
1.151503026e+00,5.35977e-01,9.99999e-01,9.99999e-01,5.35977e-01,9.99999e-01
1.157260541e+00,5.42621e-01,9.99999e-01,9.99999e-01,5.42621e-01,9.99999e-01
1.163046844e+00,5.49213e-01,9.99999e-01,9.99999e-01,5.49213e-01,9.99999e-01
1.168862078e+00,5.55753e-01,9.99999e-01,9.99999e-01,5.55753e-01,9.99999e-01
1.174706389e+00,5.62239e-01,9.99999e-01,9.99999e-01,5.62239e-01,9.99999e-01
1.180579921e+00,5.68670e-01,9.99999e-01,9.99999e-01,5.68670e-01,9.99999e-01
1.186482820e+00,5.75030e-01,9.99999e-01,9.99972e-01,5.75046e-01,9.99999e-01
1.192415234e+00,5.51765e-01,9.99999e-01,9.49083e-01,5.81365e-01,9.99999e-01
1.198377311e+00,2.93183e-01,9.99999e-01,4.98927e-01,5.87627e-01,9.99999e-01
1.204369197e+00,2.17496e-39,9.99999e-01,3.66259e-39,5.93830e-01,9.99999e-01
1.210391043e+00,8.26527e-162,9.99999e-01,1.37760e-161,5.99975e-01,9.99999e-01
1.216442998e+00,6.41695e-140,9.99999e-01,1.05880e-139,6.06060e-01,9.99999e-01
1.222525213e+00,8.30988e-138,9.99999e-01,1.35763e-137,6.12085e-01,9.99999e-01
1.228637839e+00,3.78124e-106,9.99999e-01,6.11802e-106,6.18048e-01,9.99999e-01
1.234781029e+00,9.71586e-66,9.99999e-01,1.55715e-65,6.23951e-01,9.99999e-01
1.240954934e+00,2.06217e-43,9.99999e-01,3.27436e-43,6.29791e-01,9.99999e-01
1.247159708e+00,1.71684e-20,9.99999e-01,2.70127e-20,6.35569e-01,9.99999e-01
1.253395507e+00,5.71549e-14,9.99999e-01,8.91255e-14,6.41285e-01,9.99999e-01
1.259662485e+00,3.57377e-08,9.99999e-01,5.52413e-08,6.46937e-01,9.99999e-01
1.265960797e+00,7.72545e-05,9.99999e-01,1.18393e-04,6.52526e-01,9.99999e-01
1.272290601e+00,8.26828e-03,9.99999e-01,1.25648e-02,6.58052e-01,9.99999e-01
1.278652054e+00,8.26240e-03,9.99999e-01,1.24525e-02,6.63514e-01,9.99999e-01
1.285045314e+00,2.29861e-06,9.99999e-01,3.43633e-06,6.68912e-01,9.99999e-01
1.291470541e+00,1.22804e-18,9.99999e-01,1.82135e-18,6.74246e-01,9.99999e-01
1.297927893e+00,1.03111e-07,9.99999e-01,1.51742e-07,6.79516e-01,9.99999e-01
1.304417533e+00,2.11166e-04,9.99999e-01,3.08396e-04,6.84722e-01,9.99999e-01
1.310939621e+00,6.00696e-05,9.99999e-01,8.70746e-05,6.89863e-01,9.99999e-01
1.317494319e+00,1.56201e-54,9.99999e-01,2.24769e-54,6.94941e-01,9.99999e-01
1.324081790e+00,1.58707e-35,9.99999e-01,2.26738e-35,6.99954e-01,9.99999e-01
1.330702199e+00,3.84060e-21,9.99999e-01,5.44839e-21,7.04904e-01,9.99999e-01
1.337355710e+00,3.70208e-19,9.99999e-01,5.21573e-19,7.09790e-01,9.99999e-01
1.344042489e+00,2.25968e-19,9.99999e-01,3.16211e-19,7.14612e-01,9.99999e-01
1.350762701e+00,1.79077e-21,9.99999e-01,2.48935e-21,7.19371e-01,9.99999e-01
1.357516515e+00,8.40607e-13,9.99999e-01,1.16095e-12,7.24066e-01,9.99999e-01
1.364304097e+00,1.65322e-09,9.99999e-01,2.26873e-09,7.28699e-01,9.99999e-01
1.371125618e+00,2.98739e-05,9.99999e-01,4.07407e-05,7.33269e-01,9.99999e-01
1.377981246e+00,1.10109e-04,9.99999e-01,1.49245e-04,7.37776e-01,9.99999e-01
1.384871152e+00,4.24521e-03,9.99999e-01,5.71959e-03,7.42221e-01,9.99999e-01
1.391795508e+00,6.57227e-03,9.99999e-01,8.80287e-03,7.46604e-01,9.99999e-01
1.398754485e+00,3.65136e-02,9.99999e-01,4.86247e-02,7.50926e-01,9.99999e-01
1.405748258e+00,8.45082e-02,9.99999e-01,1.11904e-01,7.55187e-01,9.99999e-01
1.412776999e+00,1.87241e-01,9.99999e-01,2.46568e-01,7.59387e-01,9.99999e-01
1.419840884e+00,1.85638e-01,9.99999e-01,2.43132e-01,7.63527e-01,9.99999e-01
1.426940089e+00,5.49950e-03,9.99999e-01,7.16446e-03,7.67607e-01,9.99999e-01
1.434074789e+00,0.00000e+00,9.99999e-01,0.00000e+00,7.71627e-01,9.99999e-01
1.441245163e+00,0.00000e+00,9.99999e-01,0.00000e+00,7.75589e-01,9.99999e-01
1.448451389e+00,0.00000e+00,9.99999e-01,0.00000e+00,7.79492e-01,9.99999e-01
1.455693646e+00,0.00000e+00,9.99999e-01,0.00000e+00,7.83337e-01,9.99999e-01
1.462972114e+00,0.00000e+00,9.99999e-01,0.00000e+00,7.87125e-01,9.99999e-01
1.470286975e+00,9.79189e-269,9.99999e-01,1.23814e-268,7.90855e-01,9.99999e-01
