#,Wave/freq,Total,O2,CO2,Rayleigh,CIA
4.000000000e-01,1.09580e-10,9.99999e-01,9.99999e-01,1.09580e-10,9.99999e-01
4.020000000e-01,1.72454e-10,9.99999e-01,9.99999e-01,1.72454e-10,9.99999e-01
4.040100000e-01,2.68858e-10,9.99999e-01,9.99999e-01,2.68858e-10,9.99999e-01
4.060300500e-01,4.15492e-10,9.99999e-01,9.99999e-01,4.15492e-10,9.99999e-01
4.080602003e-01,6.36604e-10,9.99999e-01,9.99999e-01,6.36604e-10,9.99999e-01
4.101005013e-01,9.67199e-10,9.99999e-01,9.99999e-01,9.67199e-10,9.99999e-01
4.121510038e-01,1.45738e-09,9.99999e-01,9.99999e-01,1.45738e-09,9.99999e-01
4.142117588e-01,2.17829e-09,9.99999e-01,9.99999e-01,2.17829e-09,9.99999e-01
4.162828176e-01,3.23005e-09,9.99999e-01,9.99999e-01,3.23005e-09,9.99999e-01
4.183642317e-01,4.75251e-09,9.99999e-01,9.99999e-01,4.75251e-09,9.99999e-01
4.204560528e-01,6.93945e-09,9.99999e-01,9.99999e-01,6.93945e-09,9.99999e-01
4.225583331e-01,1.00572e-08,9.99999e-01,9.99999e-01,1.00572e-08,9.99999e-01
4.246711247e-01,1.44694e-08,9.99999e-01,9.99999e-01,1.44694e-08,9.99999e-01
4.267944804e-01,2.06681e-08,9.99999e-01,9.99999e-01,2.06681e-08,9.99999e-01
4.289284528e-01,2.93151e-08,9.99999e-01,9.99999e-01,2.93151e-08,9.99999e-01
4.310730950e-01,4.12939e-08,9.99999e-01,9.99999e-01,4.12939e-08,9.99999e-01
4.332284605e-01,5.77750e-08,9.99999e-01,9.99999e-01,5.77750e-08,9.99999e-01
4.353946028e-01,8.02997e-08,9.99999e-01,9.99999e-01,8.02997e-08,9.99999e-01
4.375715758e-01,1.10883e-07,9.99999e-01,9.99999e-01,1.10883e-07,9.99999e-01
4.397594337e-01,1.52140e-07,9.99999e-01,9.99999e-01,1.52140e-07,9.99999e-01
4.419582309e-01,2.07449e-07,9.99999e-01,9.99999e-01,2.07449e-07,9.99999e-01
4.441680220e-01,2.81138e-07,9.99999e-01,9.99999e-01,2.81138e-07,9.99999e-01
4.463888621e-01,3.78721e-07,9.99999e-01,9.99999e-01,3.78721e-07,9.99999e-01
4.486208064e-01,5.07182e-07,9.99999e-01,9.99999e-01,5.07182e-07,9.99999e-01
4.508639105e-01,6.75309e-07,9.99999e-01,9.99999e-01,6.75309e-07,9.99999e-01
4.531182300e-01,8.94098e-07,9.99999e-01,9.99999e-01,8.94098e-07,9.99999e-01
4.553838212e-01,1.17723e-06,9.99999e-01,9.99999e-01,1.17723e-06,9.99999e-01
4.576607403e-01,1.54161e-06,9.99999e-01,9.99999e-01,1.54161e-06,9.99999e-01
4.599490440e-01,2.00806e-06,9.99999e-01,9.99999e-01,2.00806e-06,9.99999e-01
4.622487892e-01,2.60202e-06,9.99999e-01,9.99999e-01,2.60202e-06,9.99999e-01
4.645600332e-01,3.35446e-06,9.99999e-01,9.99999e-01,3.35446e-06,9.99999e-01
4.668828333e-01,4.30284e-06,9.99999e-01,9.99999e-01,4.30284e-06,9.99999e-01
4.692172475e-01,5.49227e-06,9.99999e-01,9.99999e-01,5.49227e-06,9.99999e-01
4.715633337e-01,6.97678e-06,9.99999e-01,9.99999e-01,6.97678e-06,9.99999e-01
4.739211504e-01,8.82075e-06,9.99999e-01,9.99999e-01,8.82075e-06,9.99999e-01
4.762907561e-01,1.11005e-05,9.99999e-01,9.99999e-01,1.11005e-05,9.99999e-01
4.786722099e-01,1.39063e-05,9.99999e-01,9.99999e-01,1.39063e-05,9.99999e-01
4.810655710e-01,1.73438e-05,9.99999e-01,9.99999e-01,1.73438e-05,9.99999e-01
4.834708988e-01,2.15369e-05,9.99999e-01,9.99999e-01,2.15369e-05,9.99999e-01
4.858882533e-01,2.66296e-05,9.99999e-01,9.99999e-01,2.66296e-05,9.99999e-01
4.883176946e-01,3.27887e-05,9.99999e-01,9.99999e-01,3.27887e-05,9.99999e-01
4.907592831e-01,4.02069e-05,9.99999e-01,9.99999e-01,4.02069e-05,9.99999e-01
4.932130795e-01,4.91051e-05,9.99999e-01,9.99999e-01,4.91051e-05,9.99999e-01
4.956791449e-01,5.97362e-05,9.99999e-01,9.99999e-01,5.97362e-05,9.99999e-01
4.981575406e-01,7.23881e-05,9.99999e-01,9.99999e-01,7.23881e-05,9.99999e-01
5.006483283e-01,8.73874e-05,9.99999e-01,9.99999e-01,8.73874e-05,9.99999e-01
5.031515699e-01,1.05103e-04,9.99999e-01,9.99999e-01,1.05103e-04,9.99999e-01
5.056673278e-01,1.25950e-04,9.99999e-01,9.99999e-01,1.25950e-04,9.99999e-01
5.081956644e-01,1.50393e-04,9.99999e-01,9.99999e-01,1.50393e-04,9.99999e-01
5.107366428e-01,1.78953e-04,9.99999e-01,9.99999e-01,1.78953e-04,9.99999e-01
5.132903260e-01,2.12205e-04,9.99999e-01,9.99999e-01,2.12205e-04,9.99999e-01
5.158567776e-01,2.50791e-04,9.99999e-01,9.99999e-01,2.50791e-04,9.99999e-01
5.184360615e-01,2.95416e-04,9.99999e-01,9.99999e-01,2.95416e-04,9.99999e-01
5.210282418e-01,3.46858e-04,9.99999e-01,9.99999e-01,3.46858e-04,9.99999e-01
5.236333830e-01,4.05968e-04,9.99999e-01,9.99999e-01,4.05968e-04,9.99999e-01
5.262515499e-01,4.73678e-04,9.99999e-01,9.99999e-01,4.73678e-04,9.99999e-01
5.288828077e-01,5.50998e-04,9.99999e-01,9.99999e-01,5.50998e-04,9.99999e-01
5.315272217e-01,6.39029e-04,9.99999e-01,9.99999e-01,6.39029e-04,9.99999e-01
5.341848578e-01,7.38958e-04,9.99999e-01,9.99999e-01,7.38958e-04,9.99999e-01
5.368557821e-01,8.52064e-04,9.99999e-01,9.99999e-01,8.52064e-04,9.99999e-01
5.395400610e-01,9.79722e-04,9.99999e-01,9.99999e-01,9.79722e-04,9.99999e-01
5.422377613e-01,1.12340e-03,9.99999e-01,9.99999e-01,1.12340e-03,9.99999e-01
5.449489501e-01,1.28468e-03,9.99999e-01,9.99999e-01,1.28468e-03,9.99999e-01
5.476736949e-01,1.46522e-03,9.99999e-01,9.99999e-01,1.46522e-03,9.99999e-01
5.504120634e-01,1.66680e-03,9.99999e-01,9.99999e-01,1.66680e-03,9.99999e-01
5.531641237e-01,1.89129e-03,9.99999e-01,9.99999e-01,1.89129e-03,9.99999e-01
5.559299443e-01,2.14067e-03,9.99999e-01,9.99999e-01,2.14067e-03,9.99999e-01
5.587095940e-01,2.41701e-03,9.99999e-01,9.99999e-01,2.41701e-03,9.99999e-01
5.615031420e-01,2.72248e-03,9.99999e-01,9.99999e-01,2.72248e-03,9.99999e-01
5.643106577e-01,3.05936e-03,9.99999e-01,9.99999e-01,3.05936e-03,9.99999e-01
5.671322110e-01,3.43001e-03,9.99999e-01,9.99999e-01,3.43001e-03,9.99999e-01
5.699678720e-01,3.83689e-03,9.99999e-01,9.99999e-01,3.83689e-03,9.99999e-01
5.728177114e-01,4.28254e-03,9.99999e-01,9.99999e-01,4.28254e-03,9.99999e-01
5.756818000e-01,4.76960e-03,9.99999e-01,9.99999e-01,4.76960e-03,9.99999e-01
5.785602090e-01,5.30075e-03,9.99999e-01,9.99999e-01,5.30075e-03,9.99999e-01
5.814530100e-01,5.87878e-03,9.99999e-01,9.99999e-01,5.87878e-03,9.99999e-01
5.843602750e-01,6.50653e-03,9.99999e-01,9.99999e-01,6.50653e-03,9.99999e-01
5.872820764e-01,7.18689e-03,9.99999e-01,9.99999e-01,7.18689e-03,9.99999e-01
5.902184868e-01,7.92282e-03,9.99999e-01,9.99999e-01,7.92282e-03,9.99999e-01
5.931695792e-01,8.71730e-03,9.99999e-01,9.99999e-01,8.71730e-03,9.99999e-01
5.961354271e-01,9.57336e-03,9.99999e-01,9.99999e-01,9.57336e-03,9.99999e-01
5.991161043e-01,1.04941e-02,9.99999e-01,9.99999e-01,1.04941e-02,9.99999e-01
6.021116848e-01,1.14825e-02,9.99999e-01,9.99999e-01,1.14825e-02,9.99999e-01
6.051222432e-01,1.25416e-02,9.99999e-01,9.99999e-01,1.25416e-02,9.99999e-01
6.081478544e-01,1.36746e-02,9.99999e-01,9.99999e-01,1.36746e-02,9.99999e-01
6.111885937e-01,1.48846e-02,9.99999e-01,9.99999e-01,1.48846e-02,9.99999e-01
6.142445367e-01,1.61744e-02,9.99999e-01,9.99999e-01,1.61744e-02,9.99999e-01
6.173157594e-01,1.75473e-02,9.99999e-01,9.99999e-01,1.75473e-02,9.99999e-01
6.204023382e-01,1.90060e-02,9.99999e-01,9.99999e-01,1.90060e-02,9.99999e-01
6.235043498e-01,2.05535e-02,9.99999e-01,9.99999e-01,2.05535e-02,9.99999e-01
6.266218716e-01,2.21928e-02,9.99999e-01,9.99999e-01,2.21928e-02,9.99999e-01
6.297549810e-01,2.39264e-02,9.99999e-01,9.99999e-01,2.39264e-02,9.99999e-01
6.329037559e-01,2.57572e-02,9.99999e-01,9.99999e-01,2.57572e-02,9.99999e-01
6.360682746e-01,2.76878e-02,9.99999e-01,9.99999e-01,2.76878e-02,9.99999e-01
6.392486160e-01,2.97205e-02,9.99999e-01,9.99999e-01,2.97205e-02,9.99999e-01
6.424448591e-01,3.18579e-02,9.99999e-01,9.99999e-01,3.18579e-02,9.99999e-01
6.456570834e-01,3.41022e-02,9.99999e-01,9.99999e-01,3.41022e-02,9.99999e-01
6.488853688e-01,3.64555e-02,9.99999e-01,9.99999e-01,3.64555e-02,9.99999e-01
6.521297956e-01,3.89200e-02,9.99999e-01,9.99999e-01,3.89200e-02,9.99999e-01
6.553904446e-01,4.14973e-02,9.99999e-01,9.99999e-01,4.14973e-02,9.99999e-01
6.586673968e-01,4.41893e-02,9.99999e-01,9.99999e-01,4.41893e-02,9.99999e-01
6.619607338e-01,4.69976e-02,9.99999e-01,9.99999e-01,4.69976e-02,9.99999e-01
6.652705375e-01,4.99236e-02,9.99999e-01,9.99999e-01,4.99236e-02,9.99999e-01
6.685968902e-01,5.29685e-02,9.99999e-01,9.99999e-01,5.29685e-02,9.99999e-01
6.719398746e-01,5.61334e-02,9.99999e-01,9.99999e-01,5.61334e-02,9.99999e-01
6.752995740e-01,5.94192e-02,9.99999e-01,9.99999e-01,5.94192e-02,9.99999e-01
6.786760719e-01,6.28268e-02,9.99999e-01,9.99999e-01,6.28268e-02,9.99999e-01
6.820694522e-01,6.63567e-02,9.99999e-01,9.99999e-01,6.63567e-02,9.99999e-01
6.854797995e-01,7.00092e-02,9.99999e-01,9.99999e-01,7.00092e-02,9.99999e-01
6.889071985e-01,7.37847e-02,9.99999e-01,9.99999e-01,7.37847e-02,9.99999e-01
6.923517345e-01,7.76831e-02,9.99999e-01,9.99999e-01,7.76831e-02,9.99999e-01
6.958134932e-01,8.17044e-02,9.99999e-01,9.99999e-01,8.17044e-02,9.99999e-01
6.992925606e-01,8.58482e-02,9.99999e-01,9.99999e-01,8.58482e-02,9.99999e-01
7.027890234e-01,9.01141e-02,9.99999e-01,9.99999e-01,9.01141e-02,9.99999e-01
7.063029686e-01,9.45014e-02,9.99999e-01,9.99999e-01,9.45014e-02,9.99999e-01
7.098344834e-01,9.90093e-02,9.99999e-01,9.99999e-01,9.90093e-02,9.99999e-01
7.133836558e-01,1.03637e-01,9.99999e-01,9.99999e-01,1.03637e-01,9.99999e-01
7.169505741e-01,1.08383e-01,9.99999e-01,9.99999e-01,1.08383e-01,9.99999e-01
7.205353270e-01,1.13246e-01,9.99999e-01,9.99999e-01,1.13246e-01,9.99999e-01
7.241380036e-01,1.18224e-01,9.99999e-01,9.99999e-01,1.18224e-01,9.99999e-01
7.277586936e-01,1.23317e-01,9.99999e-01,9.99999e-01,1.23317e-01,9.99999e-01
7.313974871e-01,1.28522e-01,9.99999e-01,9.99999e-01,1.28522e-01,9.99999e-01
7.350544745e-01,1.33838e-01,9.99999e-01,9.99999e-01,1.33838e-01,9.99999e-01
7.387297469e-01,1.39261e-01,9.99999e-01,9.99999e-01,1.39261e-01,9.99999e-01
7.424233956e-01,1.44791e-01,9.99999e-01,9.99999e-01,1.44791e-01,9.99999e-01
7.461355126e-01,1.50425e-01,9.99999e-01,9.99999e-01,1.50425e-01,9.99999e-01
7.498661902e-01,1.56160e-01,9.99999e-01,9.99999e-01,1.56160e-01,9.99999e-01
7.536155211e-01,1.61994e-01,9.99999e-01,9.99999e-01,1.61994e-01,9.99999e-01
7.573835987e-01,1.67924e-01,9.99999e-01,9.99999e-01,1.67924e-01,9.99999e-01
7.611705167e-01,1.73948e-01,9.99999e-01,9.99999e-01,1.73948e-01,9.99999e-01
7.649763693e-01,1.80062e-01,9.99999e-01,9.99999e-01,1.80062e-01,9.99999e-01
7.688012511e-01,1.86264e-01,9.99999e-01,9.99999e-01,1.86264e-01,9.99999e-01
7.726452574e-01,1.92551e-01,9.99999e-01,9.99999e-01,1.92551e-01,9.99999e-01
7.765084837e-01,1.98920e-01,9.99999e-01,9.99999e-01,1.98920e-01,9.99999e-01
7.803910261e-01,1.91768e-01,9.99999e-01,9.33779e-01,2.05367e-01,9.99999e-01
7.842929812e-01,1.53366e-01,9.99999e-01,7.23799e-01,2.11890e-01,9.99999e-01
7.882144461e-01,1.55006e-01,9.99999e-01,7.09460e-01,2.18485e-01,9.99999e-01
7.921555184e-01,1.83094e-01,9.99999e-01,8.13215e-01,2.25148e-01,9.99999e-01
7.961162960e-01,2.01715e-01,9.99999e-01,8.69917e-01,2.31878e-01,9.99999e-01
8.000968774e-01,2.21291e-01,9.99999e-01,9.27183e-01,2.38670e-01,9.99999e-01
8.040973618e-01,2.36080e-01,9.99999e-01,9.61551e-01,2.45520e-01,9.99999e-01
8.081178486e-01,2.47922e-01,9.99999e-01,9.82155e-01,2.52426e-01,9.99999e-01
8.121584379e-01,2.57946e-01,9.99999e-01,9.94455e-01,2.59384e-01,9.99999e-01
8.162192301e-01,2.66064e-01,9.99999e-01,9.98773e-01,2.66391e-01,9.99999e-01
8.203003262e-01,2.73438e-01,9.99999e-01,9.99981e-01,2.73443e-01,9.99999e-01
8.244018279e-01,2.80537e-01,9.99999e-01,9.99999e-01,2.80537e-01,9.99999e-01
8.285238370e-01,2.87670e-01,9.99999e-01,9.99999e-01,2.87670e-01,9.99999e-01
8.326664562e-01,2.94837e-01,9.99999e-01,9.99999e-01,2.94837e-01,9.99999e-01
8.368297885e-01,3.02036e-01,9.99999e-01,9.99999e-01,3.02036e-01,9.99999e-01
8.410139374e-01,3.09264e-01,9.99999e-01,9.99999e-01,3.09264e-01,9.99999e-01
8.452190071e-01,3.16517e-01,9.99999e-01,9.99999e-01,3.16517e-01,9.99999e-01
8.494451021e-01,3.23791e-01,9.99999e-01,9.99999e-01,3.23791e-01,9.99999e-01
8.536923276e-01,3.31084e-01,9.99999e-01,9.99999e-01,3.31084e-01,9.99999e-01
8.579607893e-01,3.38393e-01,9.99999e-01,9.99999e-01,3.38393e-01,9.99999e-01
8.622505932e-01,3.45713e-01,9.99999e-01,9.99999e-01,3.45713e-01,9.99999e-01
8.665618462e-01,3.13199e-01,9.99999e-01,8.87140e-01,3.53043e-01,9.99999e-01
8.708946554e-01,1.61404e-01,9.99999e-01,4.47872e-01,3.60379e-01,9.99999e-01
8.752491287e-01,1.89852e-01,9.99999e-01,5.16298e-01,3.67717e-01,9.99999e-01
8.796253743e-01,2.59218e-01,9.99999e-01,6.91143e-01,3.75056e-01,9.99999e-01
8.840235012e-01,3.15061e-01,9.99999e-01,8.23922e-01,3.82392e-01,9.99999e-01
8.884436187e-01,3.60974e-01,9.99999e-01,9.26234e-01,3.89722e-01,9.99999e-01
8.928858368e-01,3.84893e-01,9.99999e-01,9.69396e-01,3.97044e-01,9.99999e-01
8.973502660e-01,4.01315e-01,9.99999e-01,9.92480e-01,4.04355e-01,9.99999e-01
9.018370173e-01,4.11310e-01,9.99999e-01,9.99168e-01,4.11652e-01,9.99999e-01
9.063462024e-01,4.10173e-01,9.99999e-01,9.79091e-01,4.18933e-01,9.99999e-01
9.108779334e-01,4.05823e-01,9.99999e-01,9.52201e-01,4.26194e-01,9.99999e-01
9.154323231e-01,4.28479e-01,9.99999e-01,9.88565e-01,4.33435e-01,9.99999e-01
9.200094847e-01,3.77566e-01,9.99999e-01,8.56835e-01,4.40652e-01,9.99999e-01
9.246095321e-01,3.52685e-01,9.99999e-01,7.87519e-01,4.47843e-01,9.99999e-01
9.292325798e-01,3.78093e-01,9.99999e-01,8.30962e-01,4.55006e-01,9.99999e-01
9.338787427e-01,3.85896e-01,9.99999e-01,8.35023e-01,4.62138e-01,9.99999e-01
9.385481364e-01,4.10743e-01,9.99999e-01,8.75340e-01,4.69238e-01,9.99999e-01
9.432408771e-01,4.38907e-01,9.99999e-01,9.21484e-01,4.76304e-01,9.99999e-01
9.479570815e-01,4.63467e-01,9.99999e-01,9.58896e-01,4.83333e-01,9.99999e-01
9.526968669e-01,4.80508e-01,9.99999e-01,9.79978e-01,4.90324e-01,9.99999e-01
9.574603512e-01,4.92992e-01,9.99999e-01,9.91385e-01,4.97276e-01,9.99999e-01
9.622476530e-01,5.02827e-01,9.99999e-01,9.97305e-01,5.04185e-01,9.99999e-01
9.670588912e-01,5.10639e-01,9.99999e-01,9.99191e-01,5.11052e-01,9.99999e-01
9.718941857e-01,5.17844e-01,9.99999e-01,9.99942e-01,5.17873e-01,9.99999e-01
9.767536566e-01,5.24648e-01,9.99999e-01,9.99999e-01,5.24648e-01,9.99999e-01
9.816374249e-01,5.31375e-01,9.99999e-01,9.99999e-01,5.31375e-01,9.99999e-01
9.865456120e-01,5.38053e-01,9.99999e-01,9.99999e-01,5.38053e-01,9.99999e-01
9.914783401e-01,5.44681e-01,9.99999e-01,9.99999e-01,5.44681e-01,9.99999e-01
9.964357318e-01,5.51257e-01,9.99999e-01,9.99999e-01,5.51257e-01,9.99999e-01
1.001417910e+00,5.57780e-01,9.99999e-01,9.99999e-01,5.57780e-01,9.99999e-01
1.006425000e+00,5.64249e-01,9.99999e-01,9.99999e-01,5.64249e-01,9.99999e-01
1.011457125e+00,5.70663e-01,9.99999e-01,9.99999e-01,5.70663e-01,9.99999e-01
1.016514411e+00,5.77022e-01,9.99999e-01,9.99999e-01,5.77022e-01,9.99999e-01
1.021596983e+00,5.83258e-01,9.99999e-01,9.99887e-01,5.83323e-01,9.99999e-01
1.026704968e+00,5.84697e-01,9.99999e-01,9.91739e-01,5.89567e-01,9.99999e-01
1.031838492e+00,5.50767e-01,9.99999e-01,9.24489e-01,5.95752e-01,9.99999e-01
1.036997685e+00,4.39637e-02,9.99999e-01,7.30441e-02,6.01878e-01,9.99999e-01
1.042182673e+00,8.43807e-03,9.99999e-01,1.38797e-02,6.07944e-01,9.99999e-01
1.047393587e+00,1.69947e-02,9.99999e-01,2.76808e-02,6.13950e-01,9.99999e-01
1.052630555e+00,1.77290e-05,9.99999e-01,2.86000e-05,6.19895e-01,9.99999e-01
1.057893707e+00,6.35169e-05,9.99999e-01,1.01501e-04,6.25778e-01,9.99999e-01
1.063183176e+00,6.69029e-04,9.99999e-01,1.05926e-03,6.31599e-01,9.99999e-01
1.068499092e+00,4.19136e-03,9.99999e-01,6.57615e-03,6.37357e-01,9.99999e-01
1.073841587e+00,2.59602e-02,9.99999e-01,4.03702e-02,6.43053e-01,9.99999e-01
1.079210795e+00,8.55301e-02,9.99999e-01,1.31851e-01,6.48686e-01,9.99999e-01
1.084606849e+00,2.09928e-01,9.99999e-01,3.20864e-01,6.54255e-01,9.99999e-01
1.090029883e+00,3.64421e-01,9.99999e-01,5.52353e-01,6.59761e-01,9.99999e-01
1.095480033e+00,4.96171e-01,9.99999e-01,7.45893e-01,6.65203e-01,9.99999e-01
1.100957433e+00,5.81990e-01,9.99999e-01,8.67889e-01,6.70581e-01,9.99999e-01
1.106462220e+00,6.37394e-01,9.99999e-01,9.43035e-01,6.75895e-01,9.99999e-01
1.111994531e+00,6.66487e-01,9.99999e-01,9.78480e-01,6.81145e-01,9.99999e-01
1.117554504e+00,6.82697e-01,9.99999e-01,9.94704e-01,6.86331e-01,9.99999e-01
1.123142276e+00,6.91212e-01,9.99999e-01,9.99651e-01,6.91453e-01,9.99999e-01
1.128757988e+00,6.96510e-01,9.99999e-01,9.99999e-01,6.96510e-01,9.99999e-01
1.134401778e+00,7.01504e-01,9.99999e-01,9.99999e-01,7.01504e-01,9.99999e-01
1.140073787e+00,7.06434e-01,9.99999e-01,9.99999e-01,7.06434e-01,9.99999e-01
1.145774156e+00,7.11300e-01,9.99999e-01,9.99999e-01,7.11300e-01,9.99999e-01
1.151503026e+00,7.16102e-01,9.99999e-01,9.99999e-01,7.16102e-01,9.99999e-01
1.157260541e+00,7.20841e-01,9.99999e-01,9.99999e-01,7.20841e-01,9.99999e-01
1.163046844e+00,7.25517e-01,9.99999e-01,9.99999e-01,7.25517e-01,9.99999e-01
1.168862078e+00,7.30130e-01,9.99999e-01,9.99999e-01,7.30130e-01,9.99999e-01
1.174706389e+00,7.34680e-01,9.99999e-01,9.99999e-01,7.34680e-01,9.99999e-01
1.180579921e+00,7.39168e-01,9.99999e-01,9.99999e-01,7.39168e-01,9.99999e-01
1.186482820e+00,7.43583e-01,9.99999e-01,9.99984e-01,7.43594e-01,9.99999e-01
1.192415234e+00,7.26546e-01,9.99999e-01,9.71372e-01,7.47958e-01,9.99999e-01
1.198377311e+00,4.02552e-01,9.99999e-01,5.35122e-01,7.52261e-01,9.99999e-01
1.204369197e+00,3.90433e-22,9.99999e-01,5.16103e-22,7.56503e-01,9.99999e-01
1.210391043e+00,1.10578e-87,9.99999e-01,1.45366e-87,7.60684e-01,9.99999e-01
1.216442998e+00,5.81345e-76,9.99999e-01,7.60120e-76,7.64805e-01,9.99999e-01
1.222525213e+00,7.85842e-75,9.99999e-01,1.02208e-74,7.68866e-01,9.99999e-01
1.228637839e+00,7.85703e-58,9.99999e-01,1.01660e-57,7.72869e-01,9.99999e-01
1.234781029e+00,3.03967e-36,9.99999e-01,3.91300e-36,7.76812e-01,9.99999e-01
1.240954934e+00,3.59010e-24,9.99999e-01,4.59858e-24,7.80697e-01,9.99999e-01
1.247159708e+00,5.12579e-12,9.99999e-01,6.53362e-12,7.84524e-01,9.99999e-01
1.253395507e+00,4.16726e-08,9.99999e-01,5.28643e-08,7.88293e-01,9.99999e-01
1.259662485e+00,5.59461e-05,9.99999e-01,7.06383e-05,7.92006e-01,9.99999e-01
1.265960797e+00,3.70049e-03,9.99999e-01,4.65083e-03,7.95662e-01,9.99999e-01
1.272290601e+00,7.03510e-02,9.99999e-01,8.80198e-02,7.99263e-01,9.99999e-01
1.278652054e+00,6.15237e-02,9.99999e-01,7.66356e-02,8.02808e-01,9.99999e-01
1.285045314e+00,2.10194e-04,9.99999e-01,2.60690e-04,8.06299e-01,9.99999e-01
1.291470541e+00,1.08863e-10,9.99999e-01,1.34443e-10,8.09735e-01,9.99999e-01
1.297927893e+00,5.51691e-05,9.99999e-01,6.78487e-05,8.13118e-01,9.99999e-01
1.304417533e+00,9.43877e-03,9.99999e-01,1.15608e-02,8.16447e-01,9.99999e-01
1.310939621e+00,2.27369e-03,9.99999e-01,2.77372e-03,8.19724e-01,9.99999e-01
1.317494319e+00,3.57578e-30,9.99999e-01,4.34508e-30,8.22949e-01,9.99999e-01
1.324081790e+00,5.10632e-20,9.99999e-01,6.18106e-20,8.26123e-01,9.99999e-01
1.330702199e+00,6.76710e-12,9.99999e-01,8.16054e-12,8.29245e-01,9.99999e-01
1.337355710e+00,4.60568e-11,9.99999e-01,5.53355e-11,8.32318e-01,9.99999e-01
1.344042489e+00,2.03950e-11,9.99999e-01,2.44152e-11,8.35341e-01,9.99999e-01
1.350762701e+00,3.58563e-12,9.99999e-01,4.27719e-12,8.38315e-01,9.99999e-01
1.357516515e+00,1.06223e-07,9.99999e-01,1.26270e-07,8.41240e-01,9.99999e-01
1.364304097e+00,1.31485e-05,9.99999e-01,1.55766e-05,8.44118e-01,9.99999e-01
1.371125618e+00,2.93662e-03,9.99999e-01,3.46729e-03,8.46948e-01,9.99999e-01
1.377981246e+00,6.74900e-03,9.99999e-01,7.94250e-03,8.49732e-01,9.99999e-01
1.384871152e+00,5.09819e-02,9.99999e-01,5.98049e-02,8.52469e-01,9.99999e-01
1.391795508e+00,6.34780e-02,9.99999e-01,7.42292e-02,8.55161e-01,9.99999e-01
1.398754485e+00,1.68860e-01,9.99999e-01,1.96851e-01,8.57808e-01,9.99999e-01
1.405748258e+00,2.62171e-01,9.99999e-01,3.04704e-01,8.60411e-01,9.99999e-01
1.412776999e+00,4.05728e-01,9.99999e-01,4.70153e-01,8.62970e-01,9.99999e-01
1.419840884e+00,3.69925e-01,9.99999e-01,4.27419e-01,8.65485e-01,9.99999e-01
1.426940089e+00,1.78145e-02,9.99999e-01,2.05246e-02,8.67959e-01,9.99999e-01
1.434074789e+00,0.00000e+00,9.99999e-01,0.00000e+00,8.70390e-01,9.99999e-01
1.441245163e+00,0.00000e+00,9.99999e-01,0.00000e+00,8.72780e-01,9.99999e-01
1.448451389e+00,0.00000e+00,9.99999e-01,0.00000e+00,8.75129e-01,9.99999e-01
1.455693646e+00,0.00000e+00,9.99999e-01,0.00000e+00,8.77437e-01,9.99999e-01
1.462972114e+00,0.00000e+00,9.99999e-01,0.00000e+00,8.79706e-01,9.99999e-01
1.470286975e+00,6.21317e-145,9.99999e-01,7.04492e-145,8.81936e-01,9.99999e-01
