#,Wave/freq,Total,O2,CO2,Rayleigh,CIA
4.000000000e-01,1.18008e-11,9.99999e-01,9.99999e-01,1.18008e-11,9.99999e-01
4.020000000e-01,1.94086e-11,9.99999e-01,9.99999e-01,1.94086e-11,9.99999e-01
4.040100000e-01,3.15923e-11,9.99999e-01,9.99999e-01,3.15923e-11,9.99999e-01
4.060300500e-01,5.09320e-11,9.99999e-01,9.99999e-01,5.09320e-11,9.99999e-01
4.080602003e-01,8.13399e-11,9.99999e-01,9.99999e-01,8.13399e-11,9.99999e-01
4.101005013e-01,1.28706e-10,9.99999e-01,9.99999e-01,1.28706e-10,9.99999e-01
4.121510038e-01,2.01818e-10,9.99999e-01,9.99999e-01,2.01818e-10,9.99999e-01
4.142117588e-01,3.13661e-10,9.99999e-01,9.99999e-01,3.13661e-10,9.99999e-01
4.162828176e-01,4.83258e-10,9.99999e-01,9.99999e-01,4.83258e-10,9.99999e-01
4.183642317e-01,7.38227e-10,9.99999e-01,9.99999e-01,7.38227e-10,9.99999e-01
4.204560528e-01,1.11832e-09,9.99999e-01,9.99999e-01,1.11832e-09,9.99999e-01
4.225583331e-01,1.68027e-09,9.99999e-01,9.99999e-01,1.68027e-09,9.99999e-01
4.246711247e-01,2.50437e-09,9.99999e-01,9.99999e-01,2.50437e-09,9.99999e-01
4.267944804e-01,3.70336e-09,9.99999e-01,9.99999e-01,3.70336e-09,9.99999e-01
4.289284528e-01,5.43422e-09,9.99999e-01,9.99999e-01,5.43422e-09,9.99999e-01
4.310730950e-01,7.91387e-09,9.99999e-01,9.99999e-01,7.91387e-09,9.99999e-01
4.332284605e-01,1.14397e-08,9.99999e-01,9.99999e-01,1.14397e-08,9.99999e-01
4.353946028e-01,1.64165e-08,9.99999e-01,9.99999e-01,1.64165e-08,9.99999e-01
4.375715758e-01,2.33910e-08,9.99999e-01,9.99999e-01,2.33910e-08,9.99999e-01
4.397594337e-01,3.30963e-08,9.99999e-01,9.99999e-01,3.30963e-08,9.99999e-01
4.419582309e-01,4.65085e-08,9.99999e-01,9.99999e-01,4.65085e-08,9.99999e-01
4.441680220e-01,6.49182e-08,9.99999e-01,9.99999e-01,6.49182e-08,9.99999e-01
4.463888621e-01,9.00203e-08,9.99999e-01,9.99999e-01,9.00203e-08,9.99999e-01
4.486208064e-01,1.24025e-07,9.99999e-01,9.99999e-01,1.24025e-07,9.99999e-01
4.508639105e-01,1.69797e-07,9.99999e-01,9.99999e-01,1.69797e-07,9.99999e-01
4.531182300e-01,2.31023e-07,9.99999e-01,9.99999e-01,2.31023e-07,9.99999e-01
4.553838212e-01,3.12421e-07,9.99999e-01,9.99999e-01,3.12421e-07,9.99999e-01
4.576607403e-01,4.19986e-07,9.99999e-01,9.99999e-01,4.19986e-07,9.99999e-01
4.599490440e-01,5.61296e-07,9.99999e-01,9.99999e-01,5.61296e-07,9.99999e-01
4.622487892e-01,7.45866e-07,9.99999e-01,9.99999e-01,7.45866e-07,9.99999e-01
4.645600332e-01,9.85577e-07,9.99999e-01,9.99999e-01,9.85577e-07,9.99999e-01
4.668828333e-01,1.29518e-06,9.99999e-01,9.99999e-01,1.29518e-06,9.99999e-01
4.692172475e-01,1.69288e-06,9.99999e-01,9.99999e-01,1.69288e-06,9.99999e-01
4.715633337e-01,2.20103e-06,9.99999e-01,9.99999e-01,2.20103e-06,9.99999e-01
4.739211504e-01,2.84690e-06,9.99999e-01,9.99999e-01,2.84690e-06,9.99999e-01
4.762907561e-01,3.66364e-06,9.99999e-01,9.99999e-01,3.66364e-06,9.99999e-01
4.786722099e-01,4.69125e-06,9.99999e-01,9.99999e-01,4.69125e-06,9.99999e-01
4.810655710e-01,5.97783e-06,9.99999e-01,9.99999e-01,5.97783e-06,9.99999e-01
4.834708988e-01,7.58088e-06,9.99999e-01,9.99999e-01,7.58088e-06,9.99999e-01
4.858882533e-01,9.56881e-06,9.99999e-01,9.99999e-01,9.56881e-06,9.99999e-01
4.883176946e-01,1.20226e-05,9.99999e-01,9.99999e-01,1.20226e-05,9.99999e-01
4.907592831e-01,1.50377e-05,9.99999e-01,9.99999e-01,1.50377e-05,9.99999e-01
4.932130795e-01,1.87259e-05,9.99999e-01,9.99999e-01,1.87259e-05,9.99999e-01
4.956791449e-01,2.32180e-05,9.99999e-01,9.99999e-01,2.32180e-05,9.99999e-01
4.981575406e-01,2.86656e-05,9.99999e-01,9.99999e-01,2.86656e-05,9.99999e-01
5.006483283e-01,3.52443e-05,9.99999e-01,9.99999e-01,3.52443e-05,9.99999e-01
5.031515699e-01,4.31564e-05,9.99999e-01,9.99999e-01,4.31564e-05,9.99999e-01
5.056673278e-01,5.26337e-05,9.99999e-01,9.99999e-01,5.26337e-05,9.99999e-01
5.081956644e-01,6.39410e-05,9.99999e-01,9.99999e-01,6.39410e-05,9.99999e-01
5.107366428e-01,7.73795e-05,9.99999e-01,9.99999e-01,7.73795e-05,9.99999e-01
5.132903260e-01,9.32901e-05,9.99999e-01,9.99999e-01,9.32901e-05,9.99999e-01
5.158567776e-01,1.12058e-04,9.99999e-01,9.99999e-01,1.12058e-04,9.99999e-01
5.184360615e-01,1.34114e-04,9.99999e-01,9.99999e-01,1.34114e-04,9.99999e-01
5.210282418e-01,1.59943e-04,9.99999e-01,9.99999e-01,1.59943e-04,9.99999e-01
5.236333830e-01,1.90085e-04,9.99999e-01,9.99999e-01,1.90085e-04,9.99999e-01
5.262515499e-01,2.25137e-04,9.99999e-01,9.99999e-01,2.25137e-04,9.99999e-01
5.288828077e-01,2.65764e-04,9.99999e-01,9.99999e-01,2.65764e-04,9.99999e-01
5.315272217e-01,3.12695e-04,9.99999e-01,9.99999e-01,3.12695e-04,9.99999e-01
5.341848578e-01,3.66734e-04,9.99999e-01,9.99999e-01,3.66734e-04,9.99999e-01
5.368557821e-01,4.28759e-04,9.99999e-01,9.99999e-01,4.28759e-04,9.99999e-01
5.395400610e-01,4.99730e-04,9.99999e-01,9.99999e-01,4.99730e-04,9.99999e-01
5.422377613e-01,5.80689e-04,9.99999e-01,9.99999e-01,5.80689e-04,9.99999e-01
5.449489501e-01,6.72766e-04,9.99999e-01,9.99999e-01,6.72766e-04,9.99999e-01
5.476736949e-01,7.77180e-04,9.99999e-01,9.99999e-01,7.77180e-04,9.99999e-01
5.504120634e-01,8.95244e-04,9.99999e-01,9.99999e-01,8.95244e-04,9.99999e-01
5.531641237e-01,1.02837e-03,9.99999e-01,9.99999e-01,1.02837e-03,9.99999e-01
5.559299443e-01,1.17805e-03,9.99999e-01,9.99999e-01,1.17805e-03,9.99999e-01
5.587095940e-01,1.34591e-03,9.99999e-01,9.99999e-01,1.34591e-03,9.99999e-01
5.615031420e-01,1.53365e-03,9.99999e-01,9.99999e-01,1.53365e-03,9.99999e-01
5.643106577e-01,1.74307e-03,9.99999e-01,9.99999e-01,1.74307e-03,9.99999e-01
5.671322110e-01,1.97609e-03,9.99999e-01,9.99999e-01,1.97609e-03,9.99999e-01
5.699678720e-01,2.23471e-03,9.99999e-01,9.99999e-01,2.23471e-03,9.99999e-01
5.728177114e-01,2.52104e-03,9.99999e-01,9.99999e-01,2.52104e-03,9.99999e-01
5.756818000e-01,2.83730e-03,9.99999e-01,9.99999e-01,2.83730e-03,9.99999e-01
5.785602090e-01,3.18579e-03,9.99999e-01,9.99999e-01,3.18579e-03,9.99999e-01
5.814530100e-01,3.56890e-03,9.99999e-01,9.99999e-01,3.56890e-03,9.99999e-01
5.843602750e-01,3.98913e-03,9.99999e-01,9.99999e-01,3.98913e-03,9.99999e-01
5.872820764e-01,4.44904e-03,9.99999e-01,9.99999e-01,4.44904e-03,9.99999e-01
5.902184868e-01,4.95130e-03,9.99999e-01,9.99999e-01,4.95130e-03,9.99999e-01
5.931695792e-01,5.49862e-03,9.99999e-01,9.99999e-01,5.49862e-03,9.99999e-01
5.961354271e-01,6.09382e-03,9.99999e-01,9.99999e-01,6.09382e-03,9.99999e-01
5.991161043e-01,6.73974e-03,9.99999e-01,9.99999e-01,6.73974e-03,9.99999e-01
6.021116848e-01,7.43932e-03,9.99999e-01,9.99999e-01,7.43932e-03,9.99999e-01
6.051222432e-01,8.19550e-03,9.99999e-01,9.99999e-01,8.19550e-03,9.99999e-01
6.081478544e-01,9.01130e-03,9.99999e-01,9.99999e-01,9.01130e-03,9.99999e-01
6.111885937e-01,9.88976e-03,9.99999e-01,9.99999e-01,9.88976e-03,9.99999e-01
6.142445367e-01,1.08339e-02,9.99999e-01,9.99999e-01,1.08339e-02,9.99999e-01
6.173157594e-01,1.18469e-02,9.99999e-01,9.99999e-01,1.18469e-02,9.99999e-01
6.204023382e-01,1.29317e-02,9.99999e-01,9.99999e-01,1.29317e-02,9.99999e-01
6.235043498e-01,1.40914e-02,9.99999e-01,9.99999e-01,1.40914e-02,9.99999e-01
6.266218716e-01,1.53291e-02,9.99999e-01,9.99999e-01,1.53291e-02,9.99999e-01
6.297549810e-01,1.66478e-02,9.99999e-01,9.99999e-01,1.66478e-02,9.99999e-01
6.329037559e-01,1.80505e-02,9.99999e-01,9.99999e-01,1.80505e-02,9.99999e-01
6.360682746e-01,1.95402e-02,9.99999e-01,9.99999e-01,1.95402e-02,9.99999e-01
6.392486160e-01,2.11197e-02,9.99999e-01,9.99999e-01,2.11197e-02,9.99999e-01
6.424448591e-01,2.27918e-02,9.99999e-01,9.99999e-01,2.27918e-02,9.99999e-01
6.456570834e-01,2.45593e-02,9.99999e-01,9.99999e-01,2.45593e-02,9.99999e-01
6.488853688e-01,2.64249e-02,9.99999e-01,9.99999e-01,2.64249e-02,9.99999e-01
6.521297956e-01,2.83911e-02,9.99999e-01,9.99999e-01,2.83911e-02,9.99999e-01
6.553904446e-01,3.04604e-02,9.99999e-01,9.99999e-01,3.04604e-02,9.99999e-01
6.586673968e-01,3.26352e-02,9.99999e-01,9.99999e-01,3.26352e-02,9.99999e-01
6.619607338e-01,3.49176e-02,9.99999e-01,9.99999e-01,3.49176e-02,9.99999e-01
6.652705375e-01,3.73098e-02,9.99999e-01,9.99999e-01,3.73098e-02,9.99999e-01
6.685968902e-01,3.98138e-02,9.99999e-01,9.99999e-01,3.98138e-02,9.99999e-01
6.719398746e-01,4.24313e-02,9.99999e-01,9.99999e-01,4.24313e-02,9.99999e-01
6.752995740e-01,4.51640e-02,9.99999e-01,9.99999e-01,4.51640e-02,9.99999e-01
6.786760719e-01,4.80135e-02,9.99999e-01,9.99999e-01,4.80135e-02,9.99999e-01
6.820694522e-01,5.09812e-02,9.99999e-01,9.99999e-01,5.09812e-02,9.99999e-01
6.854797995e-01,5.40682e-02,9.99999e-01,9.99999e-01,5.40682e-02,9.99999e-01
6.889071985e-01,5.72756e-02,9.99999e-01,9.99999e-01,5.72756e-02,9.99999e-01
6.923517345e-01,6.06042e-02,9.99999e-01,9.99999e-01,6.06042e-02,9.99999e-01
6.958134932e-01,6.40547e-02,9.99999e-01,9.99999e-01,6.40547e-02,9.99999e-01
6.992925606e-01,6.76277e-02,9.99999e-01,9.99999e-01,6.76277e-02,9.99999e-01
7.027890234e-01,7.13235e-02,9.99999e-01,9.99999e-01,7.13235e-02,9.99999e-01
7.063029686e-01,7.51422e-02,9.99999e-01,9.99999e-01,7.51422e-02,9.99999e-01
7.098344834e-01,7.90839e-02,9.99999e-01,9.99999e-01,7.90839e-02,9.99999e-01
7.133836558e-01,8.31484e-02,9.99999e-01,9.99999e-01,8.31484e-02,9.99999e-01
7.169505741e-01,8.73352e-02,9.99999e-01,9.99999e-01,8.73352e-02,9.99999e-01
7.205353270e-01,9.16439e-02,9.99999e-01,9.99999e-01,9.16439e-02,9.99999e-01
7.241380036e-01,9.60737e-02,9.99999e-01,9.99999e-01,9.60737e-02,9.99999e-01
7.277586936e-01,1.00624e-01,9.99999e-01,9.99999e-01,1.00624e-01,9.99999e-01
7.313974871e-01,1.05293e-01,9.99999e-01,9.99999e-01,1.05293e-01,9.99999e-01
7.350544745e-01,1.10080e-01,9.99999e-01,9.99999e-01,1.10080e-01,9.99999e-01
7.387297469e-01,1.14984e-01,9.99999e-01,9.99999e-01,1.14984e-01,9.99999e-01
7.424233956e-01,1.20003e-01,9.99999e-01,9.99999e-01,1.20003e-01,9.99999e-01
7.461355126e-01,1.25136e-01,9.99999e-01,9.99999e-01,1.25136e-01,9.99999e-01
7.498661902e-01,1.30380e-01,9.99999e-01,9.99999e-01,1.30380e-01,9.99999e-01
7.536155211e-01,1.35733e-01,9.99999e-01,9.99999e-01,1.35733e-01,9.99999e-01
7.573835987e-01,1.41195e-01,9.99999e-01,9.99999e-01,1.41195e-01,9.99999e-01
7.611705167e-01,1.46761e-01,9.99999e-01,9.99999e-01,1.46761e-01,9.99999e-01
7.649763693e-01,1.52431e-01,9.99999e-01,9.99999e-01,1.52431e-01,9.99999e-01
7.688012511e-01,1.58201e-01,9.99999e-01,9.99999e-01,1.58201e-01,9.99999e-01
7.726452574e-01,1.64069e-01,9.99999e-01,9.99999e-01,1.64069e-01,9.99999e-01
7.765084837e-01,1.70033e-01,9.99999e-01,9.99999e-01,1.70033e-01,9.99999e-01
7.803910261e-01,1.63780e-01,9.99999e-01,9.30102e-01,1.76089e-01,9.99999e-01
7.842929812e-01,1.27956e-01,9.99999e-01,7.02152e-01,1.82234e-01,9.99999e-01
7.882144461e-01,1.29695e-01,9.99999e-01,6.88160e-01,1.88466e-01,9.99999e-01
7.921555184e-01,1.55343e-01,9.99999e-01,7.97518e-01,1.94783e-01,9.99999e-01
7.961162960e-01,1.72596e-01,9.99999e-01,8.57921e-01,2.01179e-01,9.99999e-01
8.000968774e-01,1.91097e-01,9.99999e-01,9.20266e-01,2.07653e-01,9.99999e-01
8.040973618e-01,2.05147e-01,9.99999e-01,9.57727e-01,2.14202e-01,9.99999e-01
8.081178486e-01,2.16494e-01,9.99999e-01,9.80400e-01,2.20821e-01,9.99999e-01
8.121584379e-01,2.26116e-01,9.99999e-01,9.93878e-01,2.27509e-01,9.99999e-01
8.162192301e-01,2.33943e-01,9.99999e-01,9.98644e-01,2.34260e-01,9.99999e-01
8.203003262e-01,2.41068e-01,9.99999e-01,9.99978e-01,2.41073e-01,9.99999e-01
8.244018279e-01,2.47944e-01,9.99999e-01,9.99999e-01,2.47944e-01,9.99999e-01
8.285238370e-01,2.54868e-01,9.99999e-01,9.99999e-01,2.54868e-01,9.99999e-01
8.326664562e-01,2.61844e-01,9.99999e-01,9.99999e-01,2.61844e-01,9.99999e-01
8.368297885e-01,2.68867e-01,9.99999e-01,9.99999e-01,2.68867e-01,9.99999e-01
8.410139374e-01,2.75934e-01,9.99999e-01,9.99999e-01,2.75934e-01,9.99999e-01
8.452190071e-01,2.83042e-01,9.99999e-01,9.99999e-01,2.83042e-01,9.99999e-01
8.494451021e-01,2.90187e-01,9.99999e-01,9.99999e-01,2.90187e-01,9.99999e-01
8.536923276e-01,2.97367e-01,9.99999e-01,9.99999e-01,2.97367e-01,9.99999e-01
8.579607893e-01,3.04576e-01,9.99999e-01,9.99999e-01,3.04576e-01,9.99999e-01
8.622505932e-01,3.11813e-01,9.99999e-01,9.99999e-01,3.11813e-01,9.99999e-01
8.665618462e-01,2.82170e-01,9.99999e-01,8.84340e-01,3.19074e-01,9.99999e-01
8.708946554e-01,1.36243e-01,9.99999e-01,4.17469e-01,3.26355e-01,9.99999e-01
8.752491287e-01,1.61948e-01,9.99999e-01,4.85376e-01,3.33654e-01,9.99999e-01
8.796253743e-01,2.27375e-01,9.99999e-01,6.66854e-01,3.40967e-01,9.99999e-01
8.840235012e-01,2.81532e-01,9.99999e-01,8.08324e-01,3.48291e-01,9.99999e-01
8.884436187e-01,3.26832e-01,9.99999e-01,9.19040e-01,3.55623e-01,9.99999e-01
8.928858368e-01,3.50754e-01,9.99999e-01,9.66368e-01,3.62960e-01,9.99999e-01
8.973502660e-01,3.67225e-01,9.99999e-01,9.91696e-01,3.70299e-01,9.99999e-01
9.018370173e-01,3.77290e-01,9.99999e-01,9.99080e-01,3.77637e-01,9.99999e-01
9.063462024e-01,3.76253e-01,9.99999e-01,9.77351e-01,3.84972e-01,9.99999e-01
9.108779334e-01,3.71737e-01,9.99999e-01,9.47583e-01,3.92299e-01,9.99999e-01
9.154323231e-01,3.94572e-01,9.99999e-01,9.87374e-01,3.99618e-01,9.99999e-01
9.200094847e-01,3.44658e-01,9.99999e-01,8.46983e-01,4.06924e-01,9.99999e-01
9.246095321e-01,3.18663e-01,9.99999e-01,7.69316e-01,4.14215e-01,9.99999e-01
9.292325798e-01,3.44423e-01,9.99999e-01,8.17155e-01,4.21490e-01,9.99999e-01
9.338787427e-01,3.51810e-01,9.99999e-01,8.20557e-01,4.28744e-01,9.99999e-01
9.385481364e-01,3.76691e-01,9.99999e-01,8.64016e-01,4.35977e-01,9.99999e-01
9.432408771e-01,4.05052e-01,9.99999e-01,9.13956e-01,4.43185e-01,9.99999e-01
9.479570815e-01,4.30066e-01,9.99999e-01,9.54924e-01,4.50366e-01,9.99999e-01
9.526968669e-01,4.47453e-01,9.99999e-01,9.78000e-01,4.57518e-01,9.99999e-01
9.574603512e-01,4.60237e-01,9.99999e-01,9.90524e-01,4.64640e-01,9.99999e-01
9.622476530e-01,4.70329e-01,9.99999e-01,9.97033e-01,4.71728e-01,9.99999e-01
9.670588912e-01,4.78355e-01,9.99999e-01,9.99109e-01,4.78781e-01,9.99999e-01
9.718941857e-01,4.85766e-01,9.99999e-01,9.99936e-01,4.85797e-01,9.99999e-01
9.767536566e-01,4.92775e-01,9.99999e-01,9.99999e-01,4.92775e-01,9.99999e-01
9.816374249e-01,4.99712e-01,9.99999e-01,9.99999e-01,4.99712e-01,9.99999e-01
9.865456120e-01,5.06606e-01,9.99999e-01,9.99999e-01,5.06606e-01,9.99999e-01
9.914783401e-01,5.13457e-01,9.99999e-01,9.99999e-01,5.13457e-01,9.99999e-01
9.964357318e-01,5.20262e-01,9.99999e-01,9.99999e-01,5.20262e-01,9.99999e-01
1.001417910e+00,5.27020e-01,9.99999e-01,9.99999e-01,5.27020e-01,9.99999e-01
1.006425000e+00,5.33731e-01,9.99999e-01,9.99999e-01,5.33731e-01,9.99999e-01
1.011457125e+00,5.40391e-01,9.99999e-01,9.99999e-01,5.40391e-01,9.99999e-01
1.016514411e+00,5.47001e-01,9.99999e-01,9.99999e-01,5.47001e-01,9.99999e-01
1.021596983e+00,5.53494e-01,9.99999e-01,9.99883e-01,5.53558e-01,9.99999e-01
1.026704968e+00,5.55050e-01,9.99999e-01,9.91049e-01,5.60062e-01,9.99999e-01
1.031838492e+00,5.22392e-01,9.99999e-01,9.22118e-01,5.66512e-01,9.99999e-01
1.036997685e+00,3.85994e-02,9.99999e-01,6.73746e-02,5.72907e-01,9.99999e-01
1.042182673e+00,5.67648e-03,9.99999e-01,9.79977e-03,5.79245e-01,9.99999e-01
1.047393587e+00,1.24478e-02,9.99999e-01,2.12591e-02,5.85526e-01,9.99999e-01
1.052630555e+00,7.66207e-06,9.99999e-01,1.29482e-05,5.91750e-01,9.99999e-01
1.057893707e+00,2.77050e-05,9.99999e-01,4.63361e-05,5.97914e-01,9.99999e-01
1.063183176e+00,3.59377e-04,9.99999e-01,5.94976e-04,6.04019e-01,9.99999e-01
1.068499092e+00,2.54703e-03,9.99999e-01,4.17501e-03,6.10064e-01,9.99999e-01
1.073841587e+00,1.84141e-02,9.99999e-01,2.98907e-02,6.16048e-01,9.99999e-01
1.079210795e+00,6.80097e-02,9.99999e-01,1.09345e-01,6.21971e-01,9.99999e-01
1.084606849e+00,1.80487e-01,9.99999e-01,2.87476e-01,6.27833e-01,9.99999e-01
1.090029883e+00,3.30369e-01,9.99999e-01,5.21388e-01,6.33632e-01,9.99999e-01
1.095480033e+00,4.63333e-01,9.99999e-01,7.24672e-01,6.39369e-01,9.99999e-01
1.100957433e+00,5.52029e-01,9.99999e-01,8.55801e-01,6.45042e-01,9.99999e-01
1.106462220e+00,6.10004e-01,9.99999e-01,9.37526e-01,6.50653e-01,9.99999e-01
1.111994531e+00,6.40683e-01,9.99999e-01,9.76352e-01,6.56200e-01,9.99999e-01
1.117554504e+00,6.57820e-01,9.99999e-01,9.94161e-01,6.61683e-01,9.99999e-01
1.123142276e+00,6.66846e-01,9.99999e-01,9.99614e-01,6.67103e-01,9.99999e-01
1.128757988e+00,6.72458e-01,9.99999e-01,9.99999e-01,6.72458e-01,9.99999e-01
1.134401778e+00,6.77750e-01,9.99999e-01,9.99999e-01,6.77750e-01,9.99999e-01
1.140073787e+00,6.82977e-01,9.99999e-01,9.99999e-01,6.82977e-01,9.99999e-01
1.145774156e+00,6.88140e-01,9.99999e-01,9.99999e-01,6.88140e-01,9.99999e-01
1.151503026e+00,6.93239e-01,9.99999e-01,9.99999e-01,6.93239e-01,9.99999e-01
1.157260541e+00,6.98275e-01,9.99999e-01,9.99999e-01,6.98275e-01,9.99999e-01
1.163046844e+00,7.03246e-01,9.99999e-01,9.99999e-01,7.03246e-01,9.99999e-01
1.168862078e+00,7.08153e-01,9.99999e-01,9.99999e-01,7.08153e-01,9.99999e-01
1.174706389e+00,7.12997e-01,9.99999e-01,9.99999e-01,7.12997e-01,9.99999e-01
1.180579921e+00,7.17777e-01,9.99999e-01,9.99999e-01,7.17777e-01,9.99999e-01
1.186482820e+00,7.22483e-01,9.99999e-01,9.99985e-01,7.22493e-01,9.99999e-01
1.192415234e+00,7.04742e-01,9.99999e-01,9.69186e-01,7.27147e-01,9.99999e-01
1.198377311e+00,3.89037e-01,9.99999e-01,5.31661e-01,7.31738e-01,9.99999e-01
1.204369197e+00,4.56346e-24,9.99999e-01,6.19810e-24,7.36266e-01,9.99999e-01
1.210391043e+00,5.56037e-96,9.99999e-01,7.50658e-96,7.40732e-01,9.99999e-01
1.216442998e+00,4.01722e-83,9.99999e-01,5.39126e-83,7.45136e-01,9.99999e-01
1.222525213e+00,6.99755e-82,9.99999e-01,9.33654e-82,7.49479e-01,9.99999e-01
1.228637839e+00,3.01453e-63,9.99999e-01,3.99931e-63,7.53760e-01,9.99999e-01
1.234781029e+00,1.51530e-39,9.99999e-01,1.99913e-39,7.57981e-01,9.99999e-01
1.240954934e+00,2.43648e-26,9.99999e-01,3.19689e-26,7.62141e-01,9.99999e-01
1.247159708e+00,5.76276e-13,9.99999e-01,7.52081e-13,7.66241e-01,9.99999e-01
1.253395507e+00,8.90166e-09,9.99999e-01,1.15564e-08,7.70281e-01,9.99999e-01
1.259662485e+00,2.35573e-05,9.99999e-01,3.04255e-05,7.74263e-01,9.99999e-01
1.265960797e+00,2.29616e-03,9.99999e-01,2.95065e-03,7.78185e-01,9.99999e-01
1.272290601e+00,4.53031e-02,9.99999e-01,5.79286e-02,7.82050e-01,9.99999e-01
1.278652054e+00,4.89857e-02,9.99999e-01,6.23341e-02,7.85856e-01,9.99999e-01
1.285045314e+00,1.54359e-04,9.99999e-01,1.95488e-04,7.89606e-01,9.99999e-01
1.291470541e+00,1.35928e-11,9.99999e-01,1.71345e-11,7.93299e-01,9.99999e-01
1.297927893e+00,2.64464e-05,9.99999e-01,3.31851e-05,7.96936e-01,9.99999e-01
1.304417533e+00,6.08020e-03,9.99999e-01,7.59534e-03,8.00517e-01,9.99999e-01
1.310939621e+00,1.52176e-03,9.99999e-01,1.89264e-03,8.04042e-01,9.99999e-01
1.317494319e+00,6.54286e-33,9.99999e-01,8.10246e-33,8.07514e-01,9.99999e-01
1.324081790e+00,9.19124e-22,9.99999e-01,1.13342e-21,8.10931e-01,9.99999e-01
1.330702199e+00,6.13102e-13,9.99999e-01,7.52923e-13,8.14295e-01,9.99999e-01
1.337355710e+00,5.56993e-12,9.99999e-01,6.81248e-12,8.17606e-01,9.99999e-01
1.344042489e+00,2.62231e-12,9.99999e-01,3.19457e-12,8.20865e-01,9.99999e-01
1.350762701e+00,3.15932e-13,9.99999e-01,3.83379e-13,8.24071e-01,9.99999e-01
1.357516515e+00,2.71845e-08,9.99999e-01,3.28622e-08,8.27227e-01,9.99999e-01
1.364304097e+00,4.65004e-06,9.99999e-01,5.60021e-06,8.30332e-01,9.99999e-01
1.371125618e+00,1.72558e-03,9.99999e-01,2.07056e-03,8.33387e-01,9.99999e-01
1.377981246e+00,4.19628e-03,9.99999e-01,5.01711e-03,8.36393e-01,9.99999e-01
1.384871152e+00,3.83848e-02,9.99999e-01,4.57316e-02,8.39350e-01,9.99999e-01
1.391795508e+00,4.87413e-02,9.99999e-01,5.78698e-02,8.42258e-01,9.99999e-01
1.398754485e+00,1.41911e-01,9.99999e-01,1.67918e-01,8.45119e-01,9.99999e-01
1.405748258e+00,2.30162e-01,9.99999e-01,2.71439e-01,8.47933e-01,9.99999e-01
1.412776999e+00,3.71282e-01,9.99999e-01,4.36443e-01,8.50700e-01,9.99999e-01
1.419840884e+00,3.43258e-01,9.99999e-01,4.02213e-01,8.53421e-01,9.99999e-01
1.426940089e+00,1.53316e-02,9.99999e-01,1.79087e-02,8.56097e-01,9.99999e-01
1.434074789e+00,0.00000e+00,9.99999e-01,0.00000e+00,8.58729e-01,9.99999e-01
1.441245163e+00,0.00000e+00,9.99999e-01,0.00000e+00,8.61316e-01,9.99999e-01
1.448451389e+00,0.00000e+00,9.99999e-01,0.00000e+00,8.63860e-01,9.99999e-01
1.455693646e+00,0.00000e+00,9.99999e-01,0.00000e+00,8.66360e-01,9.99999e-01
1.462972114e+00,0.00000e+00,9.99999e-01,0.00000e+00,8.68819e-01,9.99999e-01
1.470286975e+00,8.48065e-159,9.99999e-01,9.73404e-159,8.71235e-01,9.99999e-01
