#,Wave/freq,Total,O2,CO2,Rayleigh,CIA
4.000000000e-01,5.15301e-05,9.99999e-01,9.99999e-01,5.15301e-05,9.99999e-01
4.020000000e-01,6.26393e-05,9.99999e-01,9.99999e-01,6.26393e-05,9.99999e-01
4.040100000e-01,7.58350e-05,9.99999e-01,9.99999e-01,7.58350e-05,9.99999e-01
4.060300500e-01,9.14645e-05,9.99999e-01,9.99999e-01,9.14645e-05,9.99999e-01
4.080602003e-01,1.09908e-04,9.99999e-01,9.99999e-01,1.09908e-04,9.99999e-01
4.101005013e-01,1.31591e-04,9.99999e-01,9.99999e-01,1.31591e-04,9.99999e-01
4.121510038e-01,1.56994e-04,9.99999e-01,9.99999e-01,1.56994e-04,9.99999e-01
4.142117588e-01,1.86648e-04,9.99999e-01,9.99999e-01,1.86648e-04,9.99999e-01
4.162828176e-01,2.21146e-04,9.99999e-01,9.99999e-01,2.21146e-04,9.99999e-01
4.183642317e-01,2.61145e-04,9.99999e-01,9.99999e-01,2.61145e-04,9.99999e-01
4.204560528e-01,3.07367e-04,9.99999e-01,9.99999e-01,3.07367e-04,9.99999e-01
4.225583331e-01,3.60607e-04,9.99999e-01,9.99999e-01,3.60607e-04,9.99999e-01
4.246711247e-01,4.21737e-04,9.99999e-01,9.99999e-01,4.21737e-04,9.99999e-01
4.267944804e-01,4.91705e-04,9.99999e-01,9.99999e-01,4.91705e-04,9.99999e-01
4.289284528e-01,5.71547e-04,9.99999e-01,9.99999e-01,5.71547e-04,9.99999e-01
4.310730950e-01,6.62382e-04,9.99999e-01,9.99999e-01,6.62382e-04,9.99999e-01
4.332284605e-01,7.65419e-04,9.99999e-01,9.99999e-01,7.65419e-04,9.99999e-01
4.353946028e-01,8.81962e-04,9.99999e-01,9.99999e-01,8.81962e-04,9.99999e-01
4.375715758e-01,1.01341e-03,9.99999e-01,9.99999e-01,1.01341e-03,9.99999e-01
4.397594337e-01,1.16126e-03,9.99999e-01,9.99999e-01,1.16126e-03,9.99999e-01
4.419582309e-01,1.32710e-03,9.99999e-01,9.99999e-01,1.32710e-03,9.99999e-01
4.441680220e-01,1.51263e-03,9.99999e-01,9.99999e-01,1.51263e-03,9.99999e-01
4.463888621e-01,1.71965e-03,9.99999e-01,9.99999e-01,1.71965e-03,9.99999e-01
4.486208064e-01,1.95006e-03,9.99999e-01,9.99999e-01,1.95006e-03,9.99999e-01
4.508639105e-01,2.20585e-03,9.99999e-01,9.99999e-01,2.20585e-03,9.99999e-01
4.531182300e-01,2.48912e-03,9.99999e-01,9.99999e-01,2.48912e-03,9.99999e-01
4.553838212e-01,2.80208e-03,9.99999e-01,9.99999e-01,2.80208e-03,9.99999e-01
4.576607403e-01,3.14702e-03,9.99999e-01,9.99999e-01,3.14702e-03,9.99999e-01
4.599490440e-01,3.52632e-03,9.99999e-01,9.99999e-01,3.52632e-03,9.99999e-01
4.622487892e-01,3.94247e-03,9.99999e-01,9.99999e-01,3.94247e-03,9.99999e-01
4.645600332e-01,4.39803e-03,9.99999e-01,9.99999e-01,4.39803e-03,9.99999e-01
4.668828333e-01,4.89564e-03,9.99999e-01,9.99999e-01,4.89564e-03,9.99999e-01
4.692172475e-01,5.43803e-03,9.99999e-01,9.99999e-01,5.43803e-03,9.99999e-01
4.715633337e-01,6.02798e-03,9.99999e-01,9.99999e-01,6.02798e-03,9.99999e-01
4.739211504e-01,6.66836e-03,9.99999e-01,9.99999e-01,6.66836e-03,9.99999e-01
4.762907561e-01,7.36207e-03,9.99999e-01,9.99999e-01,7.36207e-03,9.99999e-01
4.786722099e-01,8.11208e-03,9.99999e-01,9.99999e-01,8.11208e-03,9.99999e-01
4.810655710e-01,8.92138e-03,9.99999e-01,9.99999e-01,8.92138e-03,9.99999e-01
4.834708988e-01,9.79301e-03,9.99999e-01,9.99999e-01,9.79301e-03,9.99999e-01
4.858882533e-01,1.07300e-02,9.99999e-01,9.99999e-01,1.07300e-02,9.99999e-01
4.883176946e-01,1.17355e-02,9.99999e-01,9.99999e-01,1.17355e-02,9.99999e-01
4.907592831e-01,1.28125e-02,9.99999e-01,9.99999e-01,1.28125e-02,9.99999e-01
4.932130795e-01,1.39641e-02,9.99999e-01,9.99999e-01,1.39641e-02,9.99999e-01
4.956791449e-01,1.51933e-02,9.99999e-01,9.99999e-01,1.51933e-02,9.99999e-01
4.981575406e-01,1.65032e-02,9.99999e-01,9.99999e-01,1.65032e-02,9.99999e-01
5.006483283e-01,1.78969e-02,9.99999e-01,9.99999e-01,1.78969e-02,9.99999e-01
5.031515699e-01,1.93771e-02,9.99999e-01,9.99999e-01,1.93771e-02,9.99999e-01
5.056673278e-01,2.09469e-02,9.99999e-01,9.99999e-01,2.09469e-02,9.99999e-01
5.081956644e-01,2.26090e-02,9.99999e-01,9.99999e-01,2.26090e-02,9.99999e-01
5.107366428e-01,2.43662e-02,9.99999e-01,9.99999e-01,2.43662e-02,9.99999e-01
5.132903260e-01,2.62212e-02,9.99999e-01,9.99999e-01,2.62212e-02,9.99999e-01
5.158567776e-01,2.81766e-02,9.99999e-01,9.99999e-01,2.81766e-02,9.99999e-01
5.184360615e-01,3.02348e-02,9.99999e-01,9.99999e-01,3.02348e-02,9.99999e-01
5.210282418e-01,3.23982e-02,9.99999e-01,9.99999e-01,3.23982e-02,9.99999e-01
5.236333830e-01,3.46690e-02,9.99999e-01,9.99999e-01,3.46690e-02,9.99999e-01
5.262515499e-01,3.70494e-02,9.99999e-01,9.99999e-01,3.70494e-02,9.99999e-01
5.288828077e-01,3.95414e-02,9.99999e-01,9.99999e-01,3.95414e-02,9.99999e-01
5.315272217e-01,4.21467e-02,9.99999e-01,9.99999e-01,4.21467e-02,9.99999e-01
5.341848578e-01,4.48671e-02,9.99999e-01,9.99999e-01,4.48671e-02,9.99999e-01
5.368557821e-01,4.77041e-02,9.99999e-01,9.99999e-01,4.77041e-02,9.99999e-01
5.395400610e-01,5.06591e-02,9.99999e-01,9.99999e-01,5.06591e-02,9.99999e-01
5.422377613e-01,5.37333e-02,9.99999e-01,9.99999e-01,5.37333e-02,9.99999e-01
5.449489501e-01,5.69278e-02,9.99999e-01,9.99999e-01,5.69278e-02,9.99999e-01
5.476736949e-01,6.02434e-02,9.99999e-01,9.99999e-01,6.02434e-02,9.99999e-01
5.504120634e-01,6.36809e-02,9.99999e-01,9.99999e-01,6.36809e-02,9.99999e-01
5.531641237e-01,6.72409e-02,9.99999e-01,9.99999e-01,6.72409e-02,9.99999e-01
5.559299443e-01,7.09235e-02,9.99999e-01,9.99999e-01,7.09235e-02,9.99999e-01
5.587095940e-01,7.47292e-02,9.99999e-01,9.99999e-01,7.47292e-02,9.99999e-01
5.615031420e-01,7.86577e-02,9.99999e-01,9.99999e-01,7.86577e-02,9.99999e-01
5.643106577e-01,8.27091e-02,9.99999e-01,9.99999e-01,8.27091e-02,9.99999e-01
5.671322110e-01,8.68829e-02,9.99999e-01,9.99999e-01,8.68829e-02,9.99999e-01
5.699678720e-01,9.11786e-02,9.99999e-01,9.99999e-01,9.11786e-02,9.99999e-01
5.728177114e-01,9.55955e-02,9.99999e-01,9.99999e-01,9.55955e-02,9.99999e-01
5.756818000e-01,1.00133e-01,9.99999e-01,9.99999e-01,1.00133e-01,9.99999e-01
5.785602090e-01,1.04789e-01,9.99999e-01,9.99999e-01,1.04789e-01,9.99999e-01
5.814530100e-01,1.09564e-01,9.99999e-01,9.99999e-01,1.09564e-01,9.99999e-01
5.843602750e-01,1.14456e-01,9.99999e-01,9.99999e-01,1.14456e-01,9.99999e-01
5.872820764e-01,1.19463e-01,9.99999e-01,9.99999e-01,1.19463e-01,9.99999e-01
5.902184868e-01,1.24583e-01,9.99999e-01,9.99999e-01,1.24583e-01,9.99999e-01
5.931695792e-01,1.29815e-01,9.99999e-01,9.99999e-01,1.29815e-01,9.99999e-01
5.961354271e-01,1.35157e-01,9.99999e-01,9.99999e-01,1.35157e-01,9.99999e-01
5.991161043e-01,1.40607e-01,9.99999e-01,9.99999e-01,1.40607e-01,9.99999e-01
6.021116848e-01,1.46163e-01,9.99999e-01,9.99999e-01,1.46163e-01,9.99999e-01
6.051222432e-01,1.51822e-01,9.99999e-01,9.99999e-01,1.51822e-01,9.99999e-01
6.081478544e-01,1.57581e-01,9.99999e-01,9.99999e-01,1.57581e-01,9.99999e-01
6.111885937e-01,1.63439e-01,9.99999e-01,9.99999e-01,1.63439e-01,9.99999e-01
6.142445367e-01,1.69392e-01,9.99999e-01,9.99999e-01,1.69392e-01,9.99999e-01
6.173157594e-01,1.75438e-01,9.99999e-01,9.99999e-01,1.75438e-01,9.99999e-01
6.204023382e-01,1.81575e-01,9.99999e-01,9.99999e-01,1.81575e-01,9.99999e-01
6.235043498e-01,1.87798e-01,9.99999e-01,9.99999e-01,1.87798e-01,9.99999e-01
6.266218716e-01,1.94105e-01,9.99999e-01,9.99999e-01,1.94105e-01,9.99999e-01
6.297549810e-01,2.00493e-01,9.99999e-01,9.99999e-01,2.00493e-01,9.99999e-01
6.329037559e-01,2.06959e-01,9.99999e-01,9.99999e-01,2.06959e-01,9.99999e-01
6.360682746e-01,2.13500e-01,9.99999e-01,9.99999e-01,2.13500e-01,9.99999e-01
6.392486160e-01,2.20112e-01,9.99999e-01,9.99999e-01,2.20112e-01,9.99999e-01
6.424448591e-01,2.26792e-01,9.99999e-01,9.99999e-01,2.26792e-01,9.99999e-01
6.456570834e-01,2.33537e-01,9.99999e-01,9.99999e-01,2.33537e-01,9.99999e-01
6.488853688e-01,2.40344e-01,9.99999e-01,9.99999e-01,2.40344e-01,9.99999e-01
6.521297956e-01,2.47208e-01,9.99999e-01,9.99999e-01,2.47208e-01,9.99999e-01
6.553904446e-01,2.54128e-01,9.99999e-01,9.99999e-01,2.54128e-01,9.99999e-01
6.586673968e-01,2.61098e-01,9.99999e-01,9.99999e-01,2.61098e-01,9.99999e-01
6.619607338e-01,2.68116e-01,9.99999e-01,9.99999e-01,2.68116e-01,9.99999e-01
6.652705375e-01,2.75179e-01,9.99999e-01,9.99999e-01,2.75179e-01,9.99999e-01
6.685968902e-01,2.82283e-01,9.99999e-01,9.99999e-01,2.82283e-01,9.99999e-01
6.719398746e-01,2.89424e-01,9.99999e-01,9.99999e-01,2.89424e-01,9.99999e-01
6.752995740e-01,2.96599e-01,9.99999e-01,9.99999e-01,2.96599e-01,9.99999e-01
6.786760719e-01,3.03806e-01,9.99999e-01,9.99999e-01,3.03806e-01,9.99999e-01
6.820694522e-01,3.11040e-01,9.99999e-01,9.99999e-01,3.11040e-01,9.99999e-01
6.854797995e-01,3.18298e-01,9.99999e-01,9.99999e-01,3.18298e-01,9.99999e-01
6.889071985e-01,3.25578e-01,9.99999e-01,9.99999e-01,3.25578e-01,9.99999e-01
6.923517345e-01,3.32875e-01,9.99999e-01,9.99999e-01,3.32875e-01,9.99999e-01
6.958134932e-01,3.40186e-01,9.99999e-01,9.99999e-01,3.40186e-01,9.99999e-01
6.992925606e-01,3.47510e-01,9.99999e-01,9.99999e-01,3.47510e-01,9.99999e-01
7.027890234e-01,3.54841e-01,9.99999e-01,9.99999e-01,3.54841e-01,9.99999e-01
7.063029686e-01,3.62178e-01,9.99999e-01,9.99999e-01,3.62178e-01,9.99999e-01
7.098344834e-01,3.69517e-01,9.99999e-01,9.99999e-01,3.69517e-01,9.99999e-01
7.133836558e-01,3.76855e-01,9.99999e-01,9.99999e-01,3.76855e-01,9.99999e-01
7.169505741e-01,3.84190e-01,9.99999e-01,9.99999e-01,3.84190e-01,9.99999e-01
7.205353270e-01,3.91518e-01,9.99999e-01,9.99999e-01,3.91518e-01,9.99999e-01
7.241380036e-01,3.98838e-01,9.99999e-01,9.99999e-01,3.98838e-01,9.99999e-01
7.277586936e-01,4.06145e-01,9.99999e-01,9.99999e-01,4.06145e-01,9.99999e-01
7.313974871e-01,4.13439e-01,9.99999e-01,9.99999e-01,4.13439e-01,9.99999e-01
7.350544745e-01,4.20715e-01,9.99999e-01,9.99999e-01,4.20715e-01,9.99999e-01
7.387297469e-01,4.27972e-01,9.99999e-01,9.99999e-01,4.27972e-01,9.99999e-01
7.424233956e-01,4.35207e-01,9.99999e-01,9.99999e-01,4.35207e-01,9.99999e-01
7.461355126e-01,4.42417e-01,9.99999e-01,9.99999e-01,4.42417e-01,9.99999e-01
7.498661902e-01,4.49602e-01,9.99999e-01,9.99999e-01,4.49602e-01,9.99999e-01
7.536155211e-01,4.56757e-01,9.99999e-01,9.99999e-01,4.56757e-01,9.99999e-01
7.573835987e-01,4.63882e-01,9.99999e-01,9.99999e-01,4.63882e-01,9.99999e-01
7.611705167e-01,4.70974e-01,9.99999e-01,9.99999e-01,4.70974e-01,9.99999e-01
7.649763693e-01,4.78031e-01,9.99999e-01,9.99999e-01,4.78031e-01,9.99999e-01
7.688012511e-01,4.85051e-01,9.99999e-01,9.99999e-01,4.85051e-01,9.99999e-01
7.726452574e-01,4.92033e-01,9.99999e-01,9.99999e-01,4.92033e-01,9.99999e-01
7.765084837e-01,4.98974e-01,9.99999e-01,9.99999e-01,4.98974e-01,9.99999e-01
7.803910261e-01,4.90154e-01,9.99999e-01,9.68926e-01,5.05873e-01,9.99999e-01
7.842929812e-01,4.43551e-01,9.99999e-01,8.65079e-01,5.12728e-01,9.99999e-01
7.882144461e-01,4.45242e-01,9.99999e-01,8.56994e-01,5.19539e-01,9.99999e-01
7.921555184e-01,4.81092e-01,9.99999e-01,9.14098e-01,5.26302e-01,9.99999e-01
7.961162960e-01,5.01713e-01,9.99999e-01,9.41269e-01,5.33017e-01,9.99999e-01
8.000968774e-01,5.22294e-01,9.99999e-01,9.67778e-01,5.39683e-01,9.99999e-01
8.040973618e-01,5.37075e-01,9.99999e-01,9.83116e-01,5.46298e-01,9.99999e-01
8.081178486e-01,5.48575e-01,9.99999e-01,9.92246e-01,5.52861e-01,9.99999e-01
8.121584379e-01,5.58018e-01,9.99999e-01,9.97580e-01,5.59371e-01,9.99999e-01
8.162192301e-01,5.65525e-01,9.99999e-01,9.99464e-01,5.65827e-01,9.99999e-01
8.203003262e-01,5.72223e-01,9.99999e-01,9.99990e-01,5.72228e-01,9.99999e-01
8.244018279e-01,5.78572e-01,9.99999e-01,9.99999e-01,5.78572e-01,9.99999e-01
8.285238370e-01,5.84859e-01,9.99999e-01,9.99999e-01,5.84859e-01,9.99999e-01
8.326664562e-01,5.91089e-01,9.99999e-01,9.99999e-01,5.91089e-01,9.99999e-01
8.368297885e-01,5.97260e-01,9.99999e-01,9.99999e-01,5.97260e-01,9.99999e-01
8.410139374e-01,6.03371e-01,9.99999e-01,9.99999e-01,6.03371e-01,9.99999e-01
8.452190071e-01,6.09422e-01,9.99999e-01,9.99999e-01,6.09422e-01,9.99999e-01
8.494451021e-01,6.15413e-01,9.99999e-01,9.99999e-01,6.15413e-01,9.99999e-01
8.536923276e-01,6.21343e-01,9.99999e-01,9.99999e-01,6.21343e-01,9.99999e-01
8.579607893e-01,6.27211e-01,9.99999e-01,9.99999e-01,6.27211e-01,9.99999e-01
8.622505932e-01,6.33017e-01,9.99999e-01,9.99999e-01,6.33017e-01,9.99999e-01
8.665618462e-01,5.93954e-01,9.99999e-01,9.29854e-01,6.38760e-01,9.99999e-01
8.708946554e-01,4.46531e-01,9.99999e-01,6.92897e-01,6.44440e-01,9.99999e-01
8.752491287e-01,4.83342e-01,9.99999e-01,7.43536e-01,6.50057e-01,9.99999e-01
8.796253743e-01,5.57106e-01,9.99999e-01,8.49750e-01,6.55611e-01,9.99999e-01
8.840235012e-01,6.07633e-01,9.99999e-01,9.19122e-01,6.61101e-01,9.99999e-01
8.884436187e-01,6.44663e-01,9.99999e-01,9.67195e-01,6.66528e-01,9.99999e-01
8.928858368e-01,6.62899e-01,9.99999e-01,9.86618e-01,6.71890e-01,9.99999e-01
8.973502660e-01,6.74964e-01,9.99999e-01,9.96714e-01,6.77188e-01,9.99999e-01
9.018370173e-01,6.82175e-01,9.99999e-01,9.99636e-01,6.82423e-01,9.99999e-01
9.063462024e-01,6.81400e-01,9.99999e-01,9.90992e-01,6.87593e-01,9.99999e-01
9.108779334e-01,6.78152e-01,9.99999e-01,9.78999e-01,6.92699e-01,9.99999e-01
9.154323231e-01,6.94244e-01,9.99999e-01,9.94988e-01,6.97741e-01,9.99999e-01
9.200094847e-01,6.54184e-01,9.99999e-01,9.30932e-01,7.02719e-01,9.99999e-01
9.246095321e-01,6.37857e-01,9.99999e-01,9.01394e-01,7.07633e-01,9.99999e-01
9.292325798e-01,6.57299e-01,9.99999e-01,9.22546e-01,7.12483e-01,9.99999e-01
9.338787427e-01,6.63038e-01,9.99999e-01,9.24390e-01,7.17270e-01,9.99999e-01
9.385481364e-01,6.81485e-01,9.99999e-01,9.43893e-01,7.21993e-01,9.99999e-01
9.432408771e-01,7.01345e-01,9.99999e-01,9.65169e-01,7.26654e-01,9.99999e-01
9.479570815e-01,7.18109e-01,9.99999e-01,9.82027e-01,7.31251e-01,9.99999e-01
9.526968669e-01,7.29371e-01,9.99999e-01,9.91280e-01,7.35786e-01,9.99999e-01
9.574603512e-01,7.37491e-01,9.99999e-01,9.96260e-01,7.40259e-01,9.99999e-01
9.622476530e-01,7.43800e-01,9.99999e-01,9.98831e-01,7.44670e-01,9.99999e-01
9.670588912e-01,7.48756e-01,9.99999e-01,9.99648e-01,7.49019e-01,9.99999e-01
9.718941857e-01,7.53288e-01,9.99999e-01,9.99974e-01,7.53307e-01,9.99999e-01
9.767536566e-01,7.57533e-01,9.99999e-01,9.99999e-01,7.57533e-01,9.99999e-01
9.816374249e-01,7.61700e-01,9.99999e-01,9.99999e-01,7.61700e-01,9.99999e-01
9.865456120e-01,7.65806e-01,9.99999e-01,9.99999e-01,7.65806e-01,9.99999e-01
9.914783401e-01,7.69853e-01,9.99999e-01,9.99999e-01,7.69853e-01,9.99999e-01
9.964357318e-01,7.73841e-01,9.99999e-01,9.99999e-01,7.73841e-01,9.99999e-01
1.001417910e+00,7.77770e-01,9.99999e-01,9.99999e-01,7.77770e-01,9.99999e-01
1.006425000e+00,7.81640e-01,9.99999e-01,9.99999e-01,7.81640e-01,9.99999e-01
1.011457125e+00,7.85453e-01,9.99999e-01,9.99999e-01,7.85453e-01,9.99999e-01
1.016514411e+00,7.89209e-01,9.99999e-01,9.99999e-01,7.89209e-01,9.99999e-01
1.021596983e+00,7.92873e-01,9.99999e-01,9.99955e-01,7.92908e-01,9.99999e-01
1.026704968e+00,7.93757e-01,9.99999e-01,9.96492e-01,7.96550e-01,9.99999e-01
1.031838492e+00,7.68153e-01,9.99999e-01,9.60026e-01,8.00137e-01,9.99999e-01
1.036997685e+00,1.29630e-01,9.99999e-01,1.61298e-01,8.03669e-01,9.99999e-01
1.042182673e+00,1.05422e-01,9.99999e-01,1.30611e-01,8.07146e-01,9.99999e-01
1.047393587e+00,1.24235e-01,9.99999e-01,1.53268e-01,8.10569e-01,9.99999e-01
1.052630555e+00,3.97368e-03,9.99999e-01,4.88203e-03,8.13939e-01,9.99999e-01
1.057893707e+00,9.74935e-03,9.99999e-01,1.19294e-02,8.17255e-01,9.99999e-01
1.063183176e+00,3.14851e-02,9.99999e-01,3.83721e-02,8.20520e-01,9.99999e-01
1.068499092e+00,8.63680e-02,9.99999e-01,1.04850e-01,8.23732e-01,9.99999e-01
1.073841587e+00,1.98099e-01,9.99999e-01,2.39570e-01,8.26893e-01,9.99999e-01
1.079210795e+00,3.35975e-01,9.99999e-01,4.04787e-01,8.30003e-01,9.99999e-01
1.084606849e+00,5.06157e-01,9.99999e-01,6.07584e-01,8.33064e-01,9.99999e-01
1.090029883e+00,6.45708e-01,9.99999e-01,7.72309e-01,8.36075e-01,9.99999e-01
1.095480033e+00,7.38628e-01,9.99999e-01,8.80328e-01,8.39037e-01,9.99999e-01
1.100957433e+00,7.91823e-01,9.99999e-01,9.40462e-01,8.41950e-01,9.99999e-01
1.106462220e+00,8.23621e-01,9.99999e-01,9.74911e-01,8.44816e-01,9.99999e-01
1.111994531e+00,8.39691e-01,9.99999e-01,9.90628e-01,8.47635e-01,9.99999e-01
1.117554504e+00,8.48447e-01,9.99999e-01,9.97694e-01,8.50407e-01,9.99999e-01
1.123142276e+00,8.53003e-01,9.99999e-01,9.99847e-01,8.53133e-01,9.99999e-01
1.128757988e+00,8.55814e-01,9.99999e-01,9.99999e-01,8.55814e-01,9.99999e-01
1.134401778e+00,8.58450e-01,9.99999e-01,9.99999e-01,8.58450e-01,9.99999e-01
1.140073787e+00,8.61042e-01,9.99999e-01,9.99999e-01,8.61042e-01,9.99999e-01
1.145774156e+00,8.63590e-01,9.99999e-01,9.99999e-01,8.63590e-01,9.99999e-01
1.151503026e+00,8.66096e-01,9.99999e-01,9.99999e-01,8.66096e-01,9.99999e-01
1.157260541e+00,8.68559e-01,9.99999e-01,9.99999e-01,8.68559e-01,9.99999e-01
1.163046844e+00,8.70980e-01,9.99999e-01,9.99999e-01,8.70980e-01,9.99999e-01
1.168862078e+00,8.73359e-01,9.99999e-01,9.99999e-01,8.73359e-01,9.99999e-01
1.174706389e+00,8.75698e-01,9.99999e-01,9.99999e-01,8.75698e-01,9.99999e-01
1.180579921e+00,8.77997e-01,9.99999e-01,9.99999e-01,8.77997e-01,9.99999e-01
1.186482820e+00,8.80253e-01,9.99999e-01,9.99994e-01,8.80257e-01,9.99999e-01
1.192415234e+00,8.71527e-01,9.99999e-01,9.87590e-01,8.82477e-01,9.99999e-01
1.198377311e+00,4.98587e-01,9.99999e-01,5.63592e-01,8.84659e-01,9.99999e-01
1.204369197e+00,8.25500e-11,9.99999e-01,9.30871e-11,8.86803e-01,9.99999e-01
1.210391043e+00,5.02125e-39,9.99999e-01,5.64877e-39,8.88910e-01,9.99999e-01
1.216442998e+00,5.57211e-34,9.99999e-01,6.25390e-34,8.90980e-01,9.99999e-01
1.222525213e+00,1.71148e-33,9.99999e-01,1.91652e-33,8.93014e-01,9.99999e-01
1.228637839e+00,6.15030e-26,9.99999e-01,6.87175e-26,8.95012e-01,9.99999e-01
1.234781029e+00,6.97823e-17,9.99999e-01,7.77973e-17,8.96975e-01,9.99999e-01
1.240954934e+00,1.97689e-11,9.99999e-01,2.19922e-11,8.98903e-01,9.99999e-01
1.247159708e+00,2.07554e-06,9.99999e-01,2.30412e-06,9.00798e-01,9.99999e-01
1.253395507e+00,3.93582e-04,9.99999e-01,4.36025e-04,9.02658e-01,9.99999e-01
1.259662485e+00,7.65755e-03,9.99999e-01,8.46618e-03,9.04486e-01,9.99999e-01
1.265960797e+00,6.88729e-02,9.99999e-01,7.59950e-02,9.06282e-01,9.99999e-01
1.272290601e+00,2.81500e-01,9.99999e-01,3.10006e-01,9.08045e-01,9.99999e-01
1.278652054e+00,2.65962e-01,9.99999e-01,2.92337e-01,9.09777e-01,9.99999e-01
1.285045314e+00,7.90738e-03,9.99999e-01,8.67534e-03,9.11477e-01,9.99999e-01
1.291470541e+00,2.86389e-05,9.99999e-01,3.13628e-05,9.13148e-01,9.99999e-01
1.297927893e+00,5.16506e-03,9.99999e-01,5.64617e-03,9.14788e-01,9.99999e-01
1.304417533e+00,1.27177e-01,9.99999e-01,1.38779e-01,9.16399e-01,9.99999e-01
1.310939621e+00,3.21625e-02,9.99999e-01,3.50361e-02,9.17980e-01,9.99999e-01
1.317494319e+00,6.93694e-14,9.99999e-01,7.54397e-14,9.19533e-01,9.99999e-01
1.324081790e+00,1.14250e-09,9.99999e-01,1.24042e-09,9.21058e-01,9.99999e-01
1.330702199e+00,1.03267e-05,9.99999e-01,1.11936e-05,9.22555e-01,9.99999e-01
1.337355710e+00,1.24851e-05,9.99999e-01,1.35116e-05,9.24026e-01,9.99999e-01
1.344042489e+00,3.85306e-06,9.99999e-01,4.16335e-06,9.25469e-01,9.99999e-01
1.350762701e+00,6.40020e-06,9.99999e-01,6.90505e-06,9.26886e-01,9.99999e-01
1.357516515e+00,4.47011e-04,9.99999e-01,4.81549e-04,9.28277e-01,9.99999e-01
1.364304097e+00,6.54063e-03,9.99999e-01,7.03564e-03,9.29642e-01,9.99999e-01
1.371125618e+00,6.97912e-02,9.99999e-01,7.49650e-02,9.30983e-01,9.99999e-01
1.377981246e+00,1.12188e-01,9.99999e-01,1.20335e-01,9.32299e-01,9.99999e-01
1.384871152e+00,2.72100e-01,9.99999e-01,2.91455e-01,9.33591e-01,9.99999e-01
1.391795508e+00,2.99023e-01,9.99999e-01,3.19859e-01,9.34859e-01,9.99999e-01
1.398754485e+00,4.63376e-01,9.99999e-01,4.95005e-01,9.36104e-01,9.99999e-01
1.405748258e+00,5.58231e-01,9.99999e-01,5.95556e-01,9.37325e-01,9.99999e-01
1.412776999e+00,6.76388e-01,9.99999e-01,7.20692e-01,9.38524e-01,9.99999e-01
1.419840884e+00,6.14040e-01,9.99999e-01,6.53441e-01,9.39701e-01,9.99999e-01
1.426940089e+00,5.90587e-02,9.99999e-01,6.27711e-02,9.40856e-01,9.99999e-01
1.434074789e+00,0.00000e+00,9.99999e-01,0.00000e+00,9.41990e-01,9.99999e-01
1.441245163e+00,0.00000e+00,9.99999e-01,0.00000e+00,9.43103e-01,9.99999e-01
1.448451389e+00,0.00000e+00,9.99999e-01,0.00000e+00,9.44194e-01,9.99999e-01
1.455693646e+00,1.29332e-312,9.99999e-01,1.36821e-312,9.45266e-01,9.99999e-01
1.462972114e+00,1.59309e-151,9.99999e-01,1.68346e-151,9.46318e-01,9.99999e-01
1.470286975e+00,1.13182e-63,9.99999e-01,1.19472e-63,9.47349e-01,9.99999e-01
