#,Wave/freq,Total,O2,CO2,Rayleigh,CIA
4.000000000e-01,7.02191e-09,9.99999e-01,9.99999e-01,7.02191e-09,9.99999e-01
4.020000000e-01,1.01784e-08,9.99999e-01,9.99999e-01,1.01784e-08,9.99999e-01
4.040100000e-01,1.46402e-08,9.99999e-01,9.99999e-01,1.46402e-08,9.99999e-01
4.060300500e-01,2.09072e-08,9.99999e-01,9.99999e-01,2.09072e-08,9.99999e-01
4.080602003e-01,2.96476e-08,9.99999e-01,9.99999e-01,2.96476e-08,9.99999e-01
4.101005013e-01,4.17528e-08,9.99999e-01,9.99999e-01,4.17528e-08,9.99999e-01
4.121510038e-01,5.84044e-08,9.99999e-01,9.99999e-01,5.84044e-08,9.99999e-01
4.142117588e-01,8.11570e-08,9.99999e-01,9.99999e-01,8.11570e-08,9.99999e-01
4.162828176e-01,1.12043e-07,9.99999e-01,9.99999e-01,1.12043e-07,9.99999e-01
4.183642317e-01,1.53701e-07,9.99999e-01,9.99999e-01,1.53701e-07,9.99999e-01
4.204560528e-01,2.09535e-07,9.99999e-01,9.99999e-01,2.09535e-07,9.99999e-01
4.225583331e-01,2.83908e-07,9.99999e-01,9.99999e-01,2.83908e-07,9.99999e-01
4.246711247e-01,3.82379e-07,9.99999e-01,9.99999e-01,3.82379e-07,9.99999e-01
4.267944804e-01,5.11983e-07,9.99999e-01,9.99999e-01,5.11983e-07,9.99999e-01
4.289284528e-01,6.81575e-07,9.99999e-01,9.99999e-01,6.81575e-07,9.99999e-01
4.310730950e-01,9.02229e-07,9.99999e-01,9.99999e-01,9.02229e-07,9.99999e-01
4.332284605e-01,1.18772e-06,9.99999e-01,9.99999e-01,1.18772e-06,9.99999e-01
4.353946028e-01,1.55508e-06,9.99999e-01,9.99999e-01,1.55508e-06,9.99999e-01
4.375715758e-01,2.02526e-06,9.99999e-01,9.99999e-01,2.02526e-06,9.99999e-01
4.397594337e-01,2.62387e-06,9.99999e-01,9.99999e-01,2.62387e-06,9.99999e-01
4.419582309e-01,3.38206e-06,9.99999e-01,9.99999e-01,3.38206e-06,9.99999e-01
4.441680220e-01,4.33754e-06,9.99999e-01,9.99999e-01,4.33754e-06,9.99999e-01
4.463888621e-01,5.53568e-06,9.99999e-01,9.99999e-01,5.53568e-06,9.99999e-01
4.486208064e-01,7.03083e-06,9.99999e-01,9.99999e-01,7.03083e-06,9.99999e-01
4.508639105e-01,8.88774e-06,9.99999e-01,9.99999e-01,8.88774e-06,9.99999e-01
4.531182300e-01,1.11832e-05,9.99999e-01,9.99999e-01,1.11832e-05,9.99999e-01
4.553838212e-01,1.40077e-05,9.99999e-01,9.99999e-01,1.40077e-05,9.99999e-01
4.576607403e-01,1.74678e-05,9.99999e-01,9.99999e-01,1.74678e-05,9.99999e-01
4.599490440e-01,2.16879e-05,9.99999e-01,9.99999e-01,2.16879e-05,9.99999e-01
4.622487892e-01,2.68126e-05,9.99999e-01,9.99999e-01,2.68126e-05,9.99999e-01
4.645600332e-01,3.30096e-05,9.99999e-01,9.99999e-01,3.30096e-05,9.99999e-01
4.668828333e-01,4.04723e-05,9.99999e-01,9.99999e-01,4.04723e-05,9.99999e-01
4.692172475e-01,4.94228e-05,9.99999e-01,9.99999e-01,4.94228e-05,9.99999e-01
4.715633337e-01,6.01150e-05,9.99999e-01,9.99999e-01,6.01150e-05,9.99999e-01
4.739211504e-01,7.28381e-05,9.99999e-01,9.99999e-01,7.28381e-05,9.99999e-01
4.762907561e-01,8.79199e-05,9.99999e-01,9.99999e-01,8.79199e-05,9.99999e-01
4.786722099e-01,1.05731e-04,9.99999e-01,9.99999e-01,1.05731e-04,9.99999e-01
4.810655710e-01,1.26687e-04,9.99999e-01,9.99999e-01,1.26687e-04,9.99999e-01
4.834708988e-01,1.51256e-04,9.99999e-01,9.99999e-01,1.51256e-04,9.99999e-01
4.858882533e-01,1.79959e-04,9.99999e-01,9.99999e-01,1.79959e-04,9.99999e-01
4.883176946e-01,2.13375e-04,9.99999e-01,9.99999e-01,2.13375e-04,9.99999e-01
4.907592831e-01,2.52146e-04,9.99999e-01,9.99999e-01,2.52146e-04,9.99999e-01
4.932130795e-01,2.96981e-04,9.99999e-01,9.99999e-01,2.96981e-04,9.99999e-01
4.956791449e-01,3.48659e-04,9.99999e-01,9.99999e-01,3.48659e-04,9.99999e-01
4.981575406e-01,4.08035e-04,9.99999e-01,9.99999e-01,4.08035e-04,9.99999e-01
5.006483283e-01,4.76041e-04,9.99999e-01,9.99999e-01,4.76041e-04,9.99999e-01
5.031515699e-01,5.53693e-04,9.99999e-01,9.99999e-01,5.53693e-04,9.99999e-01
5.056673278e-01,6.42092e-04,9.99999e-01,9.99999e-01,6.42092e-04,9.99999e-01
5.081956644e-01,7.42429e-04,9.99999e-01,9.99999e-01,7.42429e-04,9.99999e-01
5.107366428e-01,8.55988e-04,9.99999e-01,9.99999e-01,8.55988e-04,9.99999e-01
5.132903260e-01,9.84144e-04,9.99999e-01,9.99999e-01,9.84144e-04,9.99999e-01
5.158567776e-01,1.12837e-03,9.99999e-01,9.99999e-01,1.12837e-03,9.99999e-01
5.184360615e-01,1.29025e-03,9.99999e-01,9.99999e-01,1.29025e-03,9.99999e-01
5.210282418e-01,1.47145e-03,9.99999e-01,9.99999e-01,1.47145e-03,9.99999e-01
5.236333830e-01,1.67375e-03,9.99999e-01,9.99999e-01,1.67375e-03,9.99999e-01
5.262515499e-01,1.89902e-03,9.99999e-01,9.99999e-01,1.89902e-03,9.99999e-01
5.288828077e-01,2.14924e-03,9.99999e-01,9.99999e-01,2.14924e-03,9.99999e-01
5.315272217e-01,2.42649e-03,9.99999e-01,9.99999e-01,2.42649e-03,9.99999e-01
5.341848578e-01,2.73295e-03,9.99999e-01,9.99999e-01,2.73295e-03,9.99999e-01
5.368557821e-01,3.07089e-03,9.99999e-01,9.99999e-01,3.07089e-03,9.99999e-01
5.395400610e-01,3.44269e-03,9.99999e-01,9.99999e-01,3.44269e-03,9.99999e-01
5.422377613e-01,3.85079e-03,9.99999e-01,9.99999e-01,3.85079e-03,9.99999e-01
5.449489501e-01,4.29775e-03,9.99999e-01,9.99999e-01,4.29775e-03,9.99999e-01
5.476736949e-01,4.78620e-03,9.99999e-01,9.99999e-01,4.78620e-03,9.99999e-01
5.504120634e-01,5.31884e-03,9.99999e-01,9.99999e-01,5.31884e-03,9.99999e-01
5.531641237e-01,5.89844e-03,9.99999e-01,9.99999e-01,5.89844e-03,9.99999e-01
5.559299443e-01,6.52786e-03,9.99999e-01,9.99999e-01,6.52786e-03,9.99999e-01
5.587095940e-01,7.20999e-03,9.99999e-01,9.99999e-01,7.20999e-03,9.99999e-01
5.615031420e-01,7.94777e-03,9.99999e-01,9.99999e-01,7.94777e-03,9.99999e-01
5.643106577e-01,8.74422e-03,9.99999e-01,9.99999e-01,8.74422e-03,9.99999e-01
5.671322110e-01,9.60234e-03,9.99999e-01,9.99999e-01,9.60234e-03,9.99999e-01
5.699678720e-01,1.05252e-02,9.99999e-01,9.99999e-01,1.05252e-02,9.99999e-01
5.728177114e-01,1.15158e-02,9.99999e-01,9.99999e-01,1.15158e-02,9.99999e-01
5.756818000e-01,1.25774e-02,9.99999e-01,9.99999e-01,1.25774e-02,9.99999e-01
5.785602090e-01,1.37129e-02,9.99999e-01,9.99999e-01,1.37129e-02,9.99999e-01
5.814530100e-01,1.49253e-02,9.99999e-01,9.99999e-01,1.49253e-02,9.99999e-01
5.843602750e-01,1.62179e-02,9.99999e-01,9.99999e-01,1.62179e-02,9.99999e-01
5.872820764e-01,1.75934e-02,9.99999e-01,9.99999e-01,1.75934e-02,9.99999e-01
5.902184868e-01,1.90550e-02,9.99999e-01,9.99999e-01,1.90550e-02,9.99999e-01
5.931695792e-01,2.06055e-02,9.99999e-01,9.99999e-01,2.06055e-02,9.99999e-01
5.961354271e-01,2.22478e-02,9.99999e-01,9.99999e-01,2.22478e-02,9.99999e-01
5.991161043e-01,2.39846e-02,9.99999e-01,9.99999e-01,2.39846e-02,9.99999e-01
6.021116848e-01,2.58186e-02,9.99999e-01,9.99999e-01,2.58186e-02,9.99999e-01
6.051222432e-01,2.77524e-02,9.99999e-01,9.99999e-01,2.77524e-02,9.99999e-01
6.081478544e-01,2.97885e-02,9.99999e-01,9.99999e-01,2.97885e-02,9.99999e-01
6.111885937e-01,3.19294e-02,9.99999e-01,9.99999e-01,3.19294e-02,9.99999e-01
6.142445367e-01,3.41772e-02,9.99999e-01,9.99999e-01,3.41772e-02,9.99999e-01
6.173157594e-01,3.65341e-02,9.99999e-01,9.99999e-01,3.65341e-02,9.99999e-01
6.204023382e-01,3.90022e-02,9.99999e-01,9.99999e-01,3.90022e-02,9.99999e-01
6.235043498e-01,4.15832e-02,9.99999e-01,9.99999e-01,4.15832e-02,9.99999e-01
6.266218716e-01,4.42790e-02,9.99999e-01,9.99999e-01,4.42790e-02,9.99999e-01
6.297549810e-01,4.70911e-02,9.99999e-01,9.99999e-01,4.70911e-02,9.99999e-01
6.329037559e-01,5.00209e-02,9.99999e-01,9.99999e-01,5.00209e-02,9.99999e-01
6.360682746e-01,5.30697e-02,9.99999e-01,9.99999e-01,5.30697e-02,9.99999e-01
6.392486160e-01,5.62386e-02,9.99999e-01,9.99999e-01,5.62386e-02,9.99999e-01
6.424448591e-01,5.95284e-02,9.99999e-01,9.99999e-01,5.95284e-02,9.99999e-01
6.456570834e-01,6.29399e-02,9.99999e-01,9.99999e-01,6.29399e-02,9.99999e-01
6.488853688e-01,6.64738e-02,9.99999e-01,9.99999e-01,6.64738e-02,9.99999e-01
6.521297956e-01,7.01304e-02,9.99999e-01,9.99999e-01,7.01304e-02,9.99999e-01
6.553904446e-01,7.39098e-02,9.99999e-01,9.99999e-01,7.39098e-02,9.99999e-01
6.586673968e-01,7.78123e-02,9.99999e-01,9.99999e-01,7.78123e-02,9.99999e-01
6.619607338e-01,8.18376e-02,9.99999e-01,9.99999e-01,8.18376e-02,9.99999e-01
6.652705375e-01,8.59854e-02,9.99999e-01,9.99999e-01,8.59854e-02,9.99999e-01
6.685968902e-01,9.02552e-02,9.99999e-01,9.99999e-01,9.02552e-02,9.99999e-01
6.719398746e-01,9.46464e-02,9.99999e-01,9.99999e-01,9.46464e-02,9.99999e-01
6.752995740e-01,9.91582e-02,9.99999e-01,9.99999e-01,9.91582e-02,9.99999e-01
6.786760719e-01,1.03790e-01,9.99999e-01,9.99999e-01,1.03790e-01,9.99999e-01
6.820694522e-01,1.08539e-01,9.99999e-01,9.99999e-01,1.08539e-01,9.99999e-01
6.854797995e-01,1.13406e-01,9.99999e-01,9.99999e-01,1.13406e-01,9.99999e-01
6.889071985e-01,1.18389e-01,9.99999e-01,9.99999e-01,1.18389e-01,9.99999e-01
6.923517345e-01,1.23485e-01,9.99999e-01,9.99999e-01,1.23485e-01,9.99999e-01
6.958134932e-01,1.28694e-01,9.99999e-01,9.99999e-01,1.28694e-01,9.99999e-01
6.992925606e-01,1.34013e-01,9.99999e-01,9.99999e-01,1.34013e-01,9.99999e-01
7.027890234e-01,1.39440e-01,9.99999e-01,9.99999e-01,1.39440e-01,9.99999e-01
7.063029686e-01,1.44973e-01,9.99999e-01,9.99999e-01,1.44973e-01,9.99999e-01
7.098344834e-01,1.50610e-01,9.99999e-01,9.99999e-01,1.50610e-01,9.99999e-01
7.133836558e-01,1.56348e-01,9.99999e-01,9.99999e-01,1.56348e-01,9.99999e-01
7.169505741e-01,1.62185e-01,9.99999e-01,9.99999e-01,1.62185e-01,9.99999e-01
7.205353270e-01,1.68119e-01,9.99999e-01,9.99999e-01,1.68119e-01,9.99999e-01
7.241380036e-01,1.74145e-01,9.99999e-01,9.99999e-01,1.74145e-01,9.99999e-01
7.277586936e-01,1.80263e-01,9.99999e-01,9.99999e-01,1.80263e-01,9.99999e-01
7.313974871e-01,1.86468e-01,9.99999e-01,9.99999e-01,1.86468e-01,9.99999e-01
7.350544745e-01,1.92757e-01,9.99999e-01,9.99999e-01,1.92757e-01,9.99999e-01
7.387297469e-01,1.99129e-01,9.99999e-01,9.99999e-01,1.99129e-01,9.99999e-01
7.424233956e-01,2.05578e-01,9.99999e-01,9.99999e-01,2.05578e-01,9.99999e-01
7.461355126e-01,2.12104e-01,9.99999e-01,9.99999e-01,2.12104e-01,9.99999e-01
7.498661902e-01,2.18701e-01,9.99999e-01,9.99999e-01,2.18701e-01,9.99999e-01
7.536155211e-01,2.25367e-01,9.99999e-01,9.99999e-01,2.25367e-01,9.99999e-01
7.573835987e-01,2.32098e-01,9.99999e-01,9.99999e-01,2.32098e-01,9.99999e-01
7.611705167e-01,2.38892e-01,9.99999e-01,9.99999e-01,2.38892e-01,9.99999e-01
7.649763693e-01,2.45744e-01,9.99999e-01,9.99999e-01,2.45744e-01,9.99999e-01
7.688012511e-01,2.52652e-01,9.99999e-01,9.99999e-01,2.52652e-01,9.99999e-01
7.726452574e-01,2.59612e-01,9.99999e-01,9.99999e-01,2.59612e-01,9.99999e-01
7.765084837e-01,2.66620e-01,9.99999e-01,9.99999e-01,2.66620e-01,9.99999e-01
7.803910261e-01,2.58934e-01,9.99999e-01,9.46138e-01,2.73674e-01,9.99999e-01
7.842929812e-01,2.14559e-01,9.99999e-01,7.64182e-01,2.80769e-01,9.99999e-01
7.882144461e-01,2.16643e-01,9.99999e-01,7.52485e-01,2.87903e-01,9.99999e-01
7.921555184e-01,2.49070e-01,9.99999e-01,8.44100e-01,2.95071e-01,9.99999e-01
7.961162960e-01,2.69463e-01,9.99999e-01,8.91458e-01,3.02271e-01,9.99999e-01
8.000968774e-01,2.90831e-01,9.99999e-01,9.39679e-01,3.09500e-01,9.99999e-01
8.040973618e-01,3.06655e-01,9.99999e-01,9.68118e-01,3.16753e-01,9.99999e-01
8.081178486e-01,3.19266e-01,9.99999e-01,9.85302e-01,3.24029e-01,9.99999e-01
8.121584379e-01,3.29797e-01,9.99999e-01,9.95395e-01,3.31322e-01,9.99999e-01
8.162192301e-01,3.38286e-01,9.99999e-01,9.98980e-01,3.38631e-01,9.99999e-01
8.203003262e-01,3.45946e-01,9.99999e-01,9.99982e-01,3.45952e-01,9.99999e-01
8.244018279e-01,3.53282e-01,9.99999e-01,9.99999e-01,3.53282e-01,9.99999e-01
8.285238370e-01,3.60618e-01,9.99999e-01,9.99999e-01,3.60618e-01,9.99999e-01
8.326664562e-01,3.67957e-01,9.99999e-01,9.99999e-01,3.67957e-01,9.99999e-01
8.368297885e-01,3.75295e-01,9.99999e-01,9.99999e-01,3.75295e-01,9.99999e-01
8.410139374e-01,3.82631e-01,9.99999e-01,9.99999e-01,3.82631e-01,9.99999e-01
8.452190071e-01,3.89961e-01,9.99999e-01,9.99999e-01,3.89961e-01,9.99999e-01
8.494451021e-01,3.97283e-01,9.99999e-01,9.99999e-01,3.97283e-01,9.99999e-01
8.536923276e-01,4.04593e-01,9.99999e-01,9.99999e-01,4.04593e-01,9.99999e-01
8.579607893e-01,4.11890e-01,9.99999e-01,9.99999e-01,4.11890e-01,9.99999e-01
8.622505932e-01,4.19170e-01,9.99999e-01,9.99999e-01,4.19170e-01,9.99999e-01
8.665618462e-01,3.84240e-01,9.99999e-01,9.01059e-01,4.26431e-01,9.99999e-01
8.708946554e-01,2.22318e-01,9.99999e-01,5.12643e-01,4.33671e-01,9.99999e-01
8.752491287e-01,2.54620e-01,9.99999e-01,5.77518e-01,4.40887e-01,9.99999e-01
8.796253743e-01,3.29987e-01,9.99999e-01,7.36452e-01,4.48077e-01,9.99999e-01
8.840235012e-01,3.88034e-01,9.99999e-01,8.52374e-01,4.55239e-01,9.99999e-01
8.884436187e-01,4.33954e-01,9.99999e-01,9.38542e-01,4.62370e-01,9.99999e-01
8.928858368e-01,4.57590e-01,9.99999e-01,9.74697e-01,4.69469e-01,9.99999e-01
8.973502660e-01,4.73555e-01,9.99999e-01,9.93749e-01,4.76534e-01,9.99999e-01
9.018370173e-01,4.83227e-01,9.99999e-01,9.99307e-01,4.83562e-01,9.99999e-01
9.063462024e-01,4.82287e-01,9.99999e-01,9.83152e-01,4.90552e-01,9.99999e-01
9.108779334e-01,4.77839e-01,9.99999e-01,9.60476e-01,4.97502e-01,9.99999e-01
9.154323231e-01,4.99607e-01,9.99999e-01,9.90476e-01,5.04410e-01,9.99999e-01
9.200094847e-01,4.49808e-01,9.99999e-01,8.79776e-01,5.11275e-01,9.99999e-01
9.246095321e-01,4.25601e-01,9.99999e-01,8.21473e-01,5.18095e-01,9.99999e-01
9.292325798e-01,4.51176e-01,9.99999e-01,8.59597e-01,5.24868e-01,9.99999e-01
9.338787427e-01,4.58231e-01,9.99999e-01,8.61993e-01,5.31594e-01,9.99999e-01
9.385481364e-01,4.82450e-01,9.99999e-01,8.96296e-01,5.38270e-01,9.99999e-01
9.432408771e-01,5.09359e-01,9.99999e-01,9.34781e-01,5.44896e-01,9.99999e-01
9.479570815e-01,5.32775e-01,9.99999e-01,9.66098e-01,5.51470e-01,9.99999e-01
9.526968669e-01,5.48775e-01,9.99999e-01,9.83482e-01,5.57992e-01,9.99999e-01
9.574603512e-01,5.60450e-01,9.99999e-01,9.92896e-01,5.64459e-01,9.99999e-01
9.622476530e-01,5.69603e-01,9.99999e-01,9.97776e-01,5.70872e-01,9.99999e-01
9.670588912e-01,5.76842e-01,9.99999e-01,9.99331e-01,5.77228e-01,9.99999e-01
9.718941857e-01,5.83499e-01,9.99999e-01,9.99951e-01,5.83527e-01,9.99999e-01
9.767536566e-01,5.89769e-01,9.99999e-01,9.99999e-01,5.89769e-01,9.99999e-01
9.816374249e-01,5.95953e-01,9.99999e-01,9.99999e-01,5.95953e-01,9.99999e-01
9.865456120e-01,6.02077e-01,9.99999e-01,9.99999e-01,6.02077e-01,9.99999e-01
9.914783401e-01,6.08141e-01,9.99999e-01,9.99999e-01,6.08141e-01,9.99999e-01
9.964357318e-01,6.14145e-01,9.99999e-01,9.99999e-01,6.14145e-01,9.99999e-01
1.001417910e+00,6.20087e-01,9.99999e-01,9.99999e-01,6.20087e-01,9.99999e-01
1.006425000e+00,6.25968e-01,9.99999e-01,9.99999e-01,6.25968e-01,9.99999e-01
1.011457125e+00,6.31788e-01,9.99999e-01,9.99999e-01,6.31788e-01,9.99999e-01
1.016514411e+00,6.37544e-01,9.99999e-01,9.99999e-01,6.37544e-01,9.99999e-01
1.021596983e+00,6.43186e-01,9.99999e-01,9.99918e-01,6.43238e-01,9.99999e-01
1.026704968e+00,6.44579e-01,9.99999e-01,9.93388e-01,6.48869e-01,9.99999e-01
1.031838492e+00,6.13972e-01,9.99999e-01,9.38169e-01,6.54436e-01,9.99999e-01
1.036997685e+00,5.95332e-02,9.99999e-01,9.02100e-02,6.59940e-01,9.99999e-01
1.042182673e+00,1.78828e-02,9.99999e-01,2.68761e-02,6.65380e-01,9.99999e-01
1.047393587e+00,3.16287e-02,9.99999e-01,4.71539e-02,6.70756e-01,9.99999e-01
1.052630555e+00,9.04030e-05,9.99999e-01,1.33719e-04,6.76067e-01,9.99999e-01
1.057893707e+00,2.95933e-04,9.99999e-01,4.34355e-04,6.81315e-01,9.99999e-01
1.063183176e+00,2.15316e-03,9.99999e-01,3.13644e-03,6.86499e-01,9.99999e-01
1.068499092e+00,1.07742e-02,9.99999e-01,1.55782e-02,6.91619e-01,9.99999e-01
1.073841587e+00,4.89803e-02,9.99999e-01,7.03059e-02,6.96674e-01,9.99999e-01
1.079210795e+00,1.30853e-01,9.99999e-01,1.86488e-01,7.01666e-01,9.99999e-01
1.084606849e+00,2.76479e-01,9.99999e-01,3.91285e-01,7.06593e-01,9.99999e-01
1.090029883e+00,4.36447e-01,9.99999e-01,6.13454e-01,7.11457e-01,9.99999e-01
1.095480033e+00,5.62573e-01,9.99999e-01,7.85433e-01,7.16258e-01,9.99999e-01
1.100957433e+00,6.41645e-01,9.99999e-01,8.89944e-01,7.20995e-01,9.99999e-01
1.106462220e+00,6.91446e-01,9.99999e-01,9.52839e-01,7.25668e-01,9.99999e-01
1.111994531e+00,7.17315e-01,9.99999e-01,9.82247e-01,7.30279e-01,9.99999e-01
1.117554504e+00,7.31605e-01,9.99999e-01,9.95614e-01,7.34827e-01,9.99999e-01
1.123142276e+00,7.39099e-01,9.99999e-01,9.99709e-01,7.39313e-01,9.99999e-01
1.128757988e+00,7.43737e-01,9.99999e-01,9.99999e-01,7.43737e-01,9.99999e-01
1.134401778e+00,7.48099e-01,9.99999e-01,9.99999e-01,7.48099e-01,9.99999e-01
1.140073787e+00,7.52400e-01,9.99999e-01,9.99999e-01,7.52400e-01,9.99999e-01
1.145774156e+00,7.56640e-01,9.99999e-01,9.99999e-01,7.56640e-01,9.99999e-01
1.151503026e+00,7.60819e-01,9.99999e-01,9.99999e-01,7.60819e-01,9.99999e-01
1.157260541e+00,7.64938e-01,9.99999e-01,9.99999e-01,7.64938e-01,9.99999e-01
1.163046844e+00,7.68998e-01,9.99999e-01,9.99999e-01,7.68998e-01,9.99999e-01
1.168862078e+00,7.72998e-01,9.99999e-01,9.99999e-01,7.72998e-01,9.99999e-01
1.174706389e+00,7.76939e-01,9.99999e-01,9.99999e-01,7.76939e-01,9.99999e-01
1.180579921e+00,7.80822e-01,9.99999e-01,9.99999e-01,7.80822e-01,9.99999e-01
1.186482820e+00,7.84641e-01,9.99999e-01,9.99991e-01,7.84647e-01,9.99999e-01
1.192415234e+00,7.70321e-01,9.99999e-01,9.77049e-01,7.88415e-01,9.99999e-01
1.198377311e+00,4.31444e-01,9.99999e-01,5.44665e-01,7.92126e-01,9.99999e-01
1.204369197e+00,1.58770e-18,9.99999e-01,1.99514e-18,7.95781e-01,9.99999e-01
1.210391043e+00,3.56015e-72,9.99999e-01,4.45364e-72,7.99379e-01,9.99999e-01
1.216442998e+00,1.39457e-62,9.99999e-01,1.73686e-62,8.02923e-01,9.99999e-01
1.222525213e+00,1.17548e-61,9.99999e-01,1.45767e-61,8.06412e-01,9.99999e-01
1.228637839e+00,1.06961e-47,9.99999e-01,1.32076e-47,8.09846e-01,9.99999e-01
1.234781029e+00,4.50055e-30,9.99999e-01,5.53418e-30,8.13227e-01,9.99999e-01
1.240954934e+00,3.86713e-20,9.99999e-01,4.73591e-20,8.16555e-01,9.99999e-01
1.247159708e+00,4.67121e-13,9.99999e-01,5.69777e-13,8.19830e-01,9.99999e-01
1.253395507e+00,7.19781e-07,9.99999e-01,8.74525e-07,8.23053e-01,9.99999e-01
1.259662485e+00,1.67576e-04,9.99999e-01,2.02821e-04,8.26225e-01,9.99999e-01
1.265960797e+00,8.66383e-03,9.99999e-01,1.04466e-02,8.29346e-01,9.99999e-01
1.272290601e+00,9.52716e-02,9.99999e-01,1.14452e-01,8.32417e-01,9.99999e-01
1.278652054e+00,9.74443e-02,9.99999e-01,1.16638e-01,8.35439e-01,9.99999e-01
1.285045314e+00,7.51679e-04,9.99999e-01,8.96551e-04,8.38411e-01,9.99999e-01
1.291470541e+00,5.45755e-09,9.99999e-01,6.48676e-09,8.41335e-01,9.99999e-01
1.297927893e+00,2.14572e-04,9.99999e-01,2.54169e-04,8.44211e-01,9.99999e-01
1.304417533e+00,2.12011e-02,9.99999e-01,2.50296e-02,8.47039e-01,9.99999e-01
1.310939621e+00,5.24678e-03,9.99999e-01,6.17398e-03,8.49822e-01,9.99999e-01
1.317494319e+00,4.92952e-25,9.99999e-01,5.78203e-25,8.52557e-01,9.99999e-01
1.324081790e+00,9.36901e-17,9.99999e-01,1.09547e-16,8.55248e-01,9.99999e-01
1.330702199e+00,6.09071e-10,9.99999e-01,7.09961e-10,8.57894e-01,9.99999e-01
1.337355710e+00,2.33981e-09,9.99999e-01,2.71914e-09,8.60495e-01,9.99999e-01
1.344042489e+00,9.46470e-10,9.99999e-01,1.09665e-09,8.63052e-01,9.99999e-01
1.350762701e+00,3.24886e-10,9.99999e-01,3.75345e-10,8.65567e-01,9.99999e-01
1.357516515e+00,1.33261e-06,9.99999e-01,1.53519e-06,8.68038e-01,9.99999e-01
1.364304097e+00,9.02376e-05,9.99999e-01,1.03665e-04,8.70468e-01,9.99999e-01
1.371125618e+00,7.78151e-03,9.99999e-01,8.91498e-03,8.72857e-01,9.99999e-01
1.377981246e+00,1.62759e-02,9.99999e-01,1.85966e-02,8.75204e-01,9.99999e-01
1.384871152e+00,8.62870e-02,9.99999e-01,9.83314e-02,8.77512e-01,9.99999e-01
1.391795508e+00,1.02866e-01,9.99999e-01,1.16923e-01,8.79780e-01,9.99999e-01
1.398754485e+00,2.32205e-01,9.99999e-01,2.63269e-01,8.82008e-01,9.99999e-01
1.405748258e+00,3.32099e-01,9.99999e-01,3.75593e-01,8.84198e-01,9.99999e-01
1.412776999e+00,4.76188e-01,9.99999e-01,5.37245e-01,8.86350e-01,9.99999e-01
1.419840884e+00,4.34728e-01,9.99999e-01,4.89302e-01,8.88465e-01,9.99999e-01
1.426940089e+00,2.53049e-02,9.99999e-01,2.84151e-02,8.90543e-01,9.99999e-01
1.434074789e+00,0.00000e+00,9.99999e-01,0.00000e+00,8.92584e-01,9.99999e-01
1.441245163e+00,0.00000e+00,9.99999e-01,0.00000e+00,8.94590e-01,9.99999e-01
1.448451389e+00,0.00000e+00,9.99999e-01,0.00000e+00,8.96560e-01,9.99999e-01
1.455693646e+00,0.00000e+00,9.99999e-01,0.00000e+00,8.98496e-01,9.99999e-01
1.462972114e+00,4.50470e-286,9.99999e-01,5.00301e-286,9.00398e-01,9.99999e-01
1.470286975e+00,4.89891e-119,9.99999e-01,5.42956e-119,9.02266e-01,9.99999e-01
