#,Wave/freq,Total,O2,CO2,Rayleigh,CIA
4.000000000e-01,8.12438e-27,9.99999e-01,9.99999e-01,8.12438e-27,9.99999e-01
4.020000000e-01,2.66475e-26,9.99999e-01,9.99999e-01,2.66475e-26,9.99999e-01
4.040100000e-01,8.52732e-26,9.99999e-01,9.99999e-01,8.52732e-26,9.99999e-01
4.060300500e-01,2.66680e-25,9.99999e-01,9.99999e-01,2.66680e-25,9.99999e-01
4.080602003e-01,8.15434e-25,9.99999e-01,9.99999e-01,8.15434e-25,9.99999e-01
4.101005013e-01,2.43892e-24,9.99999e-01,9.99999e-01,2.43892e-24,9.99999e-01
4.121510038e-01,7.13854e-24,9.99999e-01,9.99999e-01,7.13854e-24,9.99999e-01
4.142117588e-01,2.04554e-23,9.99999e-01,9.99999e-01,2.04554e-23,9.99999e-01
4.162828176e-01,5.74085e-23,9.99999e-01,9.99999e-01,5.74085e-23,9.99999e-01
4.183642317e-01,1.57867e-22,9.99999e-01,9.99999e-01,1.57867e-22,9.99999e-01
4.204560528e-01,4.25529e-22,9.99999e-01,9.99999e-01,4.25529e-22,9.99999e-01
4.225583331e-01,1.12476e-21,9.99999e-01,9.99999e-01,1.12476e-21,9.99999e-01
4.246711247e-01,2.91645e-21,9.99999e-01,9.99999e-01,2.91645e-21,9.99999e-01
4.267944804e-01,7.42120e-21,9.99999e-01,9.99999e-01,7.42120e-21,9.99999e-01
4.289284528e-01,1.85388e-20,9.99999e-01,9.99999e-01,1.85388e-20,9.99999e-01
4.310730950e-01,4.54817e-20,9.99999e-01,9.99999e-01,4.54817e-20,9.99999e-01
4.332284605e-01,1.09621e-19,9.99999e-01,9.99999e-01,1.09621e-19,9.99999e-01
4.353946028e-01,2.59658e-19,9.99999e-01,9.99999e-01,2.59658e-19,9.99999e-01
4.375715758e-01,6.04662e-19,9.99999e-01,9.99999e-01,6.04662e-19,9.99999e-01
4.397594337e-01,1.38476e-18,9.99999e-01,9.99999e-01,1.38476e-18,9.99999e-01
4.419582309e-01,3.11979e-18,9.99999e-01,9.99999e-01,3.11979e-18,9.99999e-01
4.441680220e-01,6.91687e-18,9.99999e-01,9.99999e-01,6.91687e-18,9.99999e-01
4.463888621e-01,1.50961e-17,9.99999e-01,9.99999e-01,1.50961e-17,9.99999e-01
4.486208064e-01,3.24432e-17,9.99999e-01,9.99999e-01,3.24432e-17,9.99999e-01
4.508639105e-01,6.86783e-17,9.99999e-01,9.99999e-01,6.86783e-17,9.99999e-01
4.531182300e-01,1.43246e-16,9.99999e-01,9.99999e-01,1.43246e-16,9.99999e-01
4.553838212e-01,2.94468e-16,9.99999e-01,9.99999e-01,2.94468e-16,9.99999e-01
4.576607403e-01,5.96779e-16,9.99999e-01,9.99999e-01,5.96779e-16,9.99999e-01
4.599490440e-01,1.19269e-15,9.99999e-01,9.99999e-01,1.19269e-15,9.99999e-01
4.622487892e-01,2.35128e-15,9.99999e-01,9.99999e-01,2.35128e-15,9.99999e-01
4.645600332e-01,4.57359e-15,9.99999e-01,9.99999e-01,4.57359e-15,9.99999e-01
4.668828333e-01,8.78017e-15,9.99999e-01,9.99999e-01,8.78017e-15,9.99999e-01
4.692172475e-01,1.66400e-14,9.99999e-01,9.99999e-01,1.66400e-14,9.99999e-01
4.715633337e-01,3.11401e-14,9.99999e-01,9.99999e-01,3.11401e-14,9.99999e-01
4.739211504e-01,5.75586e-14,9.99999e-01,9.99999e-01,5.75586e-14,9.99999e-01
4.762907561e-01,1.05107e-13,9.99999e-01,9.99999e-01,1.05107e-13,9.99999e-01
4.786722099e-01,1.89664e-13,9.99999e-01,9.99999e-01,1.89664e-13,9.99999e-01
4.810655710e-01,3.38281e-13,9.99999e-01,9.99999e-01,3.38281e-13,9.99999e-01
4.834708988e-01,5.96492e-13,9.99999e-01,9.99999e-01,5.96492e-13,9.99999e-01
4.858882533e-01,1.04008e-12,9.99999e-01,9.99999e-01,1.04008e-12,9.99999e-01
4.883176946e-01,1.79374e-12,9.99999e-01,9.99999e-01,1.79374e-12,9.99999e-01
4.907592831e-01,3.06039e-12,9.99999e-01,9.99999e-01,3.06039e-12,9.99999e-01
4.932130795e-01,5.16668e-12,9.99999e-01,9.99999e-01,5.16668e-12,9.99999e-01
4.956791449e-01,8.63284e-12,9.99999e-01,9.99999e-01,8.63284e-12,9.99999e-01
4.981575406e-01,1.42788e-11,9.99999e-01,9.99999e-01,1.42788e-11,9.99999e-01
5.006483283e-01,2.33837e-11,9.99999e-01,9.99999e-01,2.33837e-11,9.99999e-01
5.031515699e-01,3.79231e-11,9.99999e-01,9.99999e-01,3.79231e-11,9.99999e-01
5.056673278e-01,6.09181e-11,9.99999e-01,9.99999e-01,6.09181e-11,9.99999e-01
5.081956644e-01,9.69444e-11,9.99999e-01,9.99999e-01,9.69444e-11,9.99999e-01
5.107366428e-01,1.52867e-10,9.99999e-01,9.99999e-01,1.52867e-10,9.99999e-01
5.132903260e-01,2.38890e-10,9.99999e-01,9.99999e-01,2.38890e-10,9.99999e-01
5.158567776e-01,3.70043e-10,9.99999e-01,9.99999e-01,3.70043e-10,9.99999e-01
5.184360615e-01,5.68268e-10,9.99999e-01,9.99999e-01,5.68268e-10,9.99999e-01
5.210282418e-01,8.65313e-10,9.99999e-01,9.99999e-01,8.65313e-10,9.99999e-01
5.236333830e-01,1.30673e-09,9.99999e-01,9.99999e-01,1.30673e-09,9.99999e-01
5.262515499e-01,1.95733e-09,9.99999e-01,9.99999e-01,1.95733e-09,9.99999e-01
5.288828077e-01,2.90854e-09,9.99999e-01,9.99999e-01,2.90854e-09,9.99999e-01
5.315272217e-01,4.28833e-09,9.99999e-01,9.99999e-01,4.28833e-09,9.99999e-01
5.341848578e-01,6.27439e-09,9.99999e-01,9.99999e-01,6.27439e-09,9.99999e-01
5.368557821e-01,9.11150e-09,9.99999e-01,9.99999e-01,9.11150e-09,9.99999e-01
5.395400610e-01,1.31343e-08,9.99999e-01,9.99999e-01,1.31343e-08,9.99999e-01
5.422377613e-01,1.87970e-08,9.99999e-01,9.99999e-01,1.87970e-08,9.99999e-01
5.449489501e-01,2.67113e-08,9.99999e-01,9.99999e-01,2.67113e-08,9.99999e-01
5.476736949e-01,3.76952e-08,9.99999e-01,9.99999e-01,3.76952e-08,9.99999e-01
5.504120634e-01,5.28352e-08,9.99999e-01,9.99999e-01,5.28352e-08,9.99999e-01
5.531641237e-01,7.35637e-08,9.99999e-01,9.99999e-01,7.35637e-08,9.99999e-01
5.559299443e-01,1.01757e-07,9.99999e-01,9.99999e-01,1.01757e-07,9.99999e-01
5.587095940e-01,1.39856e-07,9.99999e-01,9.99999e-01,1.39856e-07,9.99999e-01
5.615031420e-01,1.91017e-07,9.99999e-01,9.99999e-01,1.91017e-07,9.99999e-01
5.643106577e-01,2.59291e-07,9.99999e-01,9.99999e-01,2.59291e-07,9.99999e-01
5.671322110e-01,3.49850e-07,9.99999e-01,9.99999e-01,3.49850e-07,9.99999e-01
5.699678720e-01,4.69252e-07,9.99999e-01,9.99999e-01,4.69252e-07,9.99999e-01
5.728177114e-01,6.25765e-07,9.99999e-01,9.99999e-01,6.25765e-07,9.99999e-01
5.756818000e-01,8.29751e-07,9.99999e-01,9.99999e-01,8.29751e-07,9.99999e-01
5.785602090e-01,1.09412e-06,9.99999e-01,9.99999e-01,1.09412e-06,9.99999e-01
5.814530100e-01,1.43485e-06,9.99999e-01,9.99999e-01,1.43485e-06,9.99999e-01
5.843602750e-01,1.87165e-06,9.99999e-01,9.99999e-01,1.87165e-06,9.99999e-01
5.872820764e-01,2.42863e-06,9.99999e-01,9.99999e-01,2.42863e-06,9.99999e-01
5.902184868e-01,3.13520e-06,9.99999e-01,9.99999e-01,3.13520e-06,9.99999e-01
5.931695792e-01,4.02696e-06,9.99999e-01,9.99999e-01,4.02696e-06,9.99999e-01
5.961354271e-01,5.14686e-06,9.99999e-01,9.99999e-01,5.14686e-06,9.99999e-01
5.991161043e-01,6.54640e-06,9.99999e-01,9.99999e-01,6.54640e-06,9.99999e-01
6.021116848e-01,8.28704e-06,9.99999e-01,9.99999e-01,8.28704e-06,9.99999e-01
6.051222432e-01,1.04418e-05,9.99999e-01,9.99999e-01,1.04418e-05,9.99999e-01
6.081478544e-01,1.30968e-05,9.99999e-01,9.99999e-01,1.30968e-05,9.99999e-01
6.111885937e-01,1.63536e-05,9.99999e-01,9.99999e-01,1.63536e-05,9.99999e-01
6.142445367e-01,2.03309e-05,9.99999e-01,9.99999e-01,2.03309e-05,9.99999e-01
6.173157594e-01,2.51670e-05,9.99999e-01,9.99999e-01,2.51670e-05,9.99999e-01
6.204023382e-01,3.10225e-05,9.99999e-01,9.99999e-01,3.10225e-05,9.99999e-01
6.235043498e-01,3.80827e-05,9.99999e-01,9.99999e-01,3.80827e-05,9.99999e-01
6.266218716e-01,4.65606e-05,9.99999e-01,9.99999e-01,4.65606e-05,9.99999e-01
6.297549810e-01,5.67004e-05,9.99999e-01,9.99999e-01,5.67004e-05,9.99999e-01
6.329037559e-01,6.87802e-05,9.99999e-01,9.99999e-01,6.87802e-05,9.99999e-01
6.360682746e-01,8.31158e-05,9.99999e-01,9.99999e-01,8.31158e-05,9.99999e-01
6.392486160e-01,1.00065e-04,9.99999e-01,9.99999e-01,1.00065e-04,9.99999e-01
6.424448591e-01,1.20029e-04,9.99999e-01,9.99999e-01,1.20029e-04,9.99999e-01
6.456570834e-01,1.43459e-04,9.99999e-01,9.99999e-01,1.43459e-04,9.99999e-01
6.488853688e-01,1.70861e-04,9.99999e-01,9.99999e-01,1.70861e-04,9.99999e-01
6.521297956e-01,2.02795e-04,9.99999e-01,9.99999e-01,2.02795e-04,9.99999e-01
6.553904446e-01,2.39884e-04,9.99999e-01,9.99999e-01,2.39884e-04,9.99999e-01
6.586673968e-01,2.82817e-04,9.99999e-01,9.99999e-01,2.82817e-04,9.99999e-01
6.619607338e-01,3.32351e-04,9.99999e-01,9.99999e-01,3.32351e-04,9.99999e-01
6.652705375e-01,3.89318e-04,9.99999e-01,9.99999e-01,3.89318e-04,9.99999e-01
6.685968902e-01,4.54626e-04,9.99999e-01,9.99999e-01,4.54626e-04,9.99999e-01
6.719398746e-01,5.29266e-04,9.99999e-01,9.99999e-01,5.29266e-04,9.99999e-01
6.752995740e-01,6.14313e-04,9.99999e-01,9.99999e-01,6.14313e-04,9.99999e-01
6.786760719e-01,7.10930e-04,9.99999e-01,9.99999e-01,7.10930e-04,9.99999e-01
6.820694522e-01,8.20372e-04,9.99999e-01,9.99999e-01,8.20372e-04,9.99999e-01
6.854797995e-01,9.43989e-04,9.99999e-01,9.99999e-01,9.43989e-04,9.99999e-01
6.889071985e-01,1.08323e-03,9.99999e-01,9.99999e-01,1.08323e-03,9.99999e-01
6.923517345e-01,1.23963e-03,9.99999e-01,9.99999e-01,1.23963e-03,9.99999e-01
6.958134932e-01,1.41483e-03,9.99999e-01,9.99999e-01,1.41483e-03,9.99999e-01
6.992925606e-01,1.61059e-03,9.99999e-01,9.99999e-01,1.61059e-03,9.99999e-01
7.027890234e-01,1.82875e-03,9.99999e-01,9.99999e-01,1.82875e-03,9.99999e-01
7.063029686e-01,2.07126e-03,9.99999e-01,9.99999e-01,2.07126e-03,9.99999e-01
7.098344834e-01,2.34016e-03,9.99999e-01,9.99999e-01,2.34016e-03,9.99999e-01
7.133836558e-01,2.63760e-03,9.99999e-01,9.99999e-01,2.63760e-03,9.99999e-01
7.169505741e-01,2.96583e-03,9.99999e-01,9.99999e-01,2.96583e-03,9.99999e-01
7.205353270e-01,3.32719e-03,9.99999e-01,9.99999e-01,3.32719e-03,9.99999e-01
7.241380036e-01,3.72411e-03,9.99999e-01,9.99999e-01,3.72411e-03,9.99999e-01
7.277586936e-01,4.15912e-03,9.99999e-01,9.99999e-01,4.15912e-03,9.99999e-01
7.313974871e-01,4.63481e-03,9.99999e-01,9.99999e-01,4.63481e-03,9.99999e-01
7.350544745e-01,5.15387e-03,9.99999e-01,9.99999e-01,5.15387e-03,9.99999e-01
7.387297469e-01,5.71906e-03,9.99999e-01,9.99999e-01,5.71906e-03,9.99999e-01
7.424233956e-01,6.33319e-03,9.99999e-01,9.99999e-01,6.33319e-03,9.99999e-01
7.461355126e-01,6.99917e-03,9.99999e-01,9.99999e-01,6.99917e-03,9.99999e-01
7.498661902e-01,7.71990e-03,9.99999e-01,9.99999e-01,7.71990e-03,9.99999e-01
7.536155211e-01,8.49839e-03,9.99999e-01,9.99999e-01,8.49839e-03,9.99999e-01
7.573835987e-01,9.33765e-03,9.99999e-01,9.99999e-01,9.33765e-03,9.99999e-01
7.611705167e-01,1.02407e-02,9.99999e-01,9.99999e-01,1.02407e-02,9.99999e-01
7.649763693e-01,1.12107e-02,9.99999e-01,9.99999e-01,1.12107e-02,9.99999e-01
7.688012511e-01,1.22506e-02,9.99999e-01,9.99999e-01,1.22506e-02,9.99999e-01
7.726452574e-01,1.33635e-02,9.99999e-01,9.99999e-01,1.33635e-02,9.99999e-01
7.765084837e-01,1.45525e-02,9.99999e-01,9.99999e-01,1.45525e-02,9.99999e-01
7.803910261e-01,1.36384e-02,9.99999e-01,8.62066e-01,1.58206e-02,9.99999e-01
7.842929812e-01,7.85229e-03,9.99999e-01,4.57301e-01,1.71709e-02,9.99999e-01
7.882144461e-01,8.20864e-03,9.99999e-01,4.41174e-01,1.86063e-02,9.99999e-01
7.921555184e-01,1.18744e-02,9.99999e-01,5.89891e-01,2.01298e-02,9.99999e-01
7.961162960e-01,1.51722e-02,9.99999e-01,6.97760e-01,2.17442e-02,9.99999e-01
8.000968774e-01,1.92787e-02,9.99999e-01,8.22041e-01,2.34522e-02,9.99999e-01
8.040973618e-01,2.28175e-02,9.99999e-01,9.03423e-01,2.52567e-02,9.99999e-01
8.081178486e-01,2.59156e-02,9.99999e-01,9.54172e-01,2.71603e-02,9.99999e-01
8.121584379e-01,2.87498e-02,9.99999e-01,9.85750e-01,2.91654e-02,9.99999e-01
8.162192301e-01,3.11755e-02,9.99999e-01,9.96832e-01,3.12745e-02,9.99999e-01
8.203003262e-01,3.34885e-02,9.99999e-01,9.99956e-01,3.34899e-02,9.99999e-01
8.244018279e-01,3.58138e-02,9.99999e-01,9.99999e-01,3.58138e-02,9.99999e-01
8.285238370e-01,3.82483e-02,9.99999e-01,9.99999e-01,3.82483e-02,9.99999e-01
8.326664562e-01,4.07952e-02,9.99999e-01,9.99999e-01,4.07952e-02,9.99999e-01
8.368297885e-01,4.34563e-02,9.99999e-01,9.99999e-01,4.34563e-02,9.99999e-01
8.410139374e-01,4.62333e-02,9.99999e-01,9.99999e-01,4.62333e-02,9.99999e-01
8.452190071e-01,4.91275e-02,9.99999e-01,9.99999e-01,4.91275e-02,9.99999e-01
8.494451021e-01,5.21404e-02,9.99999e-01,9.99999e-01,5.21404e-02,9.99999e-01
8.536923276e-01,5.52731e-02,9.99999e-01,9.99999e-01,5.52731e-02,9.99999e-01
8.579607893e-01,5.85264e-02,9.99999e-01,9.99999e-01,5.85264e-02,9.99999e-01
8.622505932e-01,6.19013e-02,9.99999e-01,9.99999e-01,6.19013e-02,9.99999e-01
8.665618462e-01,5.41350e-02,9.99999e-01,8.27773e-01,6.53983e-02,9.99999e-01
8.708946554e-01,1.05706e-02,9.99999e-01,1.53158e-01,6.90180e-02,9.99999e-01
8.752491287e-01,1.43594e-02,9.99999e-01,1.97351e-01,7.27605e-02,9.99999e-01
8.796253743e-01,3.05171e-02,9.99999e-01,3.98260e-01,7.66260e-02,9.99999e-01
8.840235012e-01,4.91436e-02,9.99999e-01,6.09613e-01,8.06143e-02,9.99999e-01
8.884436187e-01,6.95535e-02,9.99999e-01,8.20928e-01,8.47253e-02,9.99999e-01
8.928858368e-01,8.20703e-02,9.99999e-01,9.22567e-01,8.89585e-02,9.99999e-01
8.973502660e-01,9.15118e-02,9.99999e-01,9.80693e-01,9.33134e-02,9.99999e-01
9.018370173e-01,9.75797e-02,9.99999e-01,9.97859e-01,9.77890e-02,9.99999e-01
9.063462024e-01,9.69557e-02,9.99999e-01,9.46975e-01,1.02385e-01,9.99999e-01
9.108779334e-01,9.43380e-02,9.99999e-01,8.80849e-01,1.07099e-01,9.99999e-01
9.154323231e-01,1.08672e-01,9.99999e-01,9.70885e-01,1.11931e-01,9.99999e-01
9.200094847e-01,8.37829e-02,9.99999e-01,7.16837e-01,1.16878e-01,9.99999e-01
9.246095321e-01,6.60046e-02,9.99999e-01,5.41284e-01,1.21941e-01,9.99999e-01
9.292325798e-01,7.95966e-02,9.99999e-01,6.26173e-01,1.27116e-01,9.99999e-01
9.338787427e-01,8.36006e-02,9.99999e-01,6.31415e-01,1.32402e-01,9.99999e-01
9.385481364e-01,9.77517e-02,9.99999e-01,7.09390e-01,1.37797e-01,9.99999e-01
9.432408771e-01,1.15893e-01,9.99999e-01,8.08755e-01,1.43298e-01,9.99999e-01
9.479570815e-01,1.33477e-01,9.99999e-01,8.96391e-01,1.48904e-01,9.99999e-01
9.526968669e-01,1.46700e-01,9.99999e-01,9.48823e-01,1.54612e-01,9.99999e-01
9.574603512e-01,1.56851e-01,9.99999e-01,9.77753e-01,1.60420e-01,9.99999e-01
9.622476530e-01,1.65162e-01,9.99999e-01,9.93010e-01,1.66325e-01,9.99999e-01
9.670588912e-01,1.71963e-01,9.99999e-01,9.97904e-01,1.72324e-01,9.99999e-01
9.718941857e-01,1.78388e-01,9.99999e-01,9.99854e-01,1.78414e-01,9.99999e-01
9.767536566e-01,1.84593e-01,9.99999e-01,9.99999e-01,1.84593e-01,9.99999e-01
9.816374249e-01,1.90857e-01,9.99999e-01,9.99999e-01,1.90857e-01,9.99999e-01
9.865456120e-01,1.97205e-01,9.99999e-01,9.99999e-01,1.97205e-01,9.99999e-01
9.914783401e-01,2.03631e-01,9.99999e-01,9.99999e-01,2.03631e-01,9.99999e-01
9.964357318e-01,2.10134e-01,9.99999e-01,9.99999e-01,2.10134e-01,9.99999e-01
1.001417910e+00,2.16710e-01,9.99999e-01,9.99999e-01,2.16710e-01,9.99999e-01
1.006425000e+00,2.23355e-01,9.99999e-01,9.99999e-01,2.23355e-01,9.99999e-01
1.011457125e+00,2.30068e-01,9.99999e-01,9.99999e-01,2.30068e-01,9.99999e-01
1.016514411e+00,2.36843e-01,9.99999e-01,9.99999e-01,2.36843e-01,9.99999e-01
1.021596983e+00,2.43596e-01,9.99999e-01,9.99663e-01,2.43678e-01,9.99999e-01
1.026704968e+00,2.45124e-01,9.99999e-01,9.78268e-01,2.50569e-01,9.99999e-01
1.031838492e+00,2.20461e-01,9.99999e-01,8.56111e-01,2.57514e-01,9.99999e-01
1.036997685e+00,5.87746e-03,9.99999e-01,2.22203e-02,2.64508e-01,9.99999e-01
1.042182673e+00,4.23712e-05,9.99999e-01,1.56035e-04,2.71548e-01,9.99999e-01
1.047393587e+00,1.16135e-04,9.99999e-01,4.16805e-04,2.78631e-01,9.99999e-01
1.052630555e+00,3.38068e-11,9.99999e-01,1.18307e-10,2.85754e-01,9.99999e-01
1.057893707e+00,1.28649e-10,9.99999e-01,4.39205e-10,2.92912e-01,9.99999e-01
1.063183176e+00,6.33526e-08,9.99999e-01,2.11102e-07,3.00103e-01,9.99999e-01
1.068499092e+00,1.84811e-06,9.99999e-01,6.01354e-06,3.07324e-01,9.99999e-01
1.073841587e+00,1.09786e-04,9.99999e-01,3.49003e-04,3.14570e-01,9.99999e-01
1.079210795e+00,2.32164e-03,9.99999e-01,7.21366e-03,3.21839e-01,9.99999e-01
1.084606849e+00,1.86601e-02,9.99999e-01,5.66957e-02,3.29127e-01,9.99999e-01
1.090029883e+00,7.38718e-02,9.99999e-01,2.19574e-01,3.36432e-01,9.99999e-01
1.095480033e+00,1.61891e-01,9.99999e-01,4.70955e-01,3.43750e-01,9.99999e-01
1.100957433e+00,2.43216e-01,9.99999e-01,6.92770e-01,3.51077e-01,9.99999e-01
1.106462220e+00,3.07814e-01,9.99999e-01,8.58828e-01,3.58412e-01,9.99999e-01
1.111994531e+00,3.45631e-01,9.99999e-01,9.44992e-01,3.65750e-01,9.99999e-01
1.117554504e+00,3.67995e-01,9.99999e-01,9.86345e-01,3.73089e-01,9.99999e-01
1.123142276e+00,3.80085e-01,9.99999e-01,9.99103e-01,3.80426e-01,9.99999e-01
1.128757988e+00,3.87758e-01,9.99999e-01,9.99999e-01,3.87758e-01,9.99999e-01
1.134401778e+00,3.95082e-01,9.99999e-01,9.99999e-01,3.95082e-01,9.99999e-01
1.140073787e+00,4.02396e-01,9.99999e-01,9.99999e-01,4.02396e-01,9.99999e-01
1.145774156e+00,4.09697e-01,9.99999e-01,9.99999e-01,4.09697e-01,9.99999e-01
1.151503026e+00,4.16983e-01,9.99999e-01,9.99999e-01,4.16983e-01,9.99999e-01
1.157260541e+00,4.24250e-01,9.99999e-01,9.99999e-01,4.24250e-01,9.99999e-01
1.163046844e+00,4.31496e-01,9.99999e-01,9.99999e-01,4.31496e-01,9.99999e-01
1.168862078e+00,4.38720e-01,9.99999e-01,9.99999e-01,4.38720e-01,9.99999e-01
1.174706389e+00,4.45918e-01,9.99999e-01,9.99999e-01,4.45918e-01,9.99999e-01
1.180579921e+00,4.53088e-01,9.99999e-01,9.99999e-01,4.53088e-01,9.99999e-01
1.186482820e+00,4.60206e-01,9.99999e-01,9.99949e-01,4.60229e-01,9.99999e-01
1.192415234e+00,4.34383e-01,9.99999e-01,9.29483e-01,4.67338e-01,9.99999e-01
1.198377311e+00,2.21809e-01,9.99999e-01,4.67543e-01,4.74413e-01,9.99999e-01
1.204369197e+00,2.43054e-54,9.99999e-01,5.04834e-54,4.81452e-01,9.99999e-01
1.210391043e+00,4.67766e-226,9.99999e-01,9.57644e-226,4.88454e-01,9.99999e-01
1.216442998e+00,2.37646e-195,9.99999e-01,4.79690e-195,4.95416e-01,9.99999e-01
1.222525213e+00,2.17594e-192,9.99999e-01,4.33162e-192,5.02337e-01,9.99999e-01
1.228637839e+00,5.45365e-148,9.99999e-01,1.07099e-147,5.09215e-01,9.99999e-01
1.234781029e+00,2.65683e-91,9.99999e-01,5.14841e-91,5.16049e-01,9.99999e-01
1.240954934e+00,5.11845e-60,9.99999e-01,9.78976e-60,5.22836e-01,9.99999e-01
1.247159708e+00,7.77242e-28,9.99999e-01,1.46766e-27,5.29577e-01,9.99999e-01
1.253395507e+00,5.93344e-19,9.99999e-01,1.10643e-18,5.36268e-01,9.99999e-01
1.259662485e+00,8.89294e-11,9.99999e-01,1.63801e-10,5.42909e-01,9.99999e-01
1.265960797e+00,3.63624e-06,9.99999e-01,6.61736e-06,5.49499e-01,9.99999e-01
1.272290601e+00,1.40232e-03,9.99999e-01,2.52199e-03,5.56037e-01,9.99999e-01
1.278652054e+00,1.57411e-03,9.99999e-01,2.79832e-03,5.62520e-01,9.99999e-01
1.285045314e+00,4.99443e-08,9.99999e-01,8.77833e-08,5.68949e-01,9.99999e-01
1.291470541e+00,2.17364e-25,9.99999e-01,3.77812e-25,5.75323e-01,9.99999e-01
1.297927893e+00,6.36719e-08,9.99999e-01,1.09470e-07,5.81639e-01,9.99999e-01
1.304417533e+00,8.86702e-06,9.99999e-01,1.50826e-05,5.87899e-01,9.99999e-01
1.310939621e+00,2.10270e-06,9.99999e-01,3.53931e-06,5.94100e-01,9.99999e-01
1.317494319e+00,6.26711e-77,9.99999e-01,1.04410e-76,6.00242e-01,9.99999e-01
1.324081790e+00,3.29296e-34,9.99999e-01,5.43101e-34,6.06324e-01,9.99999e-01
1.330702199e+00,4.45842e-29,9.99999e-01,7.28088e-29,6.12346e-01,9.99999e-01
1.337355710e+00,4.22414e-26,9.99999e-01,6.83177e-26,6.18307e-01,9.99999e-01
1.344042489e+00,2.87982e-26,9.99999e-01,4.61357e-26,6.24207e-01,9.99999e-01
1.350762701e+00,1.88042e-29,9.99999e-01,2.98459e-29,6.30044e-01,9.99999e-01
1.357516515e+00,4.10332e-17,9.99999e-01,6.45359e-17,6.35820e-01,9.99999e-01
1.364304097e+00,9.15023e-13,9.99999e-01,1.42631e-12,6.41533e-01,9.99999e-01
1.371125618e+00,6.31808e-07,9.99999e-01,9.76243e-07,6.47182e-01,9.99999e-01
1.377981246e+00,3.70020e-06,9.99999e-01,5.66846e-06,6.52769e-01,9.99999e-01
1.384871152e+00,5.19760e-04,9.99999e-01,7.89558e-04,6.58291e-01,9.99999e-01
1.391795508e+00,1.03528e-03,9.99999e-01,1.55974e-03,6.63751e-01,9.99999e-01
1.398754485e+00,9.82173e-03,9.99999e-01,1.46780e-02,6.69146e-01,9.99999e-01
1.405748258e+00,3.25742e-02,9.99999e-01,4.82954e-02,6.74477e-01,9.99999e-01
1.412776999e+00,9.72911e-02,9.99999e-01,1.43129e-01,6.79744e-01,9.99999e-01
1.419840884e+00,1.02987e-01,9.99999e-01,1.50357e-01,6.84947e-01,9.99999e-01
1.426940089e+00,2.47599e-03,9.99999e-01,3.58794e-03,6.90086e-01,9.99999e-01
1.434074789e+00,0.00000e+00,9.99999e-01,0.00000e+00,6.95161e-01,9.99999e-01
1.441245163e+00,0.00000e+00,9.99999e-01,0.00000e+00,7.00172e-01,9.99999e-01
1.448451389e+00,0.00000e+00,9.99999e-01,0.00000e+00,7.05118e-01,9.99999e-01
1.455693646e+00,0.00000e+00,9.99999e-01,0.00000e+00,7.10001e-01,9.99999e-01
1.462972114e+00,0.00000e+00,9.99999e-01,0.00000e+00,7.14821e-01,9.99999e-01
1.470286975e+00,0.00000e+00,9.99999e-01,0.00000e+00,7.19577e-01,9.99999e-01
