#,Wave/freq,Total,O2,CO2,Rayleigh,CIA
4.000000000e-01,1.77878e-17,9.99999e-01,9.99999e-01,1.77878e-17,9.99999e-01
4.020000000e-01,3.81337e-17,9.99999e-01,9.99999e-01,3.81337e-17,9.99999e-01
4.040100000e-01,8.04672e-17,9.99999e-01,9.99999e-01,8.04672e-17,9.99999e-01
4.060300500e-01,1.67310e-16,9.99999e-01,9.99999e-01,1.67310e-16,9.99999e-01
4.080602003e-01,3.42884e-16,9.99999e-01,9.99999e-01,3.42884e-16,9.99999e-01
4.101005013e-01,6.92813e-16,9.99999e-01,9.99999e-01,6.92813e-16,9.99999e-01
4.121510038e-01,1.38055e-15,9.99999e-01,9.99999e-01,1.38055e-15,9.99999e-01
4.142117588e-01,2.71377e-15,9.99999e-01,9.99999e-01,2.71377e-15,9.99999e-01
4.162828176e-01,5.26375e-15,9.99999e-01,9.99999e-01,5.26375e-15,9.99999e-01
4.183642317e-01,1.00771e-14,9.99999e-01,9.99999e-01,1.00771e-14,9.99999e-01
4.204560528e-01,1.90460e-14,9.99999e-01,9.99999e-01,1.90460e-14,9.99999e-01
4.225583331e-01,3.55477e-14,9.99999e-01,9.99999e-01,3.55477e-14,9.99999e-01
4.246711247e-01,6.55340e-14,9.99999e-01,9.99999e-01,6.55340e-14,9.99999e-01
4.267944804e-01,1.19364e-13,9.99999e-01,9.99999e-01,1.19364e-13,9.99999e-01
4.289284528e-01,2.14851e-13,9.99999e-01,9.99999e-01,2.14851e-13,9.99999e-01
4.310730950e-01,3.82261e-13,9.99999e-01,9.99999e-01,3.82261e-13,9.99999e-01
4.332284605e-01,6.72417e-13,9.99999e-01,9.99999e-01,6.72417e-13,9.99999e-01
4.353946028e-01,1.16970e-12,9.99999e-01,9.99999e-01,1.16970e-12,9.99999e-01
4.375715758e-01,2.01260e-12,9.99999e-01,9.99999e-01,2.01260e-12,9.99999e-01
4.397594337e-01,3.42600e-12,9.99999e-01,9.99999e-01,3.42600e-12,9.99999e-01
4.419582309e-01,5.77104e-12,9.99999e-01,9.99999e-01,5.77104e-12,9.99999e-01
4.441680220e-01,9.62160e-12,9.99999e-01,9.99999e-01,9.62160e-12,9.99999e-01
4.463888621e-01,1.58802e-11,9.99999e-01,9.99999e-01,1.58802e-11,9.99999e-01
4.486208064e-01,2.59517e-11,9.99999e-01,9.99999e-01,2.59517e-11,9.99999e-01
4.508639105e-01,4.20012e-11,9.99999e-01,9.99999e-01,4.20012e-11,9.99999e-01
4.531182300e-01,6.73330e-11,9.99999e-01,9.99999e-01,6.73330e-11,9.99999e-01
4.553838212e-01,1.06941e-10,9.99999e-01,9.99999e-01,1.06941e-10,9.99999e-01
4.576607403e-01,1.68304e-10,9.99999e-01,9.99999e-01,1.68304e-10,9.99999e-01
4.599490440e-01,2.62515e-10,9.99999e-01,9.99999e-01,2.62515e-10,9.99999e-01
4.622487892e-01,4.05881e-10,9.99999e-01,9.99999e-01,4.05881e-10,9.99999e-01
4.645600332e-01,6.22166e-10,9.99999e-01,9.99999e-01,6.22166e-10,9.99999e-01
4.668828333e-01,9.45692e-10,9.99999e-01,9.99999e-01,9.45692e-10,9.99999e-01
4.692172475e-01,1.42561e-09,9.99999e-01,9.99999e-01,1.42561e-09,9.99999e-01
4.715633337e-01,2.13173e-09,9.99999e-01,9.99999e-01,2.13173e-09,9.99999e-01
4.739211504e-01,3.16235e-09,9.99999e-01,9.99999e-01,3.16235e-09,9.99999e-01
4.762907561e-01,4.65486e-09,9.99999e-01,9.99999e-01,4.65486e-09,9.99999e-01
4.786722099e-01,6.79964e-09,9.99999e-01,9.99999e-01,6.79964e-09,9.99999e-01
4.810655710e-01,9.85858e-09,9.99999e-01,9.99999e-01,9.85858e-09,9.99999e-01
4.834708988e-01,1.41892e-08,9.99999e-01,9.99999e-01,1.41892e-08,9.99999e-01
4.858882533e-01,2.02756e-08,9.99999e-01,9.99999e-01,2.02756e-08,9.99999e-01
4.883176946e-01,2.87694e-08,9.99999e-01,9.99999e-01,2.87694e-08,9.99999e-01
4.907592831e-01,4.05402e-08,9.99999e-01,9.99999e-01,4.05402e-08,9.99999e-01
4.932130795e-01,5.67412e-08,9.99999e-01,9.99999e-01,5.67412e-08,9.99999e-01
4.956791449e-01,7.88909e-08,9.99999e-01,9.99999e-01,7.88909e-08,9.99999e-01
4.981575406e-01,1.08975e-07,9.99999e-01,9.99999e-01,1.08975e-07,9.99999e-01
5.006483283e-01,1.49575e-07,9.99999e-01,9.99999e-01,1.49575e-07,9.99999e-01
5.031515699e-01,2.04019e-07,9.99999e-01,9.99999e-01,2.04019e-07,9.99999e-01
5.056673278e-01,2.76581e-07,9.99999e-01,9.99999e-01,2.76581e-07,9.99999e-01
5.081956644e-01,3.72703e-07,9.99999e-01,9.99999e-01,3.72703e-07,9.99999e-01
5.107366428e-01,4.99280e-07,9.99999e-01,9.99999e-01,4.99280e-07,9.99999e-01
5.132903260e-01,6.64993e-07,9.99999e-01,9.99999e-01,6.64993e-07,9.99999e-01
5.158567776e-01,8.80708e-07,9.99999e-01,9.99999e-01,8.80708e-07,9.99999e-01
5.184360615e-01,1.15994e-06,9.99999e-01,9.99999e-01,1.15994e-06,9.99999e-01
5.210282418e-01,1.51942e-06,9.99999e-01,9.99999e-01,1.51942e-06,9.99999e-01
5.236333830e-01,1.97972e-06,9.99999e-01,9.99999e-01,1.97972e-06,9.99999e-01
5.262515499e-01,2.56603e-06,9.99999e-01,9.99999e-01,2.56603e-06,9.99999e-01
5.288828077e-01,3.30896e-06,9.99999e-01,9.99999e-01,3.30896e-06,9.99999e-01
5.315272217e-01,4.24562e-06,9.99999e-01,9.99999e-01,4.24562e-06,9.99999e-01
5.341848578e-01,5.42067e-06,9.99999e-01,9.99999e-01,5.42067e-06,9.99999e-01
5.368557821e-01,6.88761e-06,9.99999e-01,9.99999e-01,6.88761e-06,9.99999e-01
5.395400610e-01,8.71023e-06,9.99999e-01,9.99999e-01,8.71023e-06,9.99999e-01
5.422377613e-01,1.09642e-05,9.99999e-01,9.99999e-01,1.09642e-05,9.99999e-01
5.449489501e-01,1.37388e-05,9.99999e-01,9.99999e-01,1.37388e-05,9.99999e-01
5.476736949e-01,1.71390e-05,9.99999e-01,9.99999e-01,1.71390e-05,9.99999e-01
5.504120634e-01,2.12876e-05,9.99999e-01,9.99999e-01,2.12876e-05,9.99999e-01
5.531641237e-01,2.63274e-05,9.99999e-01,9.99999e-01,2.63274e-05,9.99999e-01
5.559299443e-01,3.24240e-05,9.99999e-01,9.99999e-01,3.24240e-05,9.99999e-01
5.587095940e-01,3.97684e-05,9.99999e-01,9.99999e-01,3.97684e-05,9.99999e-01
5.615031420e-01,4.85801e-05,9.99999e-01,9.99999e-01,4.85801e-05,9.99999e-01
5.643106577e-01,5.91100e-05,9.99999e-01,9.99999e-01,5.91100e-05,9.99999e-01
5.671322110e-01,7.16443e-05,9.99999e-01,9.99999e-01,7.16443e-05,9.99999e-01
5.699678720e-01,8.65071e-05,9.99999e-01,9.99999e-01,8.65071e-05,9.99999e-01
5.728177114e-01,1.04065e-04,9.99999e-01,9.99999e-01,1.04065e-04,9.99999e-01
5.756818000e-01,1.24731e-04,9.99999e-01,9.99999e-01,1.24731e-04,9.99999e-01
5.785602090e-01,1.48966e-04,9.99999e-01,9.99999e-01,1.48966e-04,9.99999e-01
5.814530100e-01,1.77288e-04,9.99999e-01,9.99999e-01,1.77288e-04,9.99999e-01
5.843602750e-01,2.10270e-04,9.99999e-01,9.99999e-01,2.10270e-04,9.99999e-01
5.872820764e-01,2.48548e-04,9.99999e-01,9.99999e-01,2.48548e-04,9.99999e-01
5.902184868e-01,2.92826e-04,9.99999e-01,9.99999e-01,2.92826e-04,9.99999e-01
5.931695792e-01,3.43877e-04,9.99999e-01,9.99999e-01,3.43877e-04,9.99999e-01
5.961354271e-01,4.02548e-04,9.99999e-01,9.99999e-01,4.02548e-04,9.99999e-01
5.991161043e-01,4.69766e-04,9.99999e-01,9.99999e-01,4.69766e-04,9.99999e-01
6.021116848e-01,5.46537e-04,9.99999e-01,9.99999e-01,5.46537e-04,9.99999e-01
6.051222432e-01,6.33957e-04,9.99999e-01,9.99999e-01,6.33957e-04,9.99999e-01
6.081478544e-01,7.33208e-04,9.99999e-01,9.99999e-01,7.33208e-04,9.99999e-01
6.111885937e-01,8.45564e-04,9.99999e-01,9.99999e-01,8.45564e-04,9.99999e-01
6.142445367e-01,9.72396e-04,9.99999e-01,9.99999e-01,9.72396e-04,9.99999e-01
6.173157594e-01,1.11517e-03,9.99999e-01,9.99999e-01,1.11517e-03,9.99999e-01
6.204023382e-01,1.27545e-03,9.99999e-01,9.99999e-01,1.27545e-03,9.99999e-01
6.235043498e-01,1.45490e-03,9.99999e-01,9.99999e-01,1.45490e-03,9.99999e-01
6.266218716e-01,1.65529e-03,9.99999e-01,9.99999e-01,1.65529e-03,9.99999e-01
6.297549810e-01,1.87849e-03,9.99999e-01,9.99999e-01,1.87849e-03,9.99999e-01
6.329037559e-01,2.12646e-03,9.99999e-01,9.99999e-01,2.12646e-03,9.99999e-01
6.360682746e-01,2.40128e-03,9.99999e-01,9.99999e-01,2.40128e-03,9.99999e-01
6.392486160e-01,2.70511e-03,9.99999e-01,9.99999e-01,2.70511e-03,9.99999e-01
6.424448591e-01,3.04023e-03,9.99999e-01,9.99999e-01,3.04023e-03,9.99999e-01
6.456570834e-01,3.40899e-03,9.99999e-01,9.99999e-01,3.40899e-03,9.99999e-01
6.488853688e-01,3.81384e-03,9.99999e-01,9.99999e-01,3.81384e-03,9.99999e-01
6.521297956e-01,4.25732e-03,9.99999e-01,9.99999e-01,4.25732e-03,9.99999e-01
6.553904446e-01,4.74205e-03,9.99999e-01,9.99999e-01,4.74205e-03,9.99999e-01
6.586673968e-01,5.27074e-03,9.99999e-01,9.99999e-01,5.27074e-03,9.99999e-01
6.619607338e-01,5.84616e-03,9.99999e-01,9.99999e-01,5.84616e-03,9.99999e-01
6.652705375e-01,6.47113e-03,9.99999e-01,9.99999e-01,6.47113e-03,9.99999e-01
6.685968902e-01,7.14857e-03,9.99999e-01,9.99999e-01,7.14857e-03,9.99999e-01
6.719398746e-01,7.88140e-03,9.99999e-01,9.99999e-01,7.88140e-03,9.99999e-01
6.752995740e-01,8.67263e-03,9.99999e-01,9.99999e-01,8.67263e-03,9.99999e-01
6.786760719e-01,9.52527e-03,9.99999e-01,9.99999e-01,9.52527e-03,9.99999e-01
6.820694522e-01,1.04424e-02,9.99999e-01,9.99999e-01,1.04424e-02,9.99999e-01
6.854797995e-01,1.14270e-02,9.99999e-01,9.99999e-01,1.14270e-02,9.99999e-01
6.889071985e-01,1.24823e-02,9.99999e-01,9.99999e-01,1.24823e-02,9.99999e-01
6.923517345e-01,1.36112e-02,9.99999e-01,9.99999e-01,1.36112e-02,9.99999e-01
6.958134932e-01,1.48169e-02,9.99999e-01,9.99999e-01,1.48169e-02,9.99999e-01
6.992925606e-01,1.61023e-02,9.99999e-01,9.99999e-01,1.61023e-02,9.99999e-01
7.027890234e-01,1.74706e-02,9.99999e-01,9.99999e-01,1.74706e-02,9.99999e-01
7.063029686e-01,1.89246e-02,9.99999e-01,9.99999e-01,1.89246e-02,9.99999e-01
7.098344834e-01,2.04672e-02,9.99999e-01,9.99999e-01,2.04672e-02,9.99999e-01
7.133836558e-01,2.21014e-02,9.99999e-01,9.99999e-01,2.21014e-02,9.99999e-01
7.169505741e-01,2.38299e-02,9.99999e-01,9.99999e-01,2.38299e-02,9.99999e-01
7.205353270e-01,2.56553e-02,9.99999e-01,9.99999e-01,2.56553e-02,9.99999e-01
7.241380036e-01,2.75804e-02,9.99999e-01,9.99999e-01,2.75804e-02,9.99999e-01
7.277586936e-01,2.96075e-02,9.99999e-01,9.99999e-01,2.96075e-02,9.99999e-01
7.313974871e-01,3.17392e-02,9.99999e-01,9.99999e-01,3.17392e-02,9.99999e-01
7.350544745e-01,3.39776e-02,9.99999e-01,9.99999e-01,3.39776e-02,9.99999e-01
7.387297469e-01,3.63250e-02,9.99999e-01,9.99999e-01,3.63250e-02,9.99999e-01
7.424233956e-01,3.87833e-02,9.99999e-01,9.99999e-01,3.87833e-02,9.99999e-01
7.461355126e-01,4.13545e-02,9.99999e-01,9.99999e-01,4.13545e-02,9.99999e-01
7.498661902e-01,4.40403e-02,9.99999e-01,9.99999e-01,4.40403e-02,9.99999e-01
7.536155211e-01,4.68422e-02,9.99999e-01,9.99999e-01,4.68422e-02,9.99999e-01
7.573835987e-01,4.97617e-02,9.99999e-01,9.99999e-01,4.97617e-02,9.99999e-01
7.611705167e-01,5.28001e-02,9.99999e-01,9.99999e-01,5.28001e-02,9.99999e-01
7.649763693e-01,5.59585e-02,9.99999e-01,9.99999e-01,5.59585e-02,9.99999e-01
7.688012511e-01,5.92378e-02,9.99999e-01,9.99999e-01,5.92378e-02,9.99999e-01
7.726452574e-01,6.26387e-02,9.99999e-01,9.99999e-01,6.26387e-02,9.99999e-01
7.765084837e-01,6.61619e-02,9.99999e-01,9.99999e-01,6.61619e-02,9.99999e-01
7.803910261e-01,6.27388e-02,9.99999e-01,8.98735e-01,6.98078e-02,9.99999e-01
7.842929812e-01,4.36214e-02,9.99999e-01,5.92869e-01,7.35766e-02,9.99999e-01
7.882144461e-01,4.45887e-02,9.99999e-01,5.75573e-01,7.74684e-02,9.99999e-01
7.921555184e-01,5.77674e-02,9.99999e-01,7.08949e-01,8.14830e-02,9.99999e-01
7.961162960e-01,6.78642e-02,9.99999e-01,7.92619e-01,8.56202e-02,9.99999e-01
8.000968774e-01,7.92086e-02,9.99999e-01,8.81275e-01,8.98795e-02,9.99999e-01
8.040973618e-01,8.82907e-02,9.99999e-01,9.36669e-01,9.42602e-02,9.99999e-01
8.081178486e-01,9.58270e-02,9.99999e-01,9.70285e-01,9.87615e-02,9.99999e-01
8.121584379e-01,1.02431e-01,9.99999e-01,9.90796e-01,1.03383e-01,9.99999e-01
8.162192301e-01,1.07902e-01,9.99999e-01,9.97959e-01,1.08122e-01,9.99999e-01
8.203003262e-01,1.12976e-01,9.99999e-01,9.99971e-01,1.12979e-01,9.99999e-01
8.244018279e-01,1.17951e-01,9.99999e-01,9.99999e-01,1.17951e-01,9.99999e-01
8.285238370e-01,1.23038e-01,9.99999e-01,9.99999e-01,1.23038e-01,9.99999e-01
8.326664562e-01,1.28237e-01,9.99999e-01,9.99999e-01,1.28237e-01,9.99999e-01
8.368297885e-01,1.33546e-01,9.99999e-01,9.99999e-01,1.33546e-01,9.99999e-01
8.410139374e-01,1.38964e-01,9.99999e-01,9.99999e-01,1.38964e-01,9.99999e-01
8.452190071e-01,1.44488e-01,9.99999e-01,9.99999e-01,1.44488e-01,9.99999e-01
8.494451021e-01,1.50116e-01,9.99999e-01,9.99999e-01,1.50116e-01,9.99999e-01
8.536923276e-01,1.55846e-01,9.99999e-01,9.99999e-01,1.55846e-01,9.99999e-01
8.579607893e-01,1.61675e-01,9.99999e-01,9.99999e-01,1.61675e-01,9.99999e-01
8.622505932e-01,1.67600e-01,9.99999e-01,9.99999e-01,1.67600e-01,9.99999e-01
8.665618462e-01,1.48532e-01,9.99999e-01,8.55510e-01,1.73618e-01,9.99999e-01
8.708946554e-01,4.98885e-02,9.99999e-01,2.77578e-01,1.79728e-01,9.99999e-01
8.752491287e-01,6.34865e-02,9.99999e-01,3.41462e-01,1.85925e-01,9.99999e-01
8.796253743e-01,1.04826e-01,9.99999e-01,5.45378e-01,1.92208e-01,9.99999e-01
8.840235012e-01,1.43956e-01,9.99999e-01,7.24955e-01,1.98572e-01,9.99999e-01
8.884436187e-01,1.80485e-01,9.99999e-01,8.80346e-01,2.05015e-01,9.99999e-01
8.928858368e-01,2.00836e-01,9.99999e-01,9.49425e-01,2.11534e-01,9.99999e-01
8.973502660e-01,2.15403e-01,9.99999e-01,9.87522e-01,2.18125e-01,9.99999e-01
9.018370173e-01,2.24475e-01,9.99999e-01,9.98619e-01,2.24785e-01,9.99999e-01
9.063462024e-01,2.23428e-01,9.99999e-01,9.65086e-01,2.31511e-01,9.99999e-01
9.108779334e-01,2.19574e-01,9.99999e-01,9.21419e-01,2.38299e-01,9.99999e-01
9.154323231e-01,2.40515e-01,9.99999e-01,9.81103e-01,2.45147e-01,9.99999e-01
9.200094847e-01,1.98418e-01,9.99999e-01,7.87214e-01,2.52050e-01,9.99999e-01
9.246095321e-01,1.73989e-01,9.99999e-01,6.71757e-01,2.59005e-01,9.99999e-01
9.292325798e-01,1.95678e-01,9.99999e-01,7.35603e-01,2.66010e-01,9.99999e-01
9.338787427e-01,2.02436e-01,9.99999e-01,7.41362e-01,2.73059e-01,9.99999e-01
9.385481364e-01,2.24337e-01,9.99999e-01,8.00771e-01,2.80151e-01,9.99999e-01
9.432408771e-01,2.50575e-01,9.99999e-01,8.72227e-01,2.87282e-01,9.99999e-01
9.479570815e-01,2.74447e-01,9.99999e-01,9.32076e-01,2.94447e-01,9.99999e-01
9.526968669e-01,2.91614e-01,9.99999e-01,9.66744e-01,3.01645e-01,9.99999e-01
9.574603512e-01,3.04434e-01,9.99999e-01,9.85633e-01,3.08871e-01,9.99999e-01
9.622476530e-01,3.14700e-01,9.99999e-01,9.95499e-01,3.16122e-01,9.99999e-01
9.670588912e-01,3.22960e-01,9.99999e-01,9.98651e-01,3.23396e-01,9.99999e-01
9.718941857e-01,3.30657e-01,9.99999e-01,9.99906e-01,3.30688e-01,9.99999e-01
9.767536566e-01,3.37996e-01,9.99999e-01,9.99999e-01,3.37996e-01,9.99999e-01
9.816374249e-01,3.45316e-01,9.99999e-01,9.99999e-01,3.45316e-01,9.99999e-01
9.865456120e-01,3.52645e-01,9.99999e-01,9.99999e-01,3.52645e-01,9.99999e-01
9.914783401e-01,3.59980e-01,9.99999e-01,9.99999e-01,3.59980e-01,9.99999e-01
9.964357318e-01,3.67319e-01,9.99999e-01,9.99999e-01,3.67319e-01,9.99999e-01
1.001417910e+00,3.74658e-01,9.99999e-01,9.99999e-01,3.74658e-01,9.99999e-01
1.006425000e+00,3.81994e-01,9.99999e-01,9.99999e-01,3.81994e-01,9.99999e-01
1.011457125e+00,3.89325e-01,9.99999e-01,9.99999e-01,3.89325e-01,9.99999e-01
1.016514411e+00,3.96647e-01,9.99999e-01,9.99999e-01,3.96647e-01,9.99999e-01
1.021596983e+00,4.03873e-01,9.99999e-01,9.99788e-01,4.03959e-01,9.99999e-01
1.026704968e+00,4.05486e-01,9.99999e-01,9.85967e-01,4.11256e-01,9.99999e-01
1.031838492e+00,3.72757e-01,9.99999e-01,8.90615e-01,4.18538e-01,9.99999e-01
1.036997685e+00,1.74842e-02,9.99999e-01,4.10619e-02,4.25801e-01,9.99999e-01
1.042182673e+00,6.88516e-04,9.99999e-01,1.58995e-03,4.33043e-01,9.99999e-01
1.047393587e+00,1.92164e-03,9.99999e-01,4.36478e-03,4.40261e-01,9.99999e-01
1.052630555e+00,5.97097e-08,9.99999e-01,1.33443e-07,4.47453e-01,9.99999e-01
1.057893707e+00,2.28303e-07,9.99999e-01,5.02186e-07,4.54618e-01,9.99999e-01
1.063183176e+00,1.08234e-05,9.99999e-01,2.34398e-05,4.61752e-01,9.99999e-01
1.068499092e+00,1.40030e-04,9.99999e-01,2.98664e-04,4.68854e-01,9.99999e-01
1.073841587e+00,2.48089e-03,9.99999e-01,5.21282e-03,4.75921e-01,9.99999e-01
1.079210795e+00,1.80441e-02,9.99999e-01,3.73620e-02,4.82953e-01,9.99999e-01
1.084606849e+00,7.49394e-02,9.99999e-01,1.52954e-01,4.89946e-01,9.99999e-01
1.090029883e+00,1.85339e-01,9.99999e-01,3.72991e-01,4.96900e-01,9.99999e-01
1.095480033e+00,3.09261e-01,9.99999e-01,6.13841e-01,5.03811e-01,9.99999e-01
1.100957433e+00,4.03008e-01,9.99999e-01,7.89160e-01,5.10680e-01,9.99999e-01
1.106462220e+00,4.69181e-01,9.99999e-01,9.06623e-01,5.17504e-01,9.99999e-01
1.111994531e+00,5.05543e-01,9.99999e-01,9.64258e-01,5.24282e-01,9.99999e-01
1.117554504e+00,5.26333e-01,9.99999e-01,9.91188e-01,5.31011e-01,9.99999e-01
1.123142276e+00,5.37382e-01,9.99999e-01,9.99422e-01,5.37692e-01,9.99999e-01
1.128757988e+00,5.44323e-01,9.99999e-01,9.99999e-01,5.44323e-01,9.99999e-01
1.134401778e+00,5.50901e-01,9.99999e-01,9.99999e-01,5.50901e-01,9.99999e-01
1.140073787e+00,5.57427e-01,9.99999e-01,9.99999e-01,5.57427e-01,9.99999e-01
1.145774156e+00,5.63899e-01,9.99999e-01,9.99999e-01,5.63899e-01,9.99999e-01
1.151503026e+00,5.70317e-01,9.99999e-01,9.99999e-01,5.70317e-01,9.99999e-01
1.157260541e+00,5.76678e-01,9.99999e-01,9.99999e-01,5.76678e-01,9.99999e-01
1.163046844e+00,5.82983e-01,9.99999e-01,9.99999e-01,5.82983e-01,9.99999e-01
1.168862078e+00,5.89229e-01,9.99999e-01,9.99999e-01,5.89229e-01,9.99999e-01
1.174706389e+00,5.95418e-01,9.99999e-01,9.99999e-01,5.95418e-01,9.99999e-01
1.180579921e+00,6.01547e-01,9.99999e-01,9.99999e-01,6.01547e-01,9.99999e-01
1.186482820e+00,6.07598e-01,9.99999e-01,9.99968e-01,6.07617e-01,9.99999e-01
1.192415234e+00,5.84594e-01,9.99999e-01,9.52687e-01,6.13626e-01,9.99999e-01
1.198377311e+00,3.12478e-01,9.99999e-01,5.04344e-01,6.19574e-01,9.99999e-01
1.204369197e+00,1.09442e-35,9.99999e-01,1.74979e-35,6.25460e-01,9.99999e-01
1.210391043e+00,6.43793e-146,9.99999e-01,1.01981e-145,6.31284e-01,9.99999e-01
1.216442998e+00,3.31504e-126,9.99999e-01,5.20375e-126,6.37047e-01,9.99999e-01
1.222525213e+00,2.63791e-124,9.99999e-01,4.10412e-124,6.42746e-01,9.99999e-01
1.228637839e+00,8.49067e-96,9.99999e-01,1.30951e-95,6.48382e-01,9.99999e-01
1.234781029e+00,2.05119e-59,9.99999e-01,3.13658e-59,6.53955e-01,9.99999e-01
1.240954934e+00,2.73248e-39,9.99999e-01,4.14348e-39,6.59464e-01,9.99999e-01
1.247159708e+00,1.12935e-18,9.99999e-01,1.69849e-18,6.64910e-01,9.99999e-01
1.253395507e+00,1.03260e-12,9.99999e-01,1.54052e-12,6.70291e-01,9.99999e-01
1.259662485e+00,1.67439e-07,9.99999e-01,2.47834e-07,6.75609e-01,9.99999e-01
1.265960797e+00,1.77434e-04,9.99999e-01,2.60602e-04,6.80862e-01,9.99999e-01
1.272290601e+00,1.30939e-02,9.99999e-01,1.90859e-02,6.86051e-01,9.99999e-01
1.278652054e+00,1.24185e-02,9.99999e-01,1.79672e-02,6.91176e-01,9.99999e-01
1.285045314e+00,5.93993e-06,9.99999e-01,8.53146e-06,6.96238e-01,9.99999e-01
1.291470541e+00,5.92711e-17,9.99999e-01,8.45238e-17,7.01235e-01,9.99999e-01
1.297927893e+00,7.07925e-06,9.99999e-01,1.00249e-05,7.06168e-01,9.99999e-01
1.304417533e+00,4.73360e-04,9.99999e-01,6.65731e-04,7.11037e-01,9.99999e-01
1.310939621e+00,9.50032e-05,9.99999e-01,1.32715e-04,7.15843e-01,9.99999e-01
1.317494319e+00,3.87746e-50,9.99999e-01,5.38097e-50,7.20586e-01,9.99999e-01
1.324081790e+00,3.30433e-32,9.99999e-01,4.55603e-32,7.25265e-01,9.99999e-01
1.330702199e+00,3.61640e-19,9.99999e-01,4.95478e-19,7.29881e-01,9.99999e-01
1.337355710e+00,1.99214e-17,9.99999e-01,2.71248e-17,7.34435e-01,9.99999e-01
1.344042489e+00,1.14658e-17,9.99999e-01,1.55168e-17,7.38926e-01,9.99999e-01
1.350762701e+00,1.75935e-19,9.99999e-01,2.36676e-19,7.43355e-01,9.99999e-01
1.357516515e+00,1.02263e-11,9.99999e-01,1.36766e-11,7.47723e-01,9.99999e-01
1.364304097e+00,1.11583e-08,9.99999e-01,1.48375e-08,7.52029e-01,9.99999e-01
1.371125618e+00,7.99696e-05,9.99999e-01,1.05741e-04,7.56274e-01,9.99999e-01
1.377981246e+00,2.64224e-04,9.99999e-01,3.47454e-04,7.60459e-01,9.99999e-01
1.384871152e+00,7.20988e-03,9.99999e-01,9.42981e-03,7.64583e-01,9.99999e-01
1.391795508e+00,1.06912e-02,9.99999e-01,1.39091e-02,7.68648e-01,9.99999e-01
1.398754485e+00,5.08424e-02,9.99999e-01,6.58023e-02,7.72653e-01,9.99999e-01
1.405748258e+00,1.08095e-01,9.99999e-01,1.39191e-01,7.76599e-01,9.99999e-01
1.412776999e+00,2.21768e-01,9.99999e-01,2.84140e-01,7.80487e-01,9.99999e-01
1.419840884e+00,2.12728e-01,9.99999e-01,2.71226e-01,7.84317e-01,9.99999e-01
1.426940089e+00,6.76654e-03,9.99999e-01,8.58599e-03,7.88090e-01,9.99999e-01
1.434074789e+00,0.00000e+00,9.99999e-01,0.00000e+00,7.91806e-01,9.99999e-01
1.441245163e+00,0.00000e+00,9.99999e-01,0.00000e+00,7.95465e-01,9.99999e-01
1.448451389e+00,0.00000e+00,9.99999e-01,0.00000e+00,7.99069e-01,9.99999e-01
1.455693646e+00,0.00000e+00,9.99999e-01,0.00000e+00,8.02617e-01,9.99999e-01
1.462972114e+00,0.00000e+00,9.99999e-01,0.00000e+00,8.06111e-01,9.99999e-01
1.470286975e+00,3.58128e-242,9.99999e-01,4.42379e-242,8.09550e-01,9.99999e-01
