#,Wave/freq,Total,O2,CO2,Rayleigh,CIA
4.000000000e-01,5.88300e-15,9.99999e-01,9.99999e-01,5.88300e-15,9.99999e-01
4.020000000e-01,1.12454e-14,9.99999e-01,9.99999e-01,1.12454e-14,9.99999e-01
4.040100000e-01,2.12081e-14,9.99999e-01,9.99999e-01,2.12081e-14,9.99999e-01
4.060300500e-01,3.94991e-14,9.99999e-01,9.99999e-01,3.94991e-14,9.99999e-01
4.080602003e-01,7.26671e-14,9.99999e-01,9.99999e-01,7.26671e-14,9.99999e-01
4.101005013e-01,1.32087e-13,9.99999e-01,9.99999e-01,1.32087e-13,9.99999e-01
4.121510038e-01,2.37276e-13,9.99999e-01,9.99999e-01,2.37276e-13,9.99999e-01
4.142117588e-01,4.21332e-13,9.99999e-01,9.99999e-01,4.21332e-13,9.99999e-01
4.162828176e-01,7.39722e-13,9.99999e-01,9.99999e-01,7.39722e-13,9.99999e-01
4.183642317e-01,1.28435e-12,9.99999e-01,9.99999e-01,1.28435e-12,9.99999e-01
4.204560528e-01,2.20581e-12,9.99999e-01,9.99999e-01,2.20581e-12,9.99999e-01
4.225583331e-01,3.74810e-12,9.99999e-01,9.99999e-01,3.74810e-12,9.99999e-01
4.246711247e-01,6.30240e-12,9.99999e-01,9.99999e-01,6.30240e-12,9.99999e-01
4.267944804e-01,1.04892e-11,9.99999e-01,9.99999e-01,1.04892e-11,9.99999e-01
4.289284528e-01,1.72827e-11,9.99999e-01,9.99999e-01,1.72827e-11,9.99999e-01
4.310730950e-01,2.81965e-11,9.99999e-01,9.99999e-01,2.81965e-11,9.99999e-01
4.332284605e-01,4.55596e-11,9.99999e-01,9.99999e-01,4.55596e-11,9.99999e-01
4.353946028e-01,7.29203e-11,9.99999e-01,9.99999e-01,7.29203e-11,9.99999e-01
4.375715758e-01,1.15633e-10,9.99999e-01,9.99999e-01,1.15633e-10,9.99999e-01
4.397594337e-01,1.81703e-10,9.99999e-01,9.99999e-01,1.81703e-10,9.99999e-01
4.419582309e-01,2.82985e-10,9.99999e-01,9.99999e-01,2.82985e-10,9.99999e-01
4.441680220e-01,4.36882e-10,9.99999e-01,9.99999e-01,4.36882e-10,9.99999e-01
4.463888621e-01,6.68714e-10,9.99999e-01,9.99999e-01,6.68714e-10,9.99999e-01
4.486208064e-01,1.01500e-09,9.99999e-01,9.99999e-01,1.01500e-09,9.99999e-01
4.508639105e-01,1.52795e-09,9.99999e-01,9.99999e-01,1.52795e-09,9.99999e-01
4.531182300e-01,2.28163e-09,9.99999e-01,9.99999e-01,2.28163e-09,9.99999e-01
4.553838212e-01,3.38019e-09,9.99999e-01,9.99999e-01,3.38019e-09,9.99999e-01
4.576607403e-01,4.96896e-09,9.99999e-01,9.99999e-01,4.96896e-09,9.99999e-01
4.599490440e-01,7.24911e-09,9.99999e-01,9.99999e-01,7.24911e-09,9.99999e-01
4.622487892e-01,1.04970e-08,9.99999e-01,9.99999e-01,1.04970e-08,9.99999e-01
4.645600332e-01,1.50893e-08,9.99999e-01,9.99999e-01,1.50893e-08,9.99999e-01
4.668828333e-01,2.15357e-08,9.99999e-01,9.99999e-01,2.15357e-08,9.99999e-01
4.692172475e-01,3.05209e-08,9.99999e-01,9.99999e-01,3.05209e-08,9.99999e-01
4.715633337e-01,4.29581e-08,9.99999e-01,9.99999e-01,4.29581e-08,9.99999e-01
4.739211504e-01,6.00566e-08,9.99999e-01,9.99999e-01,6.00566e-08,9.99999e-01
4.762907561e-01,8.34070e-08,9.99999e-01,9.99999e-01,8.34070e-08,9.99999e-01
4.786722099e-01,1.15087e-07,9.99999e-01,9.99999e-01,1.15087e-07,9.99999e-01
4.810655710e-01,1.57793e-07,9.99999e-01,9.99999e-01,1.57793e-07,9.99999e-01
4.834708988e-01,2.15002e-07,9.99999e-01,9.99999e-01,2.15002e-07,9.99999e-01
4.858882533e-01,2.91168e-07,9.99999e-01,9.99999e-01,2.91168e-07,9.99999e-01
4.883176946e-01,3.91961e-07,9.99999e-01,9.99999e-01,3.91961e-07,9.99999e-01
4.907592831e-01,5.24556e-07,9.99999e-01,9.99999e-01,5.24556e-07,9.99999e-01
4.932130795e-01,6.97978e-07,9.99999e-01,9.99999e-01,6.97978e-07,9.99999e-01
4.956791449e-01,9.23509e-07,9.99999e-01,9.99999e-01,9.23509e-07,9.99999e-01
4.981575406e-01,1.21517e-06,9.99999e-01,9.99999e-01,1.21517e-06,9.99999e-01
5.006483283e-01,1.59031e-06,9.99999e-01,9.99999e-01,1.59031e-06,9.99999e-01
5.031515699e-01,2.07022e-06,9.99999e-01,9.99999e-01,2.07022e-06,9.99999e-01
5.056673278e-01,2.68096e-06,9.99999e-01,9.99999e-01,2.68096e-06,9.99999e-01
5.081956644e-01,3.45418e-06,9.99999e-01,9.99999e-01,3.45418e-06,9.99999e-01
5.107366428e-01,4.42819e-06,9.99999e-01,9.99999e-01,4.42819e-06,9.99999e-01
5.132903260e-01,5.64906e-06,9.99999e-01,9.99999e-01,5.64906e-06,9.99999e-01
5.158567776e-01,7.17196e-06,9.99999e-01,9.99999e-01,7.17196e-06,9.99999e-01
5.184360615e-01,9.06257e-06,9.99999e-01,9.99999e-01,9.06257e-06,9.99999e-01
5.210282418e-01,1.13988e-05,9.99999e-01,9.99999e-01,1.13988e-05,9.99999e-01
5.236333830e-01,1.42724e-05,9.99999e-01,9.99999e-01,1.42724e-05,9.99999e-01
5.262515499e-01,1.77913e-05,9.99999e-01,9.99999e-01,1.77913e-05,9.99999e-01
5.288828077e-01,2.20815e-05,9.99999e-01,9.99999e-01,2.20815e-05,9.99999e-01
5.315272217e-01,2.72895e-05,9.99999e-01,9.99999e-01,2.72895e-05,9.99999e-01
5.341848578e-01,3.35850e-05,9.99999e-01,9.99999e-01,3.35850e-05,9.99999e-01
5.368557821e-01,4.11638e-05,9.99999e-01,9.99999e-01,4.11638e-05,9.99999e-01
5.395400610e-01,5.02504e-05,9.99999e-01,9.99999e-01,5.02504e-05,9.99999e-01
5.422377613e-01,6.11016e-05,9.99999e-01,9.99999e-01,6.11016e-05,9.99999e-01
5.449489501e-01,7.40097e-05,9.99999e-01,9.99999e-01,7.40097e-05,9.99999e-01
5.476736949e-01,8.93060e-05,9.99999e-01,9.99999e-01,8.93060e-05,9.99999e-01
5.504120634e-01,1.07364e-04,9.99999e-01,9.99999e-01,1.07364e-04,9.99999e-01
5.531641237e-01,1.28606e-04,9.99999e-01,9.99999e-01,1.28606e-04,9.99999e-01
5.559299443e-01,1.53502e-04,9.99999e-01,9.99999e-01,1.53502e-04,9.99999e-01
5.587095940e-01,1.82577e-04,9.99999e-01,9.99999e-01,1.82577e-04,9.99999e-01
5.615031420e-01,2.16417e-04,9.99999e-01,9.99999e-01,2.16417e-04,9.99999e-01
5.643106577e-01,2.55670e-04,9.99999e-01,9.99999e-01,2.55670e-04,9.99999e-01
5.671322110e-01,3.01048e-04,9.99999e-01,9.99999e-01,3.01048e-04,9.99999e-01
5.699678720e-01,3.53339e-04,9.99999e-01,9.99999e-01,3.53339e-04,9.99999e-01
5.728177114e-01,4.13403e-04,9.99999e-01,9.99999e-01,4.13403e-04,9.99999e-01
5.756818000e-01,4.82179e-04,9.99999e-01,9.99999e-01,4.82179e-04,9.99999e-01
5.785602090e-01,5.60691e-04,9.99999e-01,9.99999e-01,5.60691e-04,9.99999e-01
5.814530100e-01,6.50046e-04,9.99999e-01,9.99999e-01,6.50046e-04,9.99999e-01
5.843602750e-01,7.51444e-04,9.99999e-01,9.99999e-01,7.51444e-04,9.99999e-01
5.872820764e-01,8.66174e-04,9.99999e-01,9.99999e-01,8.66174e-04,9.99999e-01
5.902184868e-01,9.95624e-04,9.99999e-01,9.99999e-01,9.95624e-04,9.99999e-01
5.931695792e-01,1.14127e-03,9.99999e-01,9.99999e-01,1.14127e-03,9.99999e-01
5.961354271e-01,1.30471e-03,9.99999e-01,9.99999e-01,1.30471e-03,9.99999e-01
5.991161043e-01,1.48761e-03,9.99999e-01,9.99999e-01,1.48761e-03,9.99999e-01
6.021116848e-01,1.69177e-03,9.99999e-01,9.99999e-01,1.69177e-03,9.99999e-01
6.051222432e-01,1.91905e-03,9.99999e-01,9.99999e-01,1.91905e-03,9.99999e-01
6.081478544e-01,2.17147e-03,9.99999e-01,9.99999e-01,2.17147e-03,9.99999e-01
6.111885937e-01,2.45109e-03,9.99999e-01,9.99999e-01,2.45109e-03,9.99999e-01
6.142445367e-01,2.76010e-03,9.99999e-01,9.99999e-01,2.76010e-03,9.99999e-01
6.173157594e-01,3.10080e-03,9.99999e-01,9.99999e-01,3.10080e-03,9.99999e-01
6.204023382e-01,3.47555e-03,9.99999e-01,9.99999e-01,3.47555e-03,9.99999e-01
6.235043498e-01,3.88682e-03,9.99999e-01,9.99999e-01,3.88682e-03,9.99999e-01
6.266218716e-01,4.33716e-03,9.99999e-01,9.99999e-01,4.33716e-03,9.99999e-01
6.297549810e-01,4.82921e-03,9.99999e-01,9.99999e-01,4.82921e-03,9.99999e-01
6.329037559e-01,5.36569e-03,9.99999e-01,9.99999e-01,5.36569e-03,9.99999e-01
6.360682746e-01,5.94937e-03,9.99999e-01,9.99999e-01,5.94937e-03,9.99999e-01
6.392486160e-01,6.58311e-03,9.99999e-01,9.99999e-01,6.58311e-03,9.99999e-01
6.424448591e-01,7.26980e-03,9.99999e-01,9.99999e-01,7.26980e-03,9.99999e-01
6.456570834e-01,8.01240e-03,9.99999e-01,9.99999e-01,8.01240e-03,9.99999e-01
6.488853688e-01,8.81390e-03,9.99999e-01,9.99999e-01,8.81390e-03,9.99999e-01
6.521297956e-01,9.67735e-03,9.99999e-01,9.99999e-01,9.67735e-03,9.99999e-01
6.553904446e-01,1.06058e-02,9.99999e-01,9.99999e-01,1.06058e-02,9.99999e-01
6.586673968e-01,1.16023e-02,9.99999e-01,9.99999e-01,1.16023e-02,9.99999e-01
6.619607338e-01,1.26699e-02,9.99999e-01,9.99999e-01,1.26699e-02,9.99999e-01
6.652705375e-01,1.38117e-02,9.99999e-01,9.99999e-01,1.38117e-02,9.99999e-01
6.685968902e-01,1.50308e-02,9.99999e-01,9.99999e-01,1.50308e-02,9.99999e-01
6.719398746e-01,1.63302e-02,9.99999e-01,9.99999e-01,1.63302e-02,9.99999e-01
6.752995740e-01,1.77129e-02,9.99999e-01,9.99999e-01,1.77129e-02,9.99999e-01
6.786760719e-01,1.91818e-02,9.99999e-01,9.99999e-01,1.91818e-02,9.99999e-01
6.820694522e-01,2.07399e-02,9.99999e-01,9.99999e-01,2.07399e-02,9.99999e-01
6.854797995e-01,2.23900e-02,9.99999e-01,9.99999e-01,2.23900e-02,9.99999e-01
6.889071985e-01,2.41349e-02,9.99999e-01,9.99999e-01,2.41349e-02,9.99999e-01
6.923517345e-01,2.59772e-02,9.99999e-01,9.99999e-01,2.59772e-02,9.99999e-01
6.958134932e-01,2.79195e-02,9.99999e-01,9.99999e-01,2.79195e-02,9.99999e-01
6.992925606e-01,2.99643e-02,9.99999e-01,9.99999e-01,2.99643e-02,9.99999e-01
7.027890234e-01,3.21141e-02,9.99999e-01,9.99999e-01,3.21141e-02,9.99999e-01
7.063029686e-01,3.43710e-02,9.99999e-01,9.99999e-01,3.43710e-02,9.99999e-01
7.098344834e-01,3.67372e-02,9.99999e-01,9.99999e-01,3.67372e-02,9.99999e-01
7.133836558e-01,3.92147e-02,9.99999e-01,9.99999e-01,3.92147e-02,9.99999e-01
7.169505741e-01,4.18053e-02,9.99999e-01,9.99999e-01,4.18053e-02,9.99999e-01
7.205353270e-01,4.45108e-02,9.99999e-01,9.99999e-01,4.45108e-02,9.99999e-01
7.241380036e-01,4.73327e-02,9.99999e-01,9.99999e-01,4.73327e-02,9.99999e-01
7.277586936e-01,5.02725e-02,9.99999e-01,9.99999e-01,5.02725e-02,9.99999e-01
7.313974871e-01,5.33313e-02,9.99999e-01,9.99999e-01,5.33313e-02,9.99999e-01
7.350544745e-01,5.65103e-02,9.99999e-01,9.99999e-01,5.65103e-02,9.99999e-01
7.387297469e-01,5.98103e-02,9.99999e-01,9.99999e-01,5.98103e-02,9.99999e-01
7.424233956e-01,6.32322e-02,9.99999e-01,9.99999e-01,6.32322e-02,9.99999e-01
7.461355126e-01,6.67763e-02,9.99999e-01,9.99999e-01,6.67763e-02,9.99999e-01
7.498661902e-01,7.04432e-02,9.99999e-01,9.99999e-01,7.04432e-02,9.99999e-01
7.536155211e-01,7.42330e-02,9.99999e-01,9.99999e-01,7.42330e-02,9.99999e-01
7.573835987e-01,7.81458e-02,9.99999e-01,9.99999e-01,7.81458e-02,9.99999e-01
7.611705167e-01,8.21814e-02,9.99999e-01,9.99999e-01,8.21814e-02,9.99999e-01
7.649763693e-01,8.63395e-02,9.99999e-01,9.99999e-01,8.63395e-02,9.99999e-01
7.688012511e-01,9.06195e-02,9.99999e-01,9.99999e-01,9.06195e-02,9.99999e-01
7.726452574e-01,9.50209e-02,9.99999e-01,9.99999e-01,9.50209e-02,9.99999e-01
7.765084837e-01,9.95428e-02,9.99999e-01,9.99999e-01,9.95428e-02,9.99999e-01
7.803910261e-01,9.50838e-02,9.99999e-01,9.12650e-01,1.04184e-01,9.99999e-01
7.842929812e-01,6.93758e-02,9.99999e-01,6.36803e-01,1.08944e-01,9.99999e-01
7.882144461e-01,7.06952e-02,9.99999e-01,6.21111e-01,1.13820e-01,9.99999e-01
7.921555184e-01,8.86239e-02,9.99999e-01,7.45913e-01,1.18812e-01,9.99999e-01
7.961162960e-01,1.01601e-01,9.99999e-01,8.19902e-01,1.23918e-01,9.99999e-01
8.000968774e-01,1.15939e-01,9.99999e-01,8.97801e-01,1.29136e-01,9.99999e-01
8.040973618e-01,1.27147e-01,9.99999e-01,9.45579e-01,1.34464e-01,9.99999e-01
8.081178486e-01,1.36350e-01,9.99999e-01,9.74616e-01,1.39901e-01,9.99999e-01
8.121584379e-01,1.44293e-01,9.99999e-01,9.92091e-01,1.45443e-01,9.99999e-01
8.162192301e-01,1.50824e-01,9.99999e-01,9.98248e-01,1.51088e-01,9.99999e-01
8.203003262e-01,1.56831e-01,9.99999e-01,9.99973e-01,1.56835e-01,9.99999e-01
8.244018279e-01,1.62680e-01,9.99999e-01,9.99999e-01,1.62680e-01,9.99999e-01
8.285238370e-01,1.68622e-01,9.99999e-01,9.99999e-01,1.68622e-01,9.99999e-01
8.326664562e-01,1.74656e-01,9.99999e-01,9.99999e-01,1.74656e-01,9.99999e-01
8.368297885e-01,1.80781e-01,9.99999e-01,9.99999e-01,1.80781e-01,9.99999e-01
8.410139374e-01,1.86993e-01,9.99999e-01,9.99999e-01,1.86993e-01,9.99999e-01
8.452190071e-01,1.93290e-01,9.99999e-01,9.99999e-01,1.93290e-01,9.99999e-01
8.494451021e-01,1.99668e-01,9.99999e-01,9.99999e-01,1.99668e-01,9.99999e-01
8.536923276e-01,2.06124e-01,9.99999e-01,9.99999e-01,2.06124e-01,9.99999e-01
8.579607893e-01,2.12655e-01,9.99999e-01,9.99999e-01,2.12655e-01,9.99999e-01
8.622505932e-01,2.19258e-01,9.99999e-01,9.99999e-01,2.19258e-01,9.99999e-01
8.665618462e-01,1.96153e-01,9.99999e-01,8.68202e-01,2.25930e-01,9.99999e-01
8.708946554e-01,7.68068e-02,9.99999e-01,3.30115e-01,2.32667e-01,9.99999e-01
8.752491287e-01,9.49785e-02,9.99999e-01,3.96627e-01,2.39466e-01,9.99999e-01
8.796253743e-01,1.46309e-01,9.99999e-01,5.93974e-01,2.46323e-01,9.99999e-01
8.840235012e-01,1.92305e-01,9.99999e-01,7.59391e-01,2.53235e-01,9.99999e-01
8.884436187e-01,2.33272e-01,9.99999e-01,8.96514e-01,2.60199e-01,9.99999e-01
8.928858368e-01,2.55615e-01,9.99999e-01,9.56602e-01,2.67211e-01,9.99999e-01
8.973502660e-01,2.71328e-01,9.99999e-01,9.89280e-01,2.74268e-01,9.99999e-01
9.018370173e-01,2.81033e-01,9.99999e-01,9.98812e-01,2.81367e-01,9.99999e-01
9.063462024e-01,2.80001e-01,9.99999e-01,9.70526e-01,2.88504e-01,9.99999e-01
9.108779334e-01,2.75727e-01,9.99999e-01,9.32534e-01,2.95675e-01,9.99999e-01
9.154323231e-01,2.97949e-01,9.99999e-01,9.83725e-01,3.02878e-01,9.99999e-01
9.200094847e-01,2.51879e-01,9.99999e-01,8.12228e-01,3.10109e-01,9.99999e-01
9.246095321e-01,2.25951e-01,9.99999e-01,7.11960e-01,3.17364e-01,9.99999e-01
9.292325798e-01,2.49966e-01,9.99999e-01,7.69975e-01,3.24641e-01,9.99999e-01
9.338787427e-01,2.57022e-01,9.99999e-01,7.74313e-01,3.31936e-01,9.99999e-01
9.385481364e-01,2.80673e-01,9.99999e-01,8.27344e-01,3.39246e-01,9.99999e-01
9.432408771e-01,3.08395e-01,9.99999e-01,8.89855e-01,3.46568e-01,9.99999e-01
9.479570815e-01,3.33312e-01,9.99999e-01,9.41830e-01,3.53898e-01,9.99999e-01
9.526968669e-01,3.50956e-01,9.99999e-01,9.71545e-01,3.61234e-01,9.99999e-01
9.574603512e-01,3.64048e-01,9.99999e-01,9.87720e-01,3.68573e-01,9.99999e-01
9.622476530e-01,3.74466e-01,9.99999e-01,9.96153e-01,3.75912e-01,9.99999e-01
9.670588912e-01,3.82805e-01,9.99999e-01,9.98845e-01,3.83247e-01,9.99999e-01
9.718941857e-01,3.90545e-01,9.99999e-01,9.99918e-01,3.90577e-01,9.99999e-01
9.767536566e-01,3.97897e-01,9.99999e-01,9.99999e-01,3.97897e-01,9.99999e-01
9.816374249e-01,4.05207e-01,9.99999e-01,9.99999e-01,4.05207e-01,9.99999e-01
9.865456120e-01,4.12502e-01,9.99999e-01,9.99999e-01,4.12502e-01,9.99999e-01
9.914783401e-01,4.19781e-01,9.99999e-01,9.99999e-01,4.19781e-01,9.99999e-01
9.964357318e-01,4.27040e-01,9.99999e-01,9.99999e-01,4.27040e-01,9.99999e-01
1.001417910e+00,4.34278e-01,9.99999e-01,9.99999e-01,4.34278e-01,9.99999e-01
1.006425000e+00,4.41492e-01,9.99999e-01,9.99999e-01,4.41492e-01,9.99999e-01
1.011457125e+00,4.48680e-01,9.99999e-01,9.99999e-01,4.48680e-01,9.99999e-01
1.016514411e+00,4.55839e-01,9.99999e-01,9.99999e-01,4.55839e-01,9.99999e-01
1.021596983e+00,4.62894e-01,9.99999e-01,9.99839e-01,4.62968e-01,9.99999e-01
1.026704968e+00,4.64543e-01,9.99999e-01,9.88253e-01,4.70064e-01,9.99999e-01
1.031838492e+00,4.31631e-01,9.99999e-01,9.04648e-01,4.77126e-01,9.99999e-01
1.036997685e+00,2.44282e-02,9.99999e-01,5.04557e-02,4.84151e-01,9.99999e-01
1.042182673e+00,1.63486e-03,9.99999e-01,3.32872e-03,4.91137e-01,9.99999e-01
1.047393587e+00,4.27602e-03,9.99999e-01,8.58493e-03,4.98084e-01,9.99999e-01
1.052630555e+00,4.72044e-07,9.99999e-01,9.34761e-07,5.04988e-01,9.99999e-01
1.057893707e+00,1.77827e-06,9.99999e-01,3.47420e-06,5.11849e-01,9.99999e-01
1.063183176e+00,4.74099e-05,9.99999e-01,9.14073e-05,5.18666e-01,9.99999e-01
1.068499092e+00,4.81711e-04,9.99999e-01,9.16783e-04,5.25435e-01,9.99999e-01
1.073841587e+00,5.85560e-03,9.99999e-01,1.10035e-02,5.32157e-01,9.99999e-01
1.079210795e+00,3.17948e-02,9.99999e-01,5.90072e-02,5.38829e-01,9.99999e-01
1.084606849e+00,1.09239e-01,9.99999e-01,2.00272e-01,5.45451e-01,9.99999e-01
1.090029883e+00,2.37672e-01,9.99999e-01,4.30550e-01,5.52020e-01,9.99999e-01
1.095480033e+00,3.68092e-01,9.99999e-01,6.59028e-01,5.58537e-01,9.99999e-01
1.100957433e+00,4.61652e-01,9.99999e-01,8.17082e-01,5.65000e-01,9.99999e-01
1.106462220e+00,5.25533e-01,9.99999e-01,9.19716e-01,5.71408e-01,9.99999e-01
1.111994531e+00,5.60090e-01,9.99999e-01,9.69416e-01,5.77759e-01,9.99999e-01
1.117554504e+00,5.79643e-01,9.99999e-01,9.92446e-01,5.84054e-01,9.99999e-01
1.123142276e+00,5.89998e-01,9.99999e-01,9.99502e-01,5.90291e-01,9.99999e-01
1.128757988e+00,5.96469e-01,9.99999e-01,9.99999e-01,5.96470e-01,9.99999e-01
1.134401778e+00,6.02589e-01,9.99999e-01,9.99999e-01,6.02589e-01,9.99999e-01
1.140073787e+00,6.08648e-01,9.99999e-01,9.99999e-01,6.08648e-01,9.99999e-01
1.145774156e+00,6.14646e-01,9.99999e-01,9.99999e-01,6.14646e-01,9.99999e-01
1.151503026e+00,6.20584e-01,9.99999e-01,9.99999e-01,6.20584e-01,9.99999e-01
1.157260541e+00,6.26460e-01,9.99999e-01,9.99999e-01,6.26460e-01,9.99999e-01
1.163046844e+00,6.32274e-01,9.99999e-01,9.99999e-01,6.32274e-01,9.99999e-01
1.168862078e+00,6.38025e-01,9.99999e-01,9.99999e-01,6.38025e-01,9.99999e-01
1.174706389e+00,6.43713e-01,9.99999e-01,9.99999e-01,6.43713e-01,9.99999e-01
1.180579921e+00,6.49339e-01,9.99999e-01,9.99999e-01,6.49339e-01,9.99999e-01
1.186482820e+00,6.54887e-01,9.99999e-01,9.99978e-01,6.54901e-01,9.99999e-01
1.192415234e+00,6.34022e-01,9.99999e-01,9.60058e-01,6.60399e-01,9.99999e-01
1.198377311e+00,3.43979e-01,9.99999e-01,5.16614e-01,6.65834e-01,9.99999e-01
1.204369197e+00,1.17329e-30,9.99999e-01,1.74803e-30,6.71204e-01,9.99999e-01
1.210391043e+00,2.66818e-124,9.99999e-01,3.94403e-124,6.76511e-01,9.99999e-01
1.216442998e+00,1.48335e-107,9.99999e-01,2.17578e-107,6.81753e-01,9.99999e-01
1.222525213e+00,6.11587e-106,9.99999e-01,8.90316e-106,6.86932e-01,9.99999e-01
1.228637839e+00,1.03273e-81,9.99999e-01,1.49229e-81,6.92046e-01,9.99999e-01
1.234781029e+00,8.18512e-51,9.99999e-01,1.17417e-50,6.97096e-01,9.99999e-01
1.240954934e+00,1.08233e-33,9.99999e-01,1.54160e-33,7.02082e-01,9.99999e-01
1.247159708e+00,3.33934e-16,9.99999e-01,4.72322e-16,7.07004e-01,9.99999e-01
1.253395507e+00,5.09217e-11,9.99999e-01,7.15329e-11,7.11863e-01,9.99999e-01
1.259662485e+00,1.37239e-06,9.99999e-01,1.91499e-06,7.16658e-01,9.99999e-01
1.265960797e+00,5.18128e-04,9.99999e-01,7.18236e-04,7.21390e-01,9.99999e-01
1.272290601e+00,2.41350e-02,9.99999e-01,3.32412e-02,7.26058e-01,9.99999e-01
1.278652054e+00,2.23499e-02,9.99999e-01,3.05884e-02,7.30664e-01,9.99999e-01
1.285045314e+00,2.19393e-05,9.99999e-01,2.98409e-05,7.35207e-01,9.99999e-01
1.291470541e+00,1.20138e-14,9.99999e-01,1.62417e-14,7.39687e-01,9.99999e-01
1.297927893e+00,2.36425e-06,9.99999e-01,3.17730e-06,7.44106e-01,9.99999e-01
1.304417533e+00,1.41430e-03,9.99999e-01,1.88961e-03,7.48463e-01,9.99999e-01
1.310939621e+00,3.67520e-04,9.99999e-01,4.88230e-04,7.52759e-01,9.99999e-01
1.317494319e+00,3.14380e-42,9.99999e-01,4.15300e-42,7.56993e-01,9.99999e-01
1.324081790e+00,1.08347e-27,9.99999e-01,1.42343e-27,7.61168e-01,9.99999e-01
1.330702199e+00,1.76821e-16,9.99999e-01,2.31053e-16,7.65282e-01,9.99999e-01
1.337355710e+00,4.45752e-15,9.99999e-01,5.79398e-15,7.69336e-01,9.99999e-01
1.344042489e+00,2.39502e-15,9.99999e-01,3.09701e-15,7.73331e-01,9.99999e-01
1.350762701e+00,8.77317e-17,9.99999e-01,1.12872e-16,7.77268e-01,9.99999e-01
1.357516515e+00,3.00469e-10,9.99999e-01,3.84651e-10,7.81146e-01,9.99999e-01
1.364304097e+00,1.47489e-07,9.99999e-01,1.87892e-07,7.84966e-01,9.99999e-01
1.371125618e+00,2.97999e-04,9.99999e-01,3.77821e-04,7.88729e-01,9.99999e-01
1.377981246e+00,8.61569e-04,9.99999e-01,1.08724e-03,7.92435e-01,9.99999e-01
1.384871152e+00,1.47982e-02,9.99999e-01,1.85887e-02,7.96085e-01,9.99999e-01
1.391795508e+00,2.04004e-02,9.99999e-01,2.55107e-02,7.99679e-01,9.99999e-01
1.398754485e+00,7.91565e-02,9.99999e-01,9.85491e-02,8.03218e-01,9.99999e-01
1.405748258e+00,1.49443e-01,9.99999e-01,1.85251e-01,8.06702e-01,9.99999e-01
1.412776999e+00,2.76651e-01,9.99999e-01,3.41489e-01,8.10132e-01,9.99999e-01
1.419840884e+00,2.61744e-01,9.99999e-01,3.21746e-01,8.13509e-01,9.99999e-01
1.426940089e+00,9.38478e-03,9.99999e-01,1.14892e-02,8.16832e-01,9.99999e-01
1.434074789e+00,0.00000e+00,9.99999e-01,0.00000e+00,8.20103e-01,9.99999e-01
1.441245163e+00,0.00000e+00,9.99999e-01,0.00000e+00,8.23322e-01,9.99999e-01
1.448451389e+00,0.00000e+00,9.99999e-01,0.00000e+00,8.26489e-01,9.99999e-01
1.455693646e+00,0.00000e+00,9.99999e-01,0.00000e+00,8.29606e-01,9.99999e-01
1.462972114e+00,0.00000e+00,9.99999e-01,0.00000e+00,8.32673e-01,9.99999e-01
1.470286975e+00,4.42454e-206,9.99999e-01,5.29447e-206,8.35690e-01,9.99999e-01
