#,Wave/freq,Total,O2,CO2,Rayleigh,CIA
4.000000000e-01,3.88126e-10,9.99999e-01,9.99999e-01,3.88126e-10,9.99999e-01
4.020000000e-01,5.95734e-10,9.99999e-01,9.99999e-01,5.95734e-10,9.99999e-01
4.040100000e-01,9.06292e-10,9.99999e-01,9.99999e-01,9.06292e-10,9.99999e-01
4.060300500e-01,1.36736e-09,9.99999e-01,9.99999e-01,1.36736e-09,9.99999e-01
4.080602003e-01,2.04632e-09,9.99999e-01,9.99999e-01,2.04632e-09,9.99999e-01
4.101005013e-01,3.03810e-09,9.99999e-01,9.99999e-01,3.03810e-09,9.99999e-01
4.121510038e-01,4.47551e-09,9.99999e-01,9.99999e-01,4.47551e-09,9.99999e-01
4.142117588e-01,6.54272e-09,9.99999e-01,9.99999e-01,6.54272e-09,9.99999e-01
4.162828176e-01,9.49331e-09,9.99999e-01,9.99999e-01,9.49331e-09,9.99999e-01
4.183642317e-01,1.36736e-08,9.99999e-01,9.99999e-01,1.36736e-08,9.99999e-01
4.204560528e-01,1.95533e-08,9.99999e-01,9.99999e-01,1.95533e-08,9.99999e-01
4.225583331e-01,2.77643e-08,9.99999e-01,9.99999e-01,2.77643e-08,9.99999e-01
4.246711247e-01,3.91513e-08,9.99999e-01,9.99999e-01,3.91513e-08,9.99999e-01
4.267944804e-01,5.48351e-08,9.99999e-01,9.99999e-01,5.48351e-08,9.99999e-01
4.289284528e-01,7.62922e-08,9.99999e-01,9.99999e-01,7.62922e-08,9.99999e-01
4.310730950e-01,1.05455e-07,9.99999e-01,9.99999e-01,1.05455e-07,9.99999e-01
4.332284605e-01,1.44837e-07,9.99999e-01,9.99999e-01,1.44837e-07,9.99999e-01
4.353946028e-01,1.97683e-07,9.99999e-01,9.99999e-01,1.97683e-07,9.99999e-01
4.375715758e-01,2.68158e-07,9.99999e-01,9.99999e-01,2.68158e-07,9.99999e-01
4.397594337e-01,3.61573e-07,9.99999e-01,9.99999e-01,3.61573e-07,9.99999e-01
4.419582309e-01,4.84661e-07,9.99999e-01,9.99999e-01,4.84661e-07,9.99999e-01
4.441680220e-01,6.45902e-07,9.99999e-01,9.99999e-01,6.45902e-07,9.99999e-01
4.463888621e-01,8.55915e-07,9.99999e-01,9.99999e-01,8.55915e-07,9.99999e-01
4.486208064e-01,1.12793e-06,9.99999e-01,9.99999e-01,1.12793e-06,9.99999e-01
4.508639105e-01,1.47830e-06,9.99999e-01,9.99999e-01,1.47830e-06,9.99999e-01
4.531182300e-01,1.92719e-06,9.99999e-01,9.99999e-01,1.92719e-06,9.99999e-01
4.553838212e-01,2.49926e-06,9.99999e-01,9.99999e-01,2.49926e-06,9.99999e-01
4.576607403e-01,3.22454e-06,9.99999e-01,9.99999e-01,3.22454e-06,9.99999e-01
4.599490440e-01,4.13942e-06,9.99999e-01,9.99999e-01,4.13942e-06,9.99999e-01
4.622487892e-01,5.28772e-06,9.99999e-01,9.99999e-01,5.28772e-06,9.99999e-01
4.645600332e-01,6.72197e-06,9.99999e-01,9.99999e-01,6.72197e-06,9.99999e-01
4.668828333e-01,8.50485e-06,9.99999e-01,9.99999e-01,8.50485e-06,9.99999e-01
4.692172475e-01,1.07107e-05,9.99999e-01,9.99999e-01,1.07107e-05,9.99999e-01
4.715633337e-01,1.34274e-05,9.99999e-01,9.99999e-01,1.34274e-05,9.99999e-01
4.739211504e-01,1.67581e-05,9.99999e-01,9.99999e-01,1.67581e-05,9.99999e-01
4.762907561e-01,2.08238e-05,9.99999e-01,9.99999e-01,2.08238e-05,9.99999e-01
4.786722099e-01,2.57649e-05,9.99999e-01,9.99999e-01,2.57649e-05,9.99999e-01
4.810655710e-01,3.17448e-05,9.99999e-01,9.99999e-01,3.17448e-05,9.99999e-01
4.834708988e-01,3.89517e-05,9.99999e-01,9.99999e-01,3.89517e-05,9.99999e-01
4.858882533e-01,4.76019e-05,9.99999e-01,9.99999e-01,4.76019e-05,9.99999e-01
4.883176946e-01,5.79431e-05,9.99999e-01,9.99999e-01,5.79431e-05,9.99999e-01
4.907592831e-01,7.02575e-05,9.99999e-01,9.99999e-01,7.02575e-05,9.99999e-01
4.932130795e-01,8.48654e-05,9.99999e-01,9.99999e-01,8.48654e-05,9.99999e-01
4.956791449e-01,1.02129e-04,9.99999e-01,9.99999e-01,1.02129e-04,9.99999e-01
4.981575406e-01,1.22455e-04,9.99999e-01,9.99999e-01,1.22455e-04,9.99999e-01
5.006483283e-01,1.46302e-04,9.99999e-01,9.99999e-01,1.46302e-04,9.99999e-01
5.031515699e-01,1.74179e-04,9.99999e-01,9.99999e-01,1.74179e-04,9.99999e-01
5.056673278e-01,2.06655e-04,9.99999e-01,9.99999e-01,2.06655e-04,9.99999e-01
5.081956644e-01,2.44359e-04,9.99999e-01,9.99999e-01,2.44359e-04,9.99999e-01
5.107366428e-01,2.87988e-04,9.99999e-01,9.99999e-01,2.87988e-04,9.99999e-01
5.132903260e-01,3.38306e-04,9.99999e-01,9.99999e-01,3.38306e-04,9.99999e-01
5.158567776e-01,3.96155e-04,9.99999e-01,9.99999e-01,3.96155e-04,9.99999e-01
5.184360615e-01,4.62450e-04,9.99999e-01,9.99999e-01,4.62450e-04,9.99999e-01
5.210282418e-01,5.38193e-04,9.99999e-01,9.99999e-01,5.38193e-04,9.99999e-01
5.236333830e-01,6.24468e-04,9.99999e-01,9.99999e-01,6.24468e-04,9.99999e-01
5.262515499e-01,7.22449e-04,9.99999e-01,9.99999e-01,7.22449e-04,9.99999e-01
5.288828077e-01,8.33400e-04,9.99999e-01,9.99999e-01,8.33400e-04,9.99999e-01
5.315272217e-01,9.58681e-04,9.99999e-01,9.99999e-01,9.58681e-04,9.99999e-01
5.341848578e-01,1.09975e-03,9.99999e-01,9.99999e-01,1.09975e-03,9.99999e-01
5.368557821e-01,1.25816e-03,9.99999e-01,9.99999e-01,1.25816e-03,9.99999e-01
5.395400610e-01,1.43556e-03,9.99999e-01,9.99999e-01,1.43556e-03,9.99999e-01
5.422377613e-01,1.63372e-03,9.99999e-01,9.99999e-01,1.63372e-03,9.99999e-01
5.449489501e-01,1.85449e-03,9.99999e-01,9.99999e-01,1.85449e-03,9.99999e-01
5.476736949e-01,2.09983e-03,9.99999e-01,9.99999e-01,2.09983e-03,9.99999e-01
5.504120634e-01,2.37180e-03,9.99999e-01,9.99999e-01,2.37180e-03,9.99999e-01
5.531641237e-01,2.67256e-03,9.99999e-01,9.99999e-01,2.67256e-03,9.99999e-01
5.559299443e-01,3.00436e-03,9.99999e-01,9.99999e-01,3.00436e-03,9.99999e-01
5.587095940e-01,3.36955e-03,9.99999e-01,9.99999e-01,3.36955e-03,9.99999e-01
5.615031420e-01,3.77058e-03,9.99999e-01,9.99999e-01,3.77058e-03,9.99999e-01
5.643106577e-01,4.20998e-03,9.99999e-01,9.99999e-01,4.20998e-03,9.99999e-01
5.671322110e-01,4.69037e-03,9.99999e-01,9.99999e-01,4.69037e-03,9.99999e-01
5.699678720e-01,5.21442e-03,9.99999e-01,9.99999e-01,5.21442e-03,9.99999e-01
5.728177114e-01,5.78492e-03,9.99999e-01,9.99999e-01,5.78492e-03,9.99999e-01
5.756818000e-01,6.40468e-03,9.99999e-01,9.99999e-01,6.40468e-03,9.99999e-01
5.785602090e-01,7.07659e-03,9.99999e-01,9.99999e-01,7.07659e-03,9.99999e-01
5.814530100e-01,7.80361e-03,9.99999e-01,9.99999e-01,7.80361e-03,9.99999e-01
5.843602750e-01,8.58871e-03,9.99999e-01,9.99999e-01,8.58871e-03,9.99999e-01
5.872820764e-01,9.43492e-03,9.99999e-01,9.99999e-01,9.43492e-03,9.99999e-01
5.902184868e-01,1.03453e-02,9.99999e-01,9.99999e-01,1.03453e-02,9.99999e-01
5.931695792e-01,1.13228e-02,9.99999e-01,9.99999e-01,1.13228e-02,9.99999e-01
5.961354271e-01,1.23707e-02,9.99999e-01,9.99999e-01,1.23707e-02,9.99999e-01
5.991161043e-01,1.34920e-02,9.99999e-01,9.99999e-01,1.34920e-02,9.99999e-01
6.021116848e-01,1.46896e-02,9.99999e-01,9.99999e-01,1.46896e-02,9.99999e-01
6.051222432e-01,1.59668e-02,9.99999e-01,9.99999e-01,1.59668e-02,9.99999e-01
6.081478544e-01,1.73264e-02,9.99999e-01,9.99999e-01,1.73264e-02,9.99999e-01
6.111885937e-01,1.87714e-02,9.99999e-01,9.99999e-01,1.87714e-02,9.99999e-01
6.142445367e-01,2.03049e-02,9.99999e-01,9.99999e-01,2.03049e-02,9.99999e-01
6.173157594e-01,2.19295e-02,9.99999e-01,9.99999e-01,2.19295e-02,9.99999e-01
6.204023382e-01,2.36482e-02,9.99999e-01,9.99999e-01,2.36482e-02,9.99999e-01
6.235043498e-01,2.54636e-02,9.99999e-01,9.99999e-01,2.54636e-02,9.99999e-01
6.266218716e-01,2.73783e-02,9.99999e-01,9.99999e-01,2.73783e-02,9.99999e-01
6.297549810e-01,2.93949e-02,9.99999e-01,9.99999e-01,2.93949e-02,9.99999e-01
6.329037559e-01,3.15157e-02,9.99999e-01,9.99999e-01,3.15157e-02,9.99999e-01
6.360682746e-01,3.37431e-02,9.99999e-01,9.99999e-01,3.37431e-02,9.99999e-01
6.392486160e-01,3.60792e-02,9.99999e-01,9.99999e-01,3.60792e-02,9.99999e-01
6.424448591e-01,3.85261e-02,9.99999e-01,9.99999e-01,3.85261e-02,9.99999e-01
6.456570834e-01,4.10856e-02,9.99999e-01,9.99999e-01,4.10856e-02,9.99999e-01
6.488853688e-01,4.37595e-02,9.99999e-01,9.99999e-01,4.37595e-02,9.99999e-01
6.521297956e-01,4.65495e-02,9.99999e-01,9.99999e-01,4.65495e-02,9.99999e-01
6.553904446e-01,4.94569e-02,9.99999e-01,9.99999e-01,4.94569e-02,9.99999e-01
6.586673968e-01,5.24830e-02,9.99999e-01,9.99999e-01,5.24830e-02,9.99999e-01
6.619607338e-01,5.56290e-02,9.99999e-01,9.99999e-01,5.56290e-02,9.99999e-01
6.652705375e-01,5.88959e-02,9.99999e-01,9.99999e-01,5.88959e-02,9.99999e-01
6.685968902e-01,6.22843e-02,9.99999e-01,9.99999e-01,6.22843e-02,9.99999e-01
6.719398746e-01,6.57950e-02,9.99999e-01,9.99999e-01,6.57950e-02,9.99999e-01
6.752995740e-01,6.94283e-02,9.99999e-01,9.99999e-01,6.94283e-02,9.99999e-01
6.786760719e-01,7.31845e-02,9.99999e-01,9.99999e-01,7.31845e-02,9.99999e-01
6.820694522e-01,7.70636e-02,9.99999e-01,9.99999e-01,7.70636e-02,9.99999e-01
6.854797995e-01,8.10657e-02,9.99999e-01,9.99999e-01,8.10657e-02,9.99999e-01
6.889071985e-01,8.51903e-02,9.99999e-01,9.99999e-01,8.51903e-02,9.99999e-01
6.923517345e-01,8.94371e-02,9.99999e-01,9.99999e-01,8.94371e-02,9.99999e-01
6.958134932e-01,9.38054e-02,9.99999e-01,9.99999e-01,9.38054e-02,9.99999e-01
6.992925606e-01,9.82944e-02,9.99999e-01,9.99999e-01,9.82944e-02,9.99999e-01
7.027890234e-01,1.02903e-01,9.99999e-01,9.99999e-01,1.02903e-01,9.99999e-01
7.063029686e-01,1.07631e-01,9.99999e-01,9.99999e-01,1.07631e-01,9.99999e-01
7.098344834e-01,1.12475e-01,9.99999e-01,9.99999e-01,1.12475e-01,9.99999e-01
7.133836558e-01,1.17436e-01,9.99999e-01,9.99999e-01,1.17436e-01,9.99999e-01
7.169505741e-01,1.22511e-01,9.99999e-01,9.99999e-01,1.22511e-01,9.99999e-01
7.205353270e-01,1.27699e-01,9.99999e-01,9.99999e-01,1.27699e-01,9.99999e-01
7.241380036e-01,1.32997e-01,9.99999e-01,9.99999e-01,1.32997e-01,9.99999e-01
7.277586936e-01,1.38404e-01,9.99999e-01,9.99999e-01,1.38404e-01,9.99999e-01
7.313974871e-01,1.43917e-01,9.99999e-01,9.99999e-01,1.43917e-01,9.99999e-01
7.350544745e-01,1.49534e-01,9.99999e-01,9.99999e-01,1.49534e-01,9.99999e-01
7.387297469e-01,1.55254e-01,9.99999e-01,9.99999e-01,1.55254e-01,9.99999e-01
7.424233956e-01,1.61072e-01,9.99999e-01,9.99999e-01,1.61072e-01,9.99999e-01
7.461355126e-01,1.66988e-01,9.99999e-01,9.99999e-01,1.66988e-01,9.99999e-01
7.498661902e-01,1.72997e-01,9.99999e-01,9.99999e-01,1.72997e-01,9.99999e-01
7.536155211e-01,1.79097e-01,9.99999e-01,9.99999e-01,1.79097e-01,9.99999e-01
7.573835987e-01,1.85286e-01,9.99999e-01,9.99999e-01,1.85286e-01,9.99999e-01
7.611705167e-01,1.91560e-01,9.99999e-01,9.99999e-01,1.91560e-01,9.99999e-01
7.649763693e-01,1.97916e-01,9.99999e-01,9.99999e-01,1.97916e-01,9.99999e-01
7.688012511e-01,2.04351e-01,9.99999e-01,9.99999e-01,2.04351e-01,9.99999e-01
7.726452574e-01,2.10862e-01,9.99999e-01,9.99999e-01,2.10862e-01,9.99999e-01
7.765084837e-01,2.17446e-01,9.99999e-01,9.99999e-01,2.17446e-01,9.99999e-01
7.803910261e-01,2.09495e-01,9.99999e-01,9.34834e-01,2.24099e-01,9.99999e-01
7.842929812e-01,1.70110e-01,9.99999e-01,7.36984e-01,2.30818e-01,9.99999e-01
7.882144461e-01,1.71505e-01,9.99999e-01,7.21821e-01,2.37600e-01,9.99999e-01
7.921555184e-01,2.00970e-01,9.99999e-01,8.22156e-01,2.44442e-01,9.99999e-01
7.961162960e-01,2.20447e-01,9.99999e-01,8.77086e-01,2.51340e-01,9.99999e-01
8.000968774e-01,2.40527e-01,9.99999e-01,9.31230e-01,2.58290e-01,9.99999e-01
8.040973618e-01,2.55697e-01,9.99999e-01,9.63843e-01,2.65289e-01,9.99999e-01
8.081178486e-01,2.67753e-01,9.99999e-01,9.83178e-01,2.72334e-01,9.99999e-01
8.121584379e-01,2.77973e-01,9.99999e-01,9.94814e-01,2.79422e-01,9.99999e-01
8.162192301e-01,2.86220e-01,9.99999e-01,9.98852e-01,2.86549e-01,9.99999e-01
8.203003262e-01,2.93706e-01,9.99999e-01,9.99983e-01,2.93711e-01,9.99999e-01
8.244018279e-01,3.00905e-01,9.99999e-01,9.99999e-01,3.00905e-01,9.99999e-01
8.285238370e-01,3.08129e-01,9.99999e-01,9.99999e-01,3.08129e-01,9.99999e-01
8.326664562e-01,3.15378e-01,9.99999e-01,9.99999e-01,3.15378e-01,9.99999e-01
8.368297885e-01,3.22649e-01,9.99999e-01,9.99999e-01,3.22649e-01,9.99999e-01
8.410139374e-01,3.29939e-01,9.99999e-01,9.99999e-01,3.29939e-01,9.99999e-01
8.452190071e-01,3.37246e-01,9.99999e-01,9.99999e-01,3.37246e-01,9.99999e-01
8.494451021e-01,3.44564e-01,9.99999e-01,9.99999e-01,3.44564e-01,9.99999e-01
8.536923276e-01,3.51893e-01,9.99999e-01,9.99999e-01,3.51893e-01,9.99999e-01
8.579607893e-01,3.59228e-01,9.99999e-01,9.99999e-01,3.59228e-01,9.99999e-01
8.622505932e-01,3.66566e-01,9.99999e-01,9.99999e-01,3.66566e-01,9.99999e-01
8.665618462e-01,3.31707e-01,9.99999e-01,8.87141e-01,3.73905e-01,9.99999e-01
8.708946554e-01,1.77738e-01,9.99999e-01,4.66209e-01,3.81242e-01,9.99999e-01
8.752491287e-01,2.08030e-01,9.99999e-01,5.35369e-01,3.88573e-01,9.99999e-01
8.796253743e-01,2.79476e-01,9.99999e-01,7.05932e-01,3.95897e-01,9.99999e-01
8.840235012e-01,3.35985e-01,9.99999e-01,8.33275e-01,4.03209e-01,9.99999e-01
8.884436187e-01,3.82039e-01,9.99999e-01,9.30646e-01,4.10509e-01,9.99999e-01
8.928858368e-01,4.05766e-01,9.99999e-01,9.71215e-01,4.17792e-01,9.99999e-01
8.973502660e-01,4.22066e-01,9.99999e-01,9.92962e-01,4.25057e-01,9.99999e-01
9.018370173e-01,4.31966e-01,9.99999e-01,9.99223e-01,4.32301e-01,9.99999e-01
9.063462024e-01,4.30698e-01,9.99999e-01,9.79924e-01,4.39522e-01,9.99999e-01
9.108779334e-01,4.26581e-01,9.99999e-01,9.54923e-01,4.46717e-01,9.99999e-01
9.154323231e-01,4.49034e-01,9.99999e-01,9.89314e-01,4.53884e-01,9.99999e-01
9.200094847e-01,3.97336e-01,9.99999e-01,8.61858e-01,4.61022e-01,9.99999e-01
9.246095321e-01,3.73718e-01,9.99999e-01,7.98325e-01,4.68127e-01,9.99999e-01
9.292325798e-01,3.98454e-01,9.99999e-01,8.38501e-01,4.75198e-01,9.99999e-01
9.338787427e-01,4.06792e-01,9.99999e-01,8.43558e-01,4.82233e-01,9.99999e-01
9.385481364e-01,4.31483e-01,9.99999e-01,8.81962e-01,4.89231e-01,9.99999e-01
9.432408771e-01,4.59435e-01,9.99999e-01,9.25928e-01,4.96188e-01,9.99999e-01
9.479570815e-01,4.83588e-01,9.99999e-01,9.61208e-01,5.03105e-01,9.99999e-01
9.526968669e-01,5.00363e-01,9.99999e-01,9.81145e-01,5.09978e-01,9.99999e-01
9.574603512e-01,5.12618e-01,9.99999e-01,9.91895e-01,5.16806e-01,9.99999e-01
9.622476530e-01,5.22263e-01,9.99999e-01,9.97467e-01,5.23589e-01,9.99999e-01
9.670588912e-01,5.29922e-01,9.99999e-01,9.99241e-01,5.30324e-01,9.99999e-01
9.718941857e-01,5.36981e-01,9.99999e-01,9.99946e-01,5.37009e-01,9.99999e-01
9.767536566e-01,5.43645e-01,9.99999e-01,9.99999e-01,5.43645e-01,9.99999e-01
9.816374249e-01,5.50229e-01,9.99999e-01,9.99999e-01,5.50229e-01,9.99999e-01
9.865456120e-01,5.56761e-01,9.99999e-01,9.99999e-01,5.56761e-01,9.99999e-01
9.914783401e-01,5.63238e-01,9.99999e-01,9.99999e-01,5.63238e-01,9.99999e-01
9.964357318e-01,5.69661e-01,9.99999e-01,9.99999e-01,5.69661e-01,9.99999e-01
1.001417910e+00,5.76028e-01,9.99999e-01,9.99999e-01,5.76028e-01,9.99999e-01
1.006425000e+00,5.82339e-01,9.99999e-01,9.99999e-01,5.82339e-01,9.99999e-01
1.011457125e+00,5.88591e-01,9.99999e-01,9.99999e-01,5.88591e-01,9.99999e-01
1.016514411e+00,5.94786e-01,9.99999e-01,9.99999e-01,5.94786e-01,9.99999e-01
1.021596983e+00,6.00850e-01,9.99999e-01,9.99880e-01,6.00921e-01,9.99999e-01
1.026704968e+00,6.02172e-01,9.99999e-01,9.92049e-01,6.06997e-01,9.99999e-01
1.031838492e+00,5.66487e-01,9.99999e-01,9.24103e-01,6.13012e-01,9.99999e-01
1.036997685e+00,4.69947e-02,9.99999e-01,7.59243e-02,6.18966e-01,9.99999e-01
1.042182673e+00,1.06674e-02,9.99999e-01,1.70717e-02,6.24859e-01,9.99999e-01
1.047393587e+00,2.01759e-02,9.99999e-01,3.19901e-02,6.30690e-01,9.99999e-01
1.052630555e+00,2.86234e-05,9.99999e-01,4.49729e-05,6.36459e-01,9.99999e-01
1.057893707e+00,1.02792e-04,9.99999e-01,1.60071e-04,6.42164e-01,9.99999e-01
1.063183176e+00,9.60695e-04,9.99999e-01,1.48299e-03,6.47807e-01,9.99999e-01
1.068499092e+00,5.56851e-03,9.99999e-01,8.52253e-03,6.53386e-01,9.99999e-01
1.073841587e+00,3.16468e-02,9.99999e-01,4.80296e-02,6.58902e-01,9.99999e-01
1.079210795e+00,9.76544e-02,9.99999e-01,1.46991e-01,6.64354e-01,9.99999e-01
1.084606849e+00,2.29146e-01,9.99999e-01,3.42141e-01,6.69742e-01,9.99999e-01
1.090029883e+00,3.85557e-01,9.99999e-01,5.71138e-01,6.75066e-01,9.99999e-01
1.095480033e+00,5.16095e-01,9.99999e-01,7.58599e-01,6.80326e-01,9.99999e-01
1.100957433e+00,5.99836e-01,9.99999e-01,8.75006e-01,6.85522e-01,9.99999e-01
1.106462220e+00,6.53563e-01,9.99999e-01,9.46295e-01,6.90654e-01,9.99999e-01
1.111994531e+00,6.81623e-01,9.99999e-01,9.79734e-01,6.95721e-01,9.99999e-01
1.117554504e+00,6.97246e-01,9.99999e-01,9.95034e-01,7.00725e-01,9.99999e-01
1.123142276e+00,7.05436e-01,9.99999e-01,9.99674e-01,7.05665e-01,9.99999e-01
1.128757988e+00,7.10541e-01,9.99999e-01,9.99999e-01,7.10541e-01,9.99999e-01
1.134401778e+00,7.15353e-01,9.99999e-01,9.99999e-01,7.15353e-01,9.99999e-01
1.140073787e+00,7.20102e-01,9.99999e-01,9.99999e-01,7.20102e-01,9.99999e-01
1.145774156e+00,7.24788e-01,9.99999e-01,9.99999e-01,7.24788e-01,9.99999e-01
1.151503026e+00,7.29411e-01,9.99999e-01,9.99999e-01,7.29411e-01,9.99999e-01
1.157260541e+00,7.33971e-01,9.99999e-01,9.99999e-01,7.33971e-01,9.99999e-01
1.163046844e+00,7.38468e-01,9.99999e-01,9.99999e-01,7.38468e-01,9.99999e-01
1.168862078e+00,7.42904e-01,9.99999e-01,9.99999e-01,7.42904e-01,9.99999e-01
1.174706389e+00,7.47278e-01,9.99999e-01,9.99999e-01,7.47278e-01,9.99999e-01
1.180579921e+00,7.51590e-01,9.99999e-01,9.99999e-01,7.51590e-01,9.99999e-01
1.186482820e+00,7.55828e-01,9.99999e-01,9.99982e-01,7.55841e-01,9.99999e-01
1.192415234e+00,7.38982e-01,9.99999e-01,9.72302e-01,7.60032e-01,9.99999e-01
1.198377311e+00,4.09873e-01,9.99999e-01,5.36368e-01,7.64163e-01,9.99999e-01
1.204369197e+00,4.84363e-21,9.99999e-01,6.30489e-21,7.68233e-01,9.99999e-01
1.210391043e+00,5.52596e-83,9.99999e-01,7.15570e-83,7.72245e-01,9.99999e-01
1.216442998e+00,6.58414e-72,9.99999e-01,8.48255e-72,7.76197e-01,9.99999e-01
1.222525213e+00,7.71315e-71,9.99999e-01,9.88749e-71,7.80091e-01,9.99999e-01
1.228637839e+00,9.18650e-55,9.99999e-01,1.17185e-54,7.83927e-01,9.99999e-01
1.234781029e+00,2.25139e-34,9.99999e-01,2.85815e-34,7.87706e-01,9.99999e-01
1.240954934e+00,6.16782e-23,9.99999e-01,7.79327e-23,7.91428e-01,9.99999e-01
1.247159708e+00,1.76618e-11,9.99999e-01,2.22134e-11,7.95093e-01,9.99999e-01
1.253395507e+00,1.01372e-07,9.99999e-01,1.26921e-07,7.98702e-01,9.99999e-01
1.259662485e+00,9.24475e-05,9.99999e-01,1.15234e-04,8.02256e-01,9.99999e-01
1.265960797e+00,4.93539e-03,9.99999e-01,6.12517e-03,8.05755e-01,9.99999e-01
1.272290601e+00,8.13171e-02,9.99999e-01,1.00491e-01,8.09200e-01,9.99999e-01
1.278652054e+00,6.97390e-02,9.99999e-01,8.58230e-02,8.12591e-01,9.99999e-01
1.285045314e+00,2.79508e-04,9.99999e-01,3.42564e-04,8.15928e-01,9.99999e-01
1.291470541e+00,3.55354e-10,9.99999e-01,4.33774e-10,8.19214e-01,9.99999e-01
1.297927893e+00,3.52409e-04,9.99999e-01,4.28489e-04,8.22447e-01,9.99999e-01
1.304417533e+00,1.21332e-02,9.99999e-01,1.46957e-02,8.25628e-01,9.99999e-01
1.310939621e+00,2.04797e-03,9.99999e-01,2.47113e-03,8.28759e-01,9.99999e-01
1.317494319e+00,5.74892e-29,9.99999e-01,6.91109e-29,8.31839e-01,9.99999e-01
1.324081790e+00,5.01034e-19,9.99999e-01,6.00134e-19,8.34870e-01,9.99999e-01
1.330702199e+00,2.64395e-11,9.99999e-01,3.15562e-11,8.37852e-01,9.99999e-01
1.337355710e+00,1.54066e-10,9.99999e-01,1.83241e-10,8.40785e-01,9.99999e-01
1.344042489e+00,6.51570e-11,9.99999e-01,7.72303e-11,8.43670e-01,9.99999e-01
1.350762701e+00,1.44186e-11,9.99999e-01,1.70330e-11,8.46507e-01,9.99999e-01
1.357516515e+00,2.35360e-07,9.99999e-01,2.77123e-07,8.49298e-01,9.99999e-01
1.364304097e+00,2.39600e-05,9.99999e-01,2.81206e-05,8.52043e-01,9.99999e-01
1.371125618e+00,4.00238e-03,9.99999e-01,4.68255e-03,8.54742e-01,9.99999e-01
1.377981246e+00,8.87130e-03,9.99999e-01,1.03468e-02,8.57396e-01,9.99999e-01
1.384871152e+00,6.00160e-02,9.99999e-01,6.97856e-02,8.60005e-01,9.99999e-01
1.391795508e+00,7.40006e-02,9.99999e-01,8.57906e-02,8.62571e-01,9.99999e-01
1.398754485e+00,1.86561e-01,9.99999e-01,2.15654e-01,8.65094e-01,9.99999e-01
1.405748258e+00,2.82769e-01,9.99999e-01,3.25931e-01,8.67574e-01,9.99999e-01
1.412776999e+00,4.27179e-01,9.99999e-01,4.91004e-01,8.70011e-01,9.99999e-01
1.419840884e+00,3.84527e-01,9.99999e-01,4.40765e-01,8.72408e-01,9.99999e-01
1.426940089e+00,1.92739e-02,9.99999e-01,2.20332e-02,8.74763e-01,9.99999e-01
1.434074789e+00,0.00000e+00,9.99999e-01,0.00000e+00,8.77078e-01,9.99999e-01
1.441245163e+00,0.00000e+00,9.99999e-01,0.00000e+00,8.79353e-01,9.99999e-01
1.448451389e+00,0.00000e+00,9.99999e-01,0.00000e+00,8.81589e-01,9.99999e-01
1.455693646e+00,0.00000e+00,9.99999e-01,0.00000e+00,8.83786e-01,9.99999e-01
1.462972114e+00,0.00000e+00,9.99999e-01,0.00000e+00,8.85946e-01,9.99999e-01
1.470286975e+00,4.36660e-137,9.99999e-01,4.91696e-137,8.88067e-01,9.99999e-01
