#,Wave/freq,Total,O2,CO2,Rayleigh,CIA
4.000000000e-01,3.21361e-02,9.99999e-01,9.99999e-01,3.21361e-02,9.99999e-01
4.020000000e-01,3.43965e-02,9.99999e-01,9.99999e-01,3.43965e-02,9.99999e-01
4.040100000e-01,3.67639e-02,9.99999e-01,9.99999e-01,3.67639e-02,9.99999e-01
4.060300500e-01,3.92426e-02,9.99999e-01,9.99999e-01,3.92426e-02,9.99999e-01
4.080602003e-01,4.18345e-02,9.99999e-01,9.99999e-01,4.18345e-02,9.99999e-01
4.101005013e-01,4.45413e-02,9.99999e-01,9.99999e-01,4.45413e-02,9.99999e-01
4.121510038e-01,4.73645e-02,9.99999e-01,9.99999e-01,4.73645e-02,9.99999e-01
4.142117588e-01,5.03056e-02,9.99999e-01,9.99999e-01,5.03056e-02,9.99999e-01
4.162828176e-01,5.33657e-02,9.99999e-01,9.99999e-01,5.33657e-02,9.99999e-01
4.183642317e-01,5.65460e-02,9.99999e-01,9.99999e-01,5.65460e-02,9.99999e-01
4.204560528e-01,5.98474e-02,9.99999e-01,9.99999e-01,5.98474e-02,9.99999e-01
4.225583331e-01,6.32706e-02,9.99999e-01,9.99999e-01,6.32706e-02,9.99999e-01
4.246711247e-01,6.68161e-02,9.99999e-01,9.99999e-01,6.68161e-02,9.99999e-01
4.267944804e-01,7.04843e-02,9.99999e-01,9.99999e-01,7.04843e-02,9.99999e-01
4.289284528e-01,7.42755e-02,9.99999e-01,9.99999e-01,7.42755e-02,9.99999e-01
4.310730950e-01,7.81896e-02,9.99999e-01,9.99999e-01,7.81896e-02,9.99999e-01
4.332284605e-01,8.22265e-02,9.99999e-01,9.99999e-01,8.22265e-02,9.99999e-01
4.353946028e-01,8.63860e-02,9.99999e-01,9.99999e-01,8.63860e-02,9.99999e-01
4.375715758e-01,9.06674e-02,9.99999e-01,9.99999e-01,9.06674e-02,9.99999e-01
4.397594337e-01,9.50701e-02,9.99999e-01,9.99999e-01,9.50701e-02,9.99999e-01
4.419582309e-01,9.95933e-02,9.99999e-01,9.99999e-01,9.95933e-02,9.99999e-01
4.441680220e-01,1.04236e-01,9.99999e-01,9.99999e-01,1.04236e-01,9.99999e-01
4.463888621e-01,1.08997e-01,9.99999e-01,9.99999e-01,1.08997e-01,9.99999e-01
4.486208064e-01,1.13875e-01,9.99999e-01,9.99999e-01,1.13875e-01,9.99999e-01
4.508639105e-01,1.18868e-01,9.99999e-01,9.99999e-01,1.18868e-01,9.99999e-01
4.531182300e-01,1.23975e-01,9.99999e-01,9.99999e-01,1.23975e-01,9.99999e-01
4.553838212e-01,1.29195e-01,9.99999e-01,9.99999e-01,1.29195e-01,9.99999e-01
4.576607403e-01,1.34524e-01,9.99999e-01,9.99999e-01,1.34524e-01,9.99999e-01
4.599490440e-01,1.39961e-01,9.99999e-01,9.99999e-01,1.39961e-01,9.99999e-01
4.622487892e-01,1.45504e-01,9.99999e-01,9.99999e-01,1.45504e-01,9.99999e-01
4.645600332e-01,1.51151e-01,9.99999e-01,9.99999e-01,1.51151e-01,9.99999e-01
4.668828333e-01,1.56899e-01,9.99999e-01,9.99999e-01,1.56899e-01,9.99999e-01
4.692172475e-01,1.62745e-01,9.99999e-01,9.99999e-01,1.62745e-01,9.99999e-01
4.715633337e-01,1.68688e-01,9.99999e-01,9.99999e-01,1.68688e-01,9.99999e-01
4.739211504e-01,1.74723e-01,9.99999e-01,9.99999e-01,1.74723e-01,9.99999e-01
4.762907561e-01,1.80849e-01,9.99999e-01,9.99999e-01,1.80849e-01,9.99999e-01
4.786722099e-01,1.87062e-01,9.99999e-01,9.99999e-01,1.87062e-01,9.99999e-01
4.810655710e-01,1.93360e-01,9.99999e-01,9.99999e-01,1.93360e-01,9.99999e-01
4.834708988e-01,1.99738e-01,9.99999e-01,9.99999e-01,1.99738e-01,9.99999e-01
4.858882533e-01,2.06195e-01,9.99999e-01,9.99999e-01,2.06195e-01,9.99999e-01
4.883176946e-01,2.12728e-01,9.99999e-01,9.99999e-01,2.12728e-01,9.99999e-01
4.907592831e-01,2.19331e-01,9.99999e-01,9.99999e-01,2.19331e-01,9.99999e-01
4.932130795e-01,2.26004e-01,9.99999e-01,9.99999e-01,2.26004e-01,9.99999e-01
4.956791449e-01,2.32741e-01,9.99999e-01,9.99999e-01,2.32741e-01,9.99999e-01
4.981575406e-01,2.39541e-01,9.99999e-01,9.99999e-01,2.39541e-01,9.99999e-01
5.006483283e-01,2.46399e-01,9.99999e-01,9.99999e-01,2.46399e-01,9.99999e-01
5.031515699e-01,2.53311e-01,9.99999e-01,9.99999e-01,2.53311e-01,9.99999e-01
5.056673278e-01,2.60276e-01,9.99999e-01,9.99999e-01,2.60276e-01,9.99999e-01
5.081956644e-01,2.67289e-01,9.99999e-01,9.99999e-01,2.67289e-01,9.99999e-01
5.107366428e-01,2.74346e-01,9.99999e-01,9.99999e-01,2.74346e-01,9.99999e-01
5.132903260e-01,2.81446e-01,9.99999e-01,9.99999e-01,2.81446e-01,9.99999e-01
5.158567776e-01,2.88583e-01,9.99999e-01,9.99999e-01,2.88583e-01,9.99999e-01
5.184360615e-01,2.95754e-01,9.99999e-01,9.99999e-01,2.95754e-01,9.99999e-01
5.210282418e-01,3.02957e-01,9.99999e-01,9.99999e-01,3.02957e-01,9.99999e-01
5.236333830e-01,3.10188e-01,9.99999e-01,9.99999e-01,3.10188e-01,9.99999e-01
5.262515499e-01,3.17444e-01,9.99999e-01,9.99999e-01,3.17444e-01,9.99999e-01
5.288828077e-01,3.24721e-01,9.99999e-01,9.99999e-01,3.24721e-01,9.99999e-01
5.315272217e-01,3.32016e-01,9.99999e-01,9.99999e-01,3.32016e-01,9.99999e-01
5.341848578e-01,3.39326e-01,9.99999e-01,9.99999e-01,3.39326e-01,9.99999e-01
5.368557821e-01,3.46648e-01,9.99999e-01,9.99999e-01,3.46648e-01,9.99999e-01
5.395400610e-01,3.53979e-01,9.99999e-01,9.99999e-01,3.53979e-01,9.99999e-01
5.422377613e-01,3.61315e-01,9.99999e-01,9.99999e-01,3.61315e-01,9.99999e-01
5.449489501e-01,3.68654e-01,9.99999e-01,9.99999e-01,3.68654e-01,9.99999e-01
5.476736949e-01,3.75993e-01,9.99999e-01,9.99999e-01,3.75993e-01,9.99999e-01
5.504120634e-01,3.83328e-01,9.99999e-01,9.99999e-01,3.83328e-01,9.99999e-01
5.531641237e-01,3.90657e-01,9.99999e-01,9.99999e-01,3.90657e-01,9.99999e-01
5.559299443e-01,3.97978e-01,9.99999e-01,9.99999e-01,3.97978e-01,9.99999e-01
5.587095940e-01,4.05287e-01,9.99999e-01,9.99999e-01,4.05287e-01,9.99999e-01
5.615031420e-01,4.12582e-01,9.99999e-01,9.99999e-01,4.12582e-01,9.99999e-01
5.643106577e-01,4.19861e-01,9.99999e-01,9.99999e-01,4.19861e-01,9.99999e-01
5.671322110e-01,4.27120e-01,9.99999e-01,9.99999e-01,4.27120e-01,9.99999e-01
5.699678720e-01,4.34358e-01,9.99999e-01,9.99999e-01,4.34358e-01,9.99999e-01
5.728177114e-01,4.41571e-01,9.99999e-01,9.99999e-01,4.41571e-01,9.99999e-01
5.756818000e-01,4.48759e-01,9.99999e-01,9.99999e-01,4.48759e-01,9.99999e-01
5.785602090e-01,4.55918e-01,9.99999e-01,9.99999e-01,4.55918e-01,9.99999e-01
5.814530100e-01,4.63046e-01,9.99999e-01,9.99999e-01,4.63046e-01,9.99999e-01
5.843602750e-01,4.70142e-01,9.99999e-01,9.99999e-01,4.70142e-01,9.99999e-01
5.872820764e-01,4.77203e-01,9.99999e-01,9.99999e-01,4.77203e-01,9.99999e-01
5.902184868e-01,4.84228e-01,9.99999e-01,9.99999e-01,4.84228e-01,9.99999e-01
5.931695792e-01,4.91214e-01,9.99999e-01,9.99999e-01,4.91214e-01,9.99999e-01
5.961354271e-01,4.98160e-01,9.99999e-01,9.99999e-01,4.98160e-01,9.99999e-01
5.991161043e-01,5.05064e-01,9.99999e-01,9.99999e-01,5.05064e-01,9.99999e-01
6.021116848e-01,5.11925e-01,9.99999e-01,9.99999e-01,5.11925e-01,9.99999e-01
6.051222432e-01,5.18740e-01,9.99999e-01,9.99999e-01,5.18740e-01,9.99999e-01
6.081478544e-01,5.25509e-01,9.99999e-01,9.99999e-01,5.25509e-01,9.99999e-01
6.111885937e-01,5.32231e-01,9.99999e-01,9.99999e-01,5.32231e-01,9.99999e-01
6.142445367e-01,5.38902e-01,9.99999e-01,9.99999e-01,5.38902e-01,9.99999e-01
6.173157594e-01,5.45523e-01,9.99999e-01,9.99999e-01,5.45523e-01,9.99999e-01
6.204023382e-01,5.52093e-01,9.99999e-01,9.99999e-01,5.52093e-01,9.99999e-01
6.235043498e-01,5.58609e-01,9.99999e-01,9.99999e-01,5.58609e-01,9.99999e-01
6.266218716e-01,5.65071e-01,9.99999e-01,9.99999e-01,5.65071e-01,9.99999e-01
6.297549810e-01,5.71478e-01,9.99999e-01,9.99999e-01,5.71478e-01,9.99999e-01
6.329037559e-01,5.77829e-01,9.99999e-01,9.99999e-01,5.77829e-01,9.99999e-01
6.360682746e-01,5.84123e-01,9.99999e-01,9.99999e-01,5.84123e-01,9.99999e-01
6.392486160e-01,5.90360e-01,9.99999e-01,9.99999e-01,5.90360e-01,9.99999e-01
6.424448591e-01,5.96537e-01,9.99999e-01,9.99999e-01,5.96537e-01,9.99999e-01
6.456570834e-01,6.02656e-01,9.99999e-01,9.99999e-01,6.02656e-01,9.99999e-01
6.488853688e-01,6.08714e-01,9.99999e-01,9.99999e-01,6.08714e-01,9.99999e-01
6.521297956e-01,6.14712e-01,9.99999e-01,9.99999e-01,6.14712e-01,9.99999e-01
6.553904446e-01,6.20649e-01,9.99999e-01,9.99999e-01,6.20649e-01,9.99999e-01
6.586673968e-01,6.26524e-01,9.99999e-01,9.99999e-01,6.26524e-01,9.99999e-01
6.619607338e-01,6.32337e-01,9.99999e-01,9.99999e-01,6.32337e-01,9.99999e-01
6.652705375e-01,6.38088e-01,9.99999e-01,9.99999e-01,6.38088e-01,9.99999e-01
6.685968902e-01,6.43776e-01,9.99999e-01,9.99999e-01,6.43776e-01,9.99999e-01
6.719398746e-01,6.49401e-01,9.99999e-01,9.99999e-01,6.49401e-01,9.99999e-01
6.752995740e-01,6.54962e-01,9.99999e-01,9.99999e-01,6.54962e-01,9.99999e-01
6.786760719e-01,6.60459e-01,9.99999e-01,9.99999e-01,6.60459e-01,9.99999e-01
6.820694522e-01,6.65893e-01,9.99999e-01,9.99999e-01,6.65893e-01,9.99999e-01
6.854797995e-01,6.71263e-01,9.99999e-01,9.99999e-01,6.71263e-01,9.99999e-01
6.889071985e-01,6.76569e-01,9.99999e-01,9.99999e-01,6.76569e-01,9.99999e-01
6.923517345e-01,6.81811e-01,9.99999e-01,9.99999e-01,6.81811e-01,9.99999e-01
6.958134932e-01,6.86988e-01,9.99999e-01,9.99999e-01,6.86988e-01,9.99999e-01
6.992925606e-01,6.92102e-01,9.99999e-01,9.99999e-01,6.92102e-01,9.99999e-01
7.027890234e-01,6.97151e-01,9.99999e-01,9.99999e-01,6.97151e-01,9.99999e-01
7.063029686e-01,7.02137e-01,9.99999e-01,9.99999e-01,7.02137e-01,9.99999e-01
7.098344834e-01,7.07058e-01,9.99999e-01,9.99999e-01,7.07058e-01,9.99999e-01
7.133836558e-01,7.11916e-01,9.99999e-01,9.99999e-01,7.11916e-01,9.99999e-01
7.169505741e-01,7.16711e-01,9.99999e-01,9.99999e-01,7.16711e-01,9.99999e-01
7.205353270e-01,7.21441e-01,9.99999e-01,9.99999e-01,7.21441e-01,9.99999e-01
7.241380036e-01,7.26109e-01,9.99999e-01,9.99999e-01,7.26109e-01,9.99999e-01
7.277586936e-01,7.30714e-01,9.99999e-01,9.99999e-01,7.30714e-01,9.99999e-01
7.313974871e-01,7.35256e-01,9.99999e-01,9.99999e-01,7.35256e-01,9.99999e-01
7.350544745e-01,7.39736e-01,9.99999e-01,9.99999e-01,7.39736e-01,9.99999e-01
7.387297469e-01,7.44154e-01,9.99999e-01,9.99999e-01,7.44154e-01,9.99999e-01
7.424233956e-01,7.48511e-01,9.99999e-01,9.99999e-01,7.48511e-01,9.99999e-01
7.461355126e-01,7.52806e-01,9.99999e-01,9.99999e-01,7.52806e-01,9.99999e-01
7.498661902e-01,7.57040e-01,9.99999e-01,9.99999e-01,7.57040e-01,9.99999e-01
7.536155211e-01,7.61213e-01,9.99999e-01,9.99999e-01,7.61213e-01,9.99999e-01
7.573835987e-01,7.65327e-01,9.99999e-01,9.99999e-01,7.65327e-01,9.99999e-01
7.611705167e-01,7.69381e-01,9.99999e-01,9.99999e-01,7.69381e-01,9.99999e-01
7.649763693e-01,7.73375e-01,9.99999e-01,9.99999e-01,7.73375e-01,9.99999e-01
7.688012511e-01,7.77311e-01,9.99999e-01,9.99999e-01,7.77311e-01,9.99999e-01
7.726452574e-01,7.81188e-01,9.99999e-01,9.99999e-01,7.81188e-01,9.99999e-01
7.765084837e-01,7.85008e-01,9.99999e-01,9.99999e-01,7.85008e-01,9.99999e-01
7.803910261e-01,7.79194e-01,9.99999e-01,9.87858e-01,7.88770e-01,9.99999e-01
7.842929812e-01,7.52921e-01,9.99999e-01,9.50085e-01,7.92476e-01,9.99999e-01
7.882144461e-01,7.53404e-01,9.99999e-01,9.46337e-01,7.96125e-01,9.99999e-01
7.921555184e-01,7.74910e-01,9.99999e-01,9.68977e-01,7.99719e-01,9.99999e-01
7.961162960e-01,7.86579e-01,9.99999e-01,9.79236e-01,8.03257e-01,9.99999e-01
8.000968774e-01,7.97621e-01,9.99999e-01,9.88695e-01,8.06740e-01,9.99999e-01
8.040973618e-01,8.05420e-01,9.99999e-01,9.94137e-01,8.10170e-01,9.99999e-01
8.081178486e-01,8.11352e-01,9.99999e-01,9.97303e-01,8.13546e-01,9.99999e-01
8.121584379e-01,8.16189e-01,9.99999e-01,9.99167e-01,8.16868e-01,9.99999e-01
8.162192301e-01,8.19988e-01,9.99999e-01,9.99815e-01,8.20139e-01,9.99999e-01
8.203003262e-01,8.23355e-01,9.99999e-01,9.99996e-01,8.23357e-01,9.99999e-01
8.244018279e-01,8.26524e-01,9.99999e-01,9.99999e-01,8.26524e-01,9.99999e-01
8.285238370e-01,8.29640e-01,9.99999e-01,9.99999e-01,8.29640e-01,9.99999e-01
8.326664562e-01,8.32707e-01,9.99999e-01,9.99999e-01,8.32707e-01,9.99999e-01
8.368297885e-01,8.35723e-01,9.99999e-01,9.99999e-01,8.35723e-01,9.99999e-01
8.410139374e-01,8.38691e-01,9.99999e-01,9.99999e-01,8.38691e-01,9.99999e-01
8.452190071e-01,8.41610e-01,9.99999e-01,9.99999e-01,8.41610e-01,9.99999e-01
8.494451021e-01,8.44482e-01,9.99999e-01,9.99999e-01,8.44482e-01,9.99999e-01
8.536923276e-01,8.47306e-01,9.99999e-01,9.99999e-01,8.47306e-01,9.99999e-01
8.579607893e-01,8.50084e-01,9.99999e-01,9.99999e-01,8.50084e-01,9.99999e-01
8.622505932e-01,8.52815e-01,9.99999e-01,9.99999e-01,8.52815e-01,9.99999e-01
8.665618462e-01,8.26151e-01,9.99999e-01,9.65691e-01,8.55501e-01,9.99999e-01
8.708946554e-01,7.51317e-01,9.99999e-01,8.75515e-01,8.58143e-01,9.99999e-01
8.752491287e-01,7.74837e-01,9.99999e-01,9.00199e-01,8.60740e-01,9.99999e-01
8.796253743e-01,8.15531e-01,9.99999e-01,9.44673e-01,8.63293e-01,9.99999e-01
8.840235012e-01,8.40791e-01,9.99999e-01,9.71109e-01,8.65803e-01,9.99999e-01
8.884436187e-01,8.58329e-01,9.99999e-01,9.88549e-01,8.68271e-01,9.99999e-01
8.928858368e-01,8.66648e-01,9.99999e-01,9.95349e-01,8.70697e-01,9.99999e-01
8.973502660e-01,8.72096e-01,9.99999e-01,9.98870e-01,8.73082e-01,9.99999e-01
9.018370173e-01,8.75317e-01,9.99999e-01,9.99875e-01,8.75425e-01,9.99999e-01
9.063462024e-01,8.74893e-01,9.99999e-01,9.96768e-01,8.77729e-01,9.99999e-01
9.108779334e-01,8.73538e-01,9.99999e-01,9.92664e-01,8.79993e-01,9.99999e-01
9.154323231e-01,8.80699e-01,9.99999e-01,9.98277e-01,8.82218e-01,9.99999e-01
9.200094847e-01,8.61385e-01,9.99999e-01,9.73971e-01,8.84404e-01,9.99999e-01
9.246095321e-01,8.55099e-01,9.99999e-01,9.64520e-01,8.86553e-01,9.99999e-01
9.292325798e-01,8.63649e-01,9.99999e-01,9.71850e-01,8.88664e-01,9.99999e-01
9.338787427e-01,8.66639e-01,9.99999e-01,9.72944e-01,8.90738e-01,9.99999e-01
9.385481364e-01,8.75016e-01,9.99999e-01,9.80105e-01,8.92776e-01,9.99999e-01
9.432408771e-01,8.83866e-01,9.99999e-01,9.87803e-01,8.94779e-01,9.99999e-01
9.479570815e-01,8.91119e-01,9.99999e-01,9.93724e-01,8.96746e-01,9.99999e-01
9.526968669e-01,8.95956e-01,9.99999e-01,9.96970e-01,8.98678e-01,9.99999e-01
9.574603512e-01,8.99410e-01,9.99999e-01,9.98703e-01,9.00577e-01,9.99999e-01
9.622476530e-01,9.02077e-01,9.99999e-01,9.99595e-01,9.02441e-01,9.99999e-01
9.670588912e-01,9.04164e-01,9.99999e-01,9.99878e-01,9.04273e-01,9.99999e-01
9.718941857e-01,9.06064e-01,9.99999e-01,9.99991e-01,9.06072e-01,9.99999e-01
9.767536566e-01,9.07839e-01,9.99999e-01,9.99999e-01,9.07839e-01,9.99999e-01
9.816374249e-01,9.09575e-01,9.99999e-01,9.99999e-01,9.09575e-01,9.99999e-01
9.865456120e-01,9.11279e-01,9.99999e-01,9.99999e-01,9.11279e-01,9.99999e-01
9.914783401e-01,9.12953e-01,9.99999e-01,9.99999e-01,9.12953e-01,9.99999e-01
9.964357318e-01,9.14597e-01,9.99999e-01,9.99999e-01,9.14597e-01,9.99999e-01
1.001417910e+00,9.16211e-01,9.99999e-01,9.99999e-01,9.16211e-01,9.99999e-01
1.006425000e+00,9.17796e-01,9.99999e-01,9.99999e-01,9.17796e-01,9.99999e-01
1.011457125e+00,9.19352e-01,9.99999e-01,9.99999e-01,9.19352e-01,9.99999e-01
1.016514411e+00,9.20880e-01,9.99999e-01,9.99999e-01,9.20880e-01,9.99999e-01
1.021596983e+00,9.22365e-01,9.99999e-01,9.99982e-01,9.22381e-01,9.99999e-01
1.026704968e+00,9.22694e-01,9.99999e-01,9.98743e-01,9.23854e-01,9.99999e-01
1.031838492e+00,9.06085e-01,9.99999e-01,9.79232e-01,9.25301e-01,9.99999e-01
1.036997685e+00,3.51824e-01,9.99999e-01,3.79644e-01,9.26721e-01,9.99999e-01
1.042182673e+00,4.39177e-01,9.99999e-01,4.73192e-01,9.28115e-01,9.99999e-01
1.047393587e+00,3.86143e-01,9.99999e-01,4.15438e-01,9.29483e-01,9.99999e-01
1.052630555e+00,1.01075e-01,9.99999e-01,1.08587e-01,9.30827e-01,9.99999e-01
1.057893707e+00,1.68932e-01,9.99999e-01,1.81229e-01,9.32146e-01,9.99999e-01
1.063183176e+00,2.73189e-01,9.99999e-01,2.92668e-01,9.33440e-01,9.99999e-01
1.068499092e+00,4.16765e-01,9.99999e-01,4.45875e-01,9.34711e-01,9.99999e-01
1.073841587e+00,5.62734e-01,9.99999e-01,6.01238e-01,9.35958e-01,9.99999e-01
1.079210795e+00,6.80469e-01,9.99999e-01,7.26078e-01,9.37183e-01,9.99999e-01
1.084606849e+00,7.88393e-01,9.99999e-01,8.40159e-01,9.38385e-01,9.99999e-01
1.090029883e+00,8.58622e-01,9.99999e-01,9.13851e-01,9.39564e-01,9.99999e-01
1.095480033e+00,8.99943e-01,9.99999e-01,9.56651e-01,9.40722e-01,9.99999e-01
1.100957433e+00,9.21998e-01,9.99999e-01,9.78914e-01,9.41858e-01,9.99999e-01
1.106462220e+00,9.34707e-01,9.99999e-01,9.91233e-01,9.42973e-01,9.99999e-01
1.111994531e+00,9.40993e-01,9.99999e-01,9.96743e-01,9.44067e-01,9.99999e-01
1.117554504e+00,9.44390e-01,9.99999e-01,9.99204e-01,9.45141e-01,9.99999e-01
1.123142276e+00,9.46146e-01,9.99999e-01,9.99947e-01,9.46195e-01,9.99999e-01
1.128757988e+00,9.47229e-01,9.99999e-01,9.99999e-01,9.47229e-01,9.99999e-01
1.134401778e+00,9.48244e-01,9.99999e-01,9.99999e-01,9.48244e-01,9.99999e-01
1.140073787e+00,9.49240e-01,9.99999e-01,9.99999e-01,9.49240e-01,9.99999e-01
1.145774156e+00,9.50217e-01,9.99999e-01,9.99999e-01,9.50217e-01,9.99999e-01
1.151503026e+00,9.51176e-01,9.99999e-01,9.99999e-01,9.51176e-01,9.99999e-01
1.157260541e+00,9.52117e-01,9.99999e-01,9.99999e-01,9.52117e-01,9.99999e-01
1.163046844e+00,9.53040e-01,9.99999e-01,9.99999e-01,9.53040e-01,9.99999e-01
1.168862078e+00,9.53946e-01,9.99999e-01,9.99999e-01,9.53946e-01,9.99999e-01
1.174706389e+00,9.54835e-01,9.99999e-01,9.99999e-01,9.54835e-01,9.99999e-01
1.180579921e+00,9.55707e-01,9.99999e-01,9.99999e-01,9.55707e-01,9.99999e-01
1.186482820e+00,9.56560e-01,9.99999e-01,9.99997e-01,9.56563e-01,9.99999e-01
1.192415234e+00,9.53065e-01,9.99999e-01,9.95469e-01,9.57402e-01,9.99999e-01
1.198377311e+00,5.82456e-01,9.99999e-01,6.07848e-01,9.58226e-01,9.99999e-01
1.204369197e+00,3.21933e-05,9.99999e-01,3.35684e-05,9.59034e-01,9.99999e-01
1.210391043e+00,4.66807e-15,9.99999e-01,4.86344e-15,9.59826e-01,9.99999e-01
1.216442998e+00,2.88955e-13,9.99999e-01,3.00805e-13,9.60604e-01,9.99999e-01
1.222525213e+00,4.89835e-13,9.99999e-01,5.09519e-13,9.61367e-01,9.99999e-01
1.228637839e+00,5.74653e-10,9.99999e-01,5.97281e-10,9.62115e-01,9.99999e-01
1.234781029e+00,3.04626e-07,9.99999e-01,3.16380e-07,9.62849e-01,9.99999e-01
1.240954934e+00,6.25695e-05,9.99999e-01,6.49350e-05,9.63570e-01,9.99999e-01
1.247159708e+00,4.48493e-03,9.99999e-01,4.65108e-03,9.64276e-01,9.99999e-01
1.253395507e+00,5.29908e-02,9.99999e-01,5.49145e-02,9.64969e-01,9.99999e-01
1.259662485e+00,1.88109e-01,9.99999e-01,1.94800e-01,9.65649e-01,9.99999e-01
1.265960797e+00,3.75228e-01,9.99999e-01,3.88307e-01,9.66316e-01,9.99999e-01
1.272290601e+00,6.58458e-01,9.99999e-01,6.80949e-01,9.66970e-01,9.99999e-01
1.278652054e+00,5.96738e-01,9.99999e-01,6.16712e-01,9.67612e-01,9.99999e-01
1.285045314e+00,6.38347e-02,9.99999e-01,6.59285e-02,9.68242e-01,9.99999e-01
1.291470541e+00,2.02548e-02,9.99999e-01,2.09058e-02,9.68859e-01,9.99999e-01
1.297927893e+00,1.00698e-01,9.99999e-01,1.03870e-01,9.69465e-01,9.99999e-01
1.304417533e+00,4.84358e-01,9.99999e-01,4.99308e-01,9.70059e-01,9.99999e-01
1.310939621e+00,1.51708e-01,9.99999e-01,1.56296e-01,9.70641e-01,9.99999e-01
1.317494319e+00,1.49264e-05,9.99999e-01,1.53688e-05,9.71213e-01,9.99999e-01
1.324081790e+00,2.77017e-04,9.99999e-01,2.85063e-04,9.71773e-01,9.99999e-01
1.330702199e+00,1.49559e-02,9.99999e-01,1.53816e-02,9.72323e-01,9.99999e-01
1.337355710e+00,9.78976e-03,9.99999e-01,1.00628e-02,9.72862e-01,9.99999e-01
1.344042489e+00,4.34723e-03,9.99999e-01,4.46607e-03,9.73391e-01,9.99999e-01
1.350762701e+00,1.26658e-02,9.99999e-01,1.30051e-02,9.73910e-01,9.99999e-01
1.357516515e+00,5.44923e-02,9.99999e-01,5.59228e-02,9.74418e-01,9.99999e-01
1.364304097e+00,1.66791e-01,9.99999e-01,1.71082e-01,9.74917e-01,9.99999e-01
1.371125618e+00,3.81603e-01,9.99999e-01,3.91225e-01,9.75406e-01,9.99999e-01
1.377981246e+00,4.64786e-01,9.99999e-01,4.76271e-01,9.75886e-01,9.99999e-01
1.384871152e+00,6.33918e-01,9.99999e-01,6.49268e-01,9.76357e-01,9.99999e-01
1.391795508e+00,6.55709e-01,9.99999e-01,6.71269e-01,9.76818e-01,9.99999e-01
1.398754485e+00,7.65199e-01,9.99999e-01,7.82995e-01,9.77271e-01,9.99999e-01
1.405748258e+00,8.16053e-01,9.99999e-01,8.34652e-01,9.77715e-01,9.99999e-01
1.412776999e+00,8.72918e-01,9.99999e-01,8.92416e-01,9.78150e-01,9.99999e-01
1.419840884e+00,8.23078e-01,9.99999e-01,8.41095e-01,9.78577e-01,9.99999e-01
1.426940089e+00,1.24283e-01,9.99999e-01,1.26949e-01,9.78996e-01,9.99999e-01
1.434074789e+00,1.16752e-202,9.99999e-01,1.19207e-202,9.79406e-01,9.99999e-01
1.441245163e+00,1.65757e-298,9.99999e-01,1.69172e-298,9.79809e-01,9.99999e-01
1.448451389e+00,1.42163e-245,9.99999e-01,1.45034e-245,9.80204e-01,9.99999e-01
1.455693646e+00,2.43026e-110,9.99999e-01,2.47835e-110,9.80591e-01,9.99999e-01
1.462972114e+00,3.09366e-54,9.99999e-01,3.15367e-54,9.80971e-01,9.99999e-01
1.470286975e+00,1.25861e-23,9.99999e-01,1.28254e-23,9.81343e-01,9.99999e-01
