#,Wave/freq,Total,O2,CO2,Rayleigh,CIA
4.000000000e-01,3.26652e-10,9.99999e-01,9.99999e-01,3.26652e-10,9.99999e-01
4.020000000e-01,5.03098e-10,9.99999e-01,9.99999e-01,5.03098e-10,9.99999e-01
4.040100000e-01,7.67924e-10,9.99999e-01,9.99999e-01,7.67924e-10,9.99999e-01
4.060300500e-01,1.16240e-09,9.99999e-01,9.99999e-01,1.16240e-09,9.99999e-01
4.080602003e-01,1.74517e-09,9.99999e-01,9.99999e-01,1.74517e-09,9.99999e-01
4.101005013e-01,2.59916e-09,9.99999e-01,9.99999e-01,2.59916e-09,9.99999e-01
4.121510038e-01,3.84070e-09,9.99999e-01,9.99999e-01,3.84070e-09,9.99999e-01
4.142117588e-01,5.63170e-09,9.99999e-01,9.99999e-01,5.63170e-09,9.99999e-01
4.162828176e-01,8.19568e-09,9.99999e-01,9.99999e-01,8.19568e-09,9.99999e-01
4.183642317e-01,1.18389e-08,9.99999e-01,9.99999e-01,1.18389e-08,9.99999e-01
4.204560528e-01,1.69779e-08,9.99999e-01,9.99999e-01,1.69779e-08,9.99999e-01
4.225583331e-01,2.41748e-08,9.99999e-01,9.99999e-01,2.41748e-08,9.99999e-01
4.246711247e-01,3.41830e-08,9.99999e-01,9.99999e-01,3.41830e-08,9.99999e-01
4.267944804e-01,4.80049e-08,9.99999e-01,9.99999e-01,4.80049e-08,9.99999e-01
4.289284528e-01,6.69651e-08,9.99999e-01,9.99999e-01,6.69651e-08,9.99999e-01
4.310730950e-01,9.28016e-08,9.99999e-01,9.99999e-01,9.28016e-08,9.99999e-01
4.332284605e-01,1.27780e-07,9.99999e-01,9.99999e-01,1.27780e-07,9.99999e-01
4.353946028e-01,1.74835e-07,9.99999e-01,9.99999e-01,1.74835e-07,9.99999e-01
4.375715758e-01,2.37740e-07,9.99999e-01,9.99999e-01,2.37740e-07,9.99999e-01
4.397594337e-01,3.21323e-07,9.99999e-01,9.99999e-01,3.21323e-07,9.99999e-01
4.419582309e-01,4.31713e-07,9.99999e-01,9.99999e-01,4.31713e-07,9.99999e-01
4.441680220e-01,5.76655e-07,9.99999e-01,9.99999e-01,5.76655e-07,9.99999e-01
4.463888621e-01,7.65867e-07,9.99999e-01,9.99999e-01,7.65867e-07,9.99999e-01
4.486208064e-01,1.01148e-06,9.99999e-01,9.99999e-01,1.01148e-06,9.99999e-01
4.508639105e-01,1.32854e-06,9.99999e-01,9.99999e-01,1.32854e-06,9.99999e-01
4.531182300e-01,1.73561e-06,9.99999e-01,9.99999e-01,1.73561e-06,9.99999e-01
4.553838212e-01,2.25547e-06,9.99999e-01,9.99999e-01,2.25547e-06,9.99999e-01
4.576607403e-01,2.91591e-06,9.99999e-01,9.99999e-01,2.91591e-06,9.99999e-01
4.599490440e-01,3.75067e-06,9.99999e-01,9.99999e-01,3.75067e-06,9.99999e-01
4.622487892e-01,4.80047e-06,9.99999e-01,9.99999e-01,4.80047e-06,9.99999e-01
4.645600332e-01,6.11422e-06,9.99999e-01,9.99999e-01,6.11422e-06,9.99999e-01
4.668828333e-01,7.75040e-06,9.99999e-01,9.99999e-01,7.75040e-06,9.99999e-01
4.692172475e-01,9.77850e-06,9.99999e-01,9.99999e-01,9.77850e-06,9.99999e-01
4.715633337e-01,1.22808e-05,9.99999e-01,9.99999e-01,1.22808e-05,9.99999e-01
4.739211504e-01,1.53542e-05,9.99999e-01,9.99999e-01,1.53542e-05,9.99999e-01
4.762907561e-01,1.91122e-05,9.99999e-01,9.99999e-01,1.91122e-05,9.99999e-01
4.786722099e-01,2.36874e-05,9.99999e-01,9.99999e-01,2.36874e-05,9.99999e-01
4.810655710e-01,2.92335e-05,9.99999e-01,9.99999e-01,2.92335e-05,9.99999e-01
4.834708988e-01,3.59287e-05,9.99999e-01,9.99999e-01,3.59287e-05,9.99999e-01
4.858882533e-01,4.39777e-05,9.99999e-01,9.99999e-01,4.39777e-05,9.99999e-01
4.883176946e-01,5.36154e-05,9.99999e-01,9.99999e-01,5.36154e-05,9.99999e-01
4.907592831e-01,6.51098e-05,9.99999e-01,9.99999e-01,6.51098e-05,9.99999e-01
4.932130795e-01,7.87657e-05,9.99999e-01,9.99999e-01,7.87657e-05,9.99999e-01
4.956791449e-01,9.49281e-05,9.99999e-01,9.99999e-01,9.49281e-05,9.99999e-01
4.981575406e-01,1.13986e-04,9.99999e-01,9.99999e-01,1.13986e-04,9.99999e-01
5.006483283e-01,1.36376e-04,9.99999e-01,9.99999e-01,1.36376e-04,9.99999e-01
5.031515699e-01,1.62587e-04,9.99999e-01,9.99999e-01,1.62587e-04,9.99999e-01
5.056673278e-01,1.93164e-04,9.99999e-01,9.99999e-01,1.93164e-04,9.99999e-01
5.081956644e-01,2.28712e-04,9.99999e-01,9.99999e-01,2.28712e-04,9.99999e-01
5.107366428e-01,2.69900e-04,9.99999e-01,9.99999e-01,2.69900e-04,9.99999e-01
5.132903260e-01,3.17464e-04,9.99999e-01,9.99999e-01,3.17464e-04,9.99999e-01
5.158567776e-01,3.72216e-04,9.99999e-01,9.99999e-01,3.72216e-04,9.99999e-01
5.184360615e-01,4.35041e-04,9.99999e-01,9.99999e-01,4.35041e-04,9.99999e-01
5.210282418e-01,5.06906e-04,9.99999e-01,9.99999e-01,5.06906e-04,9.99999e-01
5.236333830e-01,5.88862e-04,9.99999e-01,9.99999e-01,5.88862e-04,9.99999e-01
5.262515499e-01,6.82046e-04,9.99999e-01,9.99999e-01,6.82046e-04,9.99999e-01
5.288828077e-01,7.87687e-04,9.99999e-01,9.99999e-01,7.87687e-04,9.99999e-01
5.315272217e-01,9.07107e-04,9.99999e-01,9.99999e-01,9.07107e-04,9.99999e-01
5.341848578e-01,1.04172e-03,9.99999e-01,9.99999e-01,1.04172e-03,9.99999e-01
5.368557821e-01,1.19305e-03,9.99999e-01,9.99999e-01,1.19305e-03,9.99999e-01
5.395400610e-01,1.36271e-03,9.99999e-01,9.99999e-01,1.36271e-03,9.99999e-01
5.422377613e-01,1.55240e-03,9.99999e-01,9.99999e-01,1.55240e-03,9.99999e-01
5.449489501e-01,1.76396e-03,9.99999e-01,9.99999e-01,1.76396e-03,9.99999e-01
5.476736949e-01,1.99930e-03,9.99999e-01,9.99999e-01,1.99930e-03,9.99999e-01
5.504120634e-01,2.26044e-03,9.99999e-01,9.99999e-01,2.26044e-03,9.99999e-01
5.531641237e-01,2.54949e-03,9.99999e-01,9.99999e-01,2.54949e-03,9.99999e-01
5.559299443e-01,2.86868e-03,9.99999e-01,9.99999e-01,2.86868e-03,9.99999e-01
5.587095940e-01,3.22033e-03,9.99999e-01,9.99999e-01,3.22033e-03,9.99999e-01
5.615031420e-01,3.60682e-03,9.99999e-01,9.99999e-01,3.60682e-03,9.99999e-01
5.643106577e-01,4.03067e-03,9.99999e-01,9.99999e-01,4.03067e-03,9.99999e-01
5.671322110e-01,4.49446e-03,9.99999e-01,9.99999e-01,4.49446e-03,9.99999e-01
5.699678720e-01,5.00084e-03,9.99999e-01,9.99999e-01,5.00084e-03,9.99999e-01
5.728177114e-01,5.55255e-03,9.99999e-01,9.99999e-01,5.55255e-03,9.99999e-01
5.756818000e-01,6.15240e-03,9.99999e-01,9.99999e-01,6.15240e-03,9.99999e-01
5.785602090e-01,6.80325e-03,9.99999e-01,9.99999e-01,6.80325e-03,9.99999e-01
5.814530100e-01,7.50802e-03,9.99999e-01,9.99999e-01,7.50802e-03,9.99999e-01
5.843602750e-01,8.26969e-03,9.99999e-01,9.99999e-01,8.26969e-03,9.99999e-01
5.872820764e-01,9.09125e-03,9.99999e-01,9.99999e-01,9.09125e-03,9.99999e-01
5.902184868e-01,9.97576e-03,9.99999e-01,9.99999e-01,9.97576e-03,9.99999e-01
5.931695792e-01,1.09263e-02,9.99999e-01,9.99999e-01,1.09263e-02,9.99999e-01
5.961354271e-01,1.19458e-02,9.99999e-01,9.99999e-01,1.19458e-02,9.99999e-01
5.991161043e-01,1.30376e-02,9.99999e-01,9.99999e-01,1.30376e-02,9.99999e-01
6.021116848e-01,1.42045e-02,9.99999e-01,9.99999e-01,1.42045e-02,9.99999e-01
6.051222432e-01,1.54497e-02,9.99999e-01,9.99999e-01,1.54497e-02,9.99999e-01
6.081478544e-01,1.67762e-02,9.99999e-01,9.99999e-01,1.67762e-02,9.99999e-01
6.111885937e-01,1.81870e-02,9.99999e-01,9.99999e-01,1.81870e-02,9.99999e-01
6.142445367e-01,1.96849e-02,9.99999e-01,9.99999e-01,1.96849e-02,9.99999e-01
6.173157594e-01,2.12730e-02,9.99999e-01,9.99999e-01,2.12730e-02,9.99999e-01
6.204023382e-01,2.29540e-02,9.99999e-01,9.99999e-01,2.29540e-02,9.99999e-01
6.235043498e-01,2.47307e-02,9.99999e-01,9.99999e-01,2.47307e-02,9.99999e-01
6.266218716e-01,2.66056e-02,9.99999e-01,9.99999e-01,2.66056e-02,9.99999e-01
6.297549810e-01,2.85814e-02,9.99999e-01,9.99999e-01,2.85814e-02,9.99999e-01
6.329037559e-01,3.06606e-02,9.99999e-01,9.99999e-01,3.06606e-02,9.99999e-01
6.360682746e-01,3.28454e-02,9.99999e-01,9.99999e-01,3.28454e-02,9.99999e-01
6.392486160e-01,3.51380e-02,9.99999e-01,9.99999e-01,3.51380e-02,9.99999e-01
6.424448591e-01,3.75407e-02,9.99999e-01,9.99999e-01,3.75407e-02,9.99999e-01
6.456570834e-01,4.00552e-02,9.99999e-01,9.99999e-01,4.00552e-02,9.99999e-01
6.488853688e-01,4.26835e-02,9.99999e-01,9.99999e-01,4.26835e-02,9.99999e-01
6.521297956e-01,4.54272e-02,9.99999e-01,9.99999e-01,4.54272e-02,9.99999e-01
6.553904446e-01,4.82878e-02,9.99999e-01,9.99999e-01,4.82878e-02,9.99999e-01
6.586673968e-01,5.12666e-02,9.99999e-01,9.99999e-01,5.12666e-02,9.99999e-01
6.619607338e-01,5.43649e-02,9.99999e-01,9.99999e-01,5.43649e-02,9.99999e-01
6.652705375e-01,5.75836e-02,9.99999e-01,9.99999e-01,5.75836e-02,9.99999e-01
6.685968902e-01,6.09237e-02,9.99999e-01,9.99999e-01,6.09237e-02,9.99999e-01
6.719398746e-01,6.43857e-02,9.99999e-01,9.99999e-01,6.43857e-02,9.99999e-01
6.752995740e-01,6.79703e-02,9.99999e-01,9.99999e-01,6.79703e-02,9.99999e-01
6.786760719e-01,7.16776e-02,9.99999e-01,9.99999e-01,7.16776e-02,9.99999e-01
6.820694522e-01,7.55079e-02,9.99999e-01,9.99999e-01,7.55079e-02,9.99999e-01
6.854797995e-01,7.94612e-02,9.99999e-01,9.99999e-01,7.94612e-02,9.99999e-01
6.889071985e-01,8.35372e-02,9.99999e-01,9.99999e-01,8.35372e-02,9.99999e-01
6.923517345e-01,8.77355e-02,9.99999e-01,9.99999e-01,8.77355e-02,9.99999e-01
6.958134932e-01,9.20556e-02,9.99999e-01,9.99999e-01,9.20556e-02,9.99999e-01
6.992925606e-01,9.64968e-02,9.99999e-01,9.99999e-01,9.64968e-02,9.99999e-01
7.027890234e-01,1.01058e-01,9.99999e-01,9.99999e-01,1.01058e-01,9.99999e-01
7.063029686e-01,1.05739e-01,9.99999e-01,9.99999e-01,1.05739e-01,9.99999e-01
7.098344834e-01,1.10537e-01,9.99999e-01,9.99999e-01,1.10537e-01,9.99999e-01
7.133836558e-01,1.15452e-01,9.99999e-01,9.99999e-01,1.15452e-01,9.99999e-01
7.169505741e-01,1.20481e-01,9.99999e-01,9.99999e-01,1.20481e-01,9.99999e-01
7.205353270e-01,1.25624e-01,9.99999e-01,9.99999e-01,1.25624e-01,9.99999e-01
7.241380036e-01,1.30879e-01,9.99999e-01,9.99999e-01,1.30879e-01,9.99999e-01
7.277586936e-01,1.36243e-01,9.99999e-01,9.99999e-01,1.36243e-01,9.99999e-01
7.313974871e-01,1.41714e-01,9.99999e-01,9.99999e-01,1.41714e-01,9.99999e-01
7.350544745e-01,1.47291e-01,9.99999e-01,9.99999e-01,1.47291e-01,9.99999e-01
7.387297469e-01,1.52970e-01,9.99999e-01,9.99999e-01,1.52970e-01,9.99999e-01
7.424233956e-01,1.58749e-01,9.99999e-01,9.99999e-01,1.58749e-01,9.99999e-01
7.461355126e-01,1.64626e-01,9.99999e-01,9.99999e-01,1.64626e-01,9.99999e-01
7.498661902e-01,1.70599e-01,9.99999e-01,9.99999e-01,1.70599e-01,9.99999e-01
7.536155211e-01,1.76663e-01,9.99999e-01,9.99999e-01,1.76663e-01,9.99999e-01
7.573835987e-01,1.82817e-01,9.99999e-01,9.99999e-01,1.82817e-01,9.99999e-01
7.611705167e-01,1.89057e-01,9.99999e-01,9.99999e-01,1.89057e-01,9.99999e-01
7.649763693e-01,1.95381e-01,9.99999e-01,9.99999e-01,1.95381e-01,9.99999e-01
7.688012511e-01,2.01785e-01,9.99999e-01,9.99999e-01,2.01785e-01,9.99999e-01
7.726452574e-01,2.08267e-01,9.99999e-01,9.99999e-01,2.08267e-01,9.99999e-01
7.765084837e-01,2.14822e-01,9.99999e-01,9.99999e-01,2.14822e-01,9.99999e-01
7.803910261e-01,2.07870e-01,9.99999e-01,9.38684e-01,2.21448e-01,9.99999e-01
7.842929812e-01,1.67297e-01,9.99999e-01,7.33303e-01,2.28141e-01,9.99999e-01
7.882144461e-01,1.69279e-01,9.99999e-01,7.20644e-01,2.34899e-01,9.99999e-01
7.921555184e-01,1.98547e-01,9.99999e-01,8.21401e-01,2.41717e-01,9.99999e-01
7.961162960e-01,2.17535e-01,9.99999e-01,8.75064e-01,2.48593e-01,9.99999e-01
8.000968774e-01,2.37700e-01,9.99999e-01,9.30251e-01,2.55523e-01,9.99999e-01
8.040973618e-01,2.52805e-01,9.99999e-01,9.63056e-01,2.62503e-01,9.99999e-01
8.081178486e-01,2.64931e-01,9.99999e-01,9.82933e-01,2.69530e-01,9.99999e-01
8.121584379e-01,2.75123e-01,9.99999e-01,9.94654e-01,2.76602e-01,9.99999e-01
8.162192301e-01,2.83378e-01,9.99999e-01,9.98816e-01,2.83713e-01,9.99999e-01
8.203003262e-01,2.90856e-01,9.99999e-01,9.99979e-01,2.90862e-01,9.99999e-01
8.244018279e-01,2.98044e-01,9.99999e-01,9.99999e-01,2.98044e-01,9.99999e-01
8.285238370e-01,3.05256e-01,9.99999e-01,9.99999e-01,3.05256e-01,9.99999e-01
8.326664562e-01,3.12495e-01,9.99999e-01,9.99999e-01,3.12495e-01,9.99999e-01
8.368297885e-01,3.19758e-01,9.99999e-01,9.99999e-01,3.19758e-01,9.99999e-01
8.410139374e-01,3.27041e-01,9.99999e-01,9.99999e-01,3.27041e-01,9.99999e-01
8.452190071e-01,3.34341e-01,9.99999e-01,9.99999e-01,3.34341e-01,9.99999e-01
8.494451021e-01,3.41656e-01,9.99999e-01,9.99999e-01,3.41656e-01,9.99999e-01
8.536923276e-01,3.48981e-01,9.99999e-01,9.99999e-01,3.48981e-01,9.99999e-01
8.579607893e-01,3.56313e-01,9.99999e-01,9.99999e-01,3.56313e-01,9.99999e-01
8.622505932e-01,3.63651e-01,9.99999e-01,9.99999e-01,3.63651e-01,9.99999e-01
8.665618462e-01,3.31364e-01,9.99999e-01,8.93188e-01,3.70990e-01,9.99999e-01
8.708946554e-01,1.75574e-01,9.99999e-01,4.64078e-01,3.78328e-01,9.99999e-01
8.752491287e-01,2.04704e-01,9.99999e-01,5.30786e-01,3.85662e-01,9.99999e-01
8.796253743e-01,2.75795e-01,9.99999e-01,7.01787e-01,3.92989e-01,9.99999e-01
8.840235012e-01,3.32559e-01,9.99999e-01,8.30762e-01,4.00306e-01,9.99999e-01
8.884436187e-01,3.78672e-01,9.99999e-01,9.29003e-01,4.07611e-01,9.99999e-01
8.928858368e-01,4.02726e-01,9.99999e-01,9.70654e-01,4.14901e-01,9.99999e-01
8.973502660e-01,4.19111e-01,9.99999e-01,9.92745e-01,4.22173e-01,9.99999e-01
9.018370173e-01,4.29081e-01,9.99999e-01,9.99196e-01,4.29426e-01,9.99999e-01
9.063462024e-01,4.28110e-01,9.99999e-01,9.80426e-01,4.36656e-01,9.99999e-01
9.108779334e-01,4.23542e-01,9.99999e-01,9.54219e-01,4.43862e-01,9.99999e-01
9.154323231e-01,4.46059e-01,9.99999e-01,9.88954e-01,4.51040e-01,9.99999e-01
9.200094847e-01,3.95805e-01,9.99999e-01,8.63844e-01,4.58190e-01,9.99999e-01
9.246095321e-01,3.70313e-01,9.99999e-01,7.95844e-01,4.65308e-01,9.99999e-01
9.292325798e-01,3.96363e-01,9.99999e-01,8.39052e-01,4.72393e-01,9.99999e-01
9.338787427e-01,4.03558e-01,9.99999e-01,8.41721e-01,4.79443e-01,9.99999e-01
9.385481364e-01,4.28360e-01,9.99999e-01,8.80572e-01,4.86456e-01,9.99999e-01
9.432408771e-01,4.56240e-01,9.99999e-01,9.24631e-01,4.93429e-01,9.99999e-01
9.479570815e-01,4.80694e-01,9.99999e-01,9.60692e-01,5.00362e-01,9.99999e-01
9.526968669e-01,4.97527e-01,9.99999e-01,9.80827e-01,5.07253e-01,9.99999e-01
9.574603512e-01,5.09857e-01,9.99999e-01,9.91748e-01,5.14099e-01,9.99999e-01
9.622476530e-01,5.19554e-01,9.99999e-01,9.97416e-01,5.20900e-01,9.99999e-01
9.670588912e-01,5.27244e-01,9.99999e-01,9.99223e-01,5.27654e-01,9.99999e-01
9.718941857e-01,5.34330e-01,9.99999e-01,9.99943e-01,5.34359e-01,9.99999e-01
9.767536566e-01,5.41015e-01,9.99999e-01,9.99999e-01,5.41015e-01,9.99999e-01
9.816374249e-01,5.47620e-01,9.99999e-01,9.99999e-01,5.47620e-01,9.99999e-01
9.865456120e-01,5.54172e-01,9.99999e-01,9.99999e-01,5.54172e-01,9.99999e-01
9.914783401e-01,5.60672e-01,9.99999e-01,9.99999e-01,5.60672e-01,9.99999e-01
9.964357318e-01,5.67116e-01,9.99999e-01,9.99999e-01,5.67116e-01,9.99999e-01
1.001417910e+00,5.73506e-01,9.99999e-01,9.99999e-01,5.73506e-01,9.99999e-01
1.006425000e+00,5.79839e-01,9.99999e-01,9.99999e-01,5.79839e-01,9.99999e-01
1.011457125e+00,5.86114e-01,9.99999e-01,9.99999e-01,5.86114e-01,9.99999e-01
1.016514411e+00,5.92332e-01,9.99999e-01,9.99999e-01,5.92332e-01,9.99999e-01
1.021596983e+00,5.98434e-01,9.99999e-01,9.99903e-01,5.98491e-01,9.99999e-01
1.026704968e+00,5.99933e-01,9.99999e-01,9.92296e-01,6.04591e-01,9.99999e-01
1.031838492e+00,5.68414e-01,9.99999e-01,9.30863e-01,6.10630e-01,9.99999e-01
1.036997685e+00,4.81373e-02,9.99999e-01,7.80678e-02,6.16608e-01,9.99999e-01
1.042182673e+00,1.01699e-02,9.99999e-01,1.63364e-02,6.22526e-01,9.99999e-01
1.047393587e+00,2.01688e-02,9.99999e-01,3.20964e-02,6.28381e-01,9.99999e-01
1.052630555e+00,2.71606e-05,9.99999e-01,4.28282e-05,6.34175e-01,9.99999e-01
1.057893707e+00,9.38471e-05,9.99999e-01,1.46658e-04,6.39905e-01,9.99999e-01
1.063183176e+00,9.00172e-04,9.99999e-01,1.39438e-03,6.45573e-01,9.99999e-01
1.068499092e+00,5.36475e-03,9.99999e-01,8.23853e-03,6.51177e-01,9.99999e-01
1.073841587e+00,3.05369e-02,9.99999e-01,4.64992e-02,6.56719e-01,9.99999e-01
1.079210795e+00,9.53314e-02,9.99999e-01,1.43962e-01,6.62196e-01,9.99999e-01
1.084606849e+00,2.25023e-01,9.99999e-01,3.37058e-01,6.67609e-01,9.99999e-01
1.090029883e+00,3.81660e-01,9.99999e-01,5.67137e-01,6.72959e-01,9.99999e-01
1.095480033e+00,5.12383e-01,9.99999e-01,7.55454e-01,6.78244e-01,9.99999e-01
1.100957433e+00,5.96863e-01,9.99999e-01,8.73288e-01,6.83466e-01,9.99999e-01
1.106462220e+00,6.51028e-01,9.99999e-01,9.45404e-01,6.88623e-01,9.99999e-01
1.111994531e+00,6.79421e-01,9.99999e-01,9.79393e-01,6.93716e-01,9.99999e-01
1.117554504e+00,6.95187e-01,9.99999e-01,9.94907e-01,6.98745e-01,9.99999e-01
1.123142276e+00,7.03473e-01,9.99999e-01,9.99662e-01,7.03710e-01,9.99999e-01
1.128757988e+00,7.08611e-01,9.99999e-01,9.99999e-01,7.08611e-01,9.99999e-01
1.134401778e+00,7.13449e-01,9.99999e-01,9.99999e-01,7.13449e-01,9.99999e-01
1.140073787e+00,7.18223e-01,9.99999e-01,9.99999e-01,7.18223e-01,9.99999e-01
1.145774156e+00,7.22934e-01,9.99999e-01,9.99999e-01,7.22934e-01,9.99999e-01
1.151503026e+00,7.27582e-01,9.99999e-01,9.99999e-01,7.27582e-01,9.99999e-01
1.157260541e+00,7.32167e-01,9.99999e-01,9.99999e-01,7.32167e-01,9.99999e-01
1.163046844e+00,7.36689e-01,9.99999e-01,9.99999e-01,7.36689e-01,9.99999e-01
1.168862078e+00,7.41149e-01,9.99999e-01,9.99999e-01,7.41149e-01,9.99999e-01
1.174706389e+00,7.45548e-01,9.99999e-01,9.99999e-01,7.45548e-01,9.99999e-01
1.180579921e+00,7.49884e-01,9.99999e-01,9.99999e-01,7.49884e-01,9.99999e-01
1.186482820e+00,7.54152e-01,9.99999e-01,9.99989e-01,7.54160e-01,9.99999e-01
1.192415234e+00,7.38197e-01,9.99999e-01,9.73393e-01,7.58375e-01,9.99999e-01
1.198377311e+00,4.10705e-01,9.99999e-01,5.38608e-01,7.62529e-01,9.99999e-01
1.204369197e+00,3.47753e-21,9.99999e-01,4.53616e-21,7.66624e-01,9.99999e-01
1.210391043e+00,1.33341e-83,9.99999e-01,1.73022e-83,7.70658e-01,9.99999e-01
1.216442998e+00,1.93044e-72,9.99999e-01,2.49207e-72,7.74634e-01,9.99999e-01
1.222525213e+00,2.30476e-71,9.99999e-01,2.96032e-71,7.78551e-01,9.99999e-01
1.228637839e+00,3.63991e-55,9.99999e-01,4.65217e-55,7.82410e-01,9.99999e-01
1.234781029e+00,1.27844e-34,9.99999e-01,1.62607e-34,7.86212e-01,9.99999e-01
1.240954934e+00,4.04089e-23,9.99999e-01,5.11533e-23,7.89956e-01,9.99999e-01
1.247159708e+00,1.50075e-11,9.99999e-01,1.89097e-11,7.93644e-01,9.99999e-01
1.253395507e+00,8.63865e-08,9.99999e-01,1.08352e-07,7.97275e-01,9.99999e-01
1.259662485e+00,4.78089e-05,9.99999e-01,5.96976e-05,8.00851e-01,9.99999e-01
1.265960797e+00,4.50265e-03,9.99999e-01,5.59772e-03,8.04371e-01,9.99999e-01
1.272290601e+00,6.63906e-02,9.99999e-01,8.21831e-02,8.07838e-01,9.99999e-01
1.278652054e+00,6.99692e-02,9.99999e-01,8.62485e-02,8.11250e-01,9.99999e-01
1.285045314e+00,3.50121e-04,9.99999e-01,4.29802e-04,8.14609e-01,9.99999e-01
1.291470541e+00,3.03256e-10,9.99999e-01,3.70767e-10,8.17915e-01,9.99999e-01
1.297927893e+00,7.75199e-05,9.99999e-01,9.44019e-05,8.21169e-01,9.99999e-01
1.304417533e+00,1.15890e-02,9.99999e-01,1.40580e-02,8.24371e-01,9.99999e-01
1.310939621e+00,2.89490e-03,9.99999e-01,3.49828e-03,8.27521e-01,9.99999e-01
1.317494319e+00,8.00551e-29,9.99999e-01,9.63796e-29,8.30622e-01,9.99999e-01
1.324081790e+00,3.65641e-19,9.99999e-01,4.38591e-19,8.33672e-01,9.99999e-01
1.330702199e+00,2.20389e-11,9.99999e-01,2.63411e-11,8.36673e-01,9.99999e-01
1.337355710e+00,1.27549e-10,9.99999e-01,1.51912e-10,8.39625e-01,9.99999e-01
1.344042489e+00,5.59721e-11,9.99999e-01,6.64333e-11,8.42529e-01,9.99999e-01
1.350762701e+00,1.14928e-11,9.99999e-01,1.35948e-11,8.45386e-01,9.99999e-01
1.357516515e+00,2.01410e-07,9.99999e-01,2.37457e-07,8.48195e-01,9.99999e-01
1.364304097e+00,2.14872e-05,9.99999e-01,2.52506e-05,8.50958e-01,9.99999e-01
1.371125618e+00,3.75113e-03,9.99999e-01,4.39410e-03,8.53675e-01,9.99999e-01
1.377981246e+00,8.45684e-03,9.99999e-01,9.87547e-03,8.56347e-01,9.99999e-01
1.384871152e+00,5.83891e-02,9.99999e-01,6.79754e-02,8.58974e-01,9.99999e-01
1.391795508e+00,7.16644e-02,9.99999e-01,8.31800e-02,8.61557e-01,9.99999e-01
1.398754485e+00,1.83193e-01,9.99999e-01,2.12005e-01,8.64097e-01,9.99999e-01
1.405748258e+00,2.78214e-01,9.99999e-01,3.21043e-01,8.66593e-01,9.99999e-01
1.412776999e+00,4.22299e-01,9.99999e-01,4.85932e-01,8.69048e-01,9.99999e-01
1.419840884e+00,3.88260e-01,9.99999e-01,4.45527e-01,8.71461e-01,9.99999e-01
1.426940089e+00,1.97286e-02,9.99999e-01,2.25771e-02,8.73832e-01,9.99999e-01
1.434074789e+00,0.00000e+00,9.99999e-01,0.00000e+00,8.76163e-01,9.99999e-01
1.441245163e+00,0.00000e+00,9.99999e-01,0.00000e+00,8.78454e-01,9.99999e-01
1.448451389e+00,0.00000e+00,9.99999e-01,0.00000e+00,8.80705e-01,9.99999e-01
1.455693646e+00,0.00000e+00,9.99999e-01,0.00000e+00,8.82918e-01,9.99999e-01
1.462972114e+00,0.00000e+00,9.99999e-01,0.00000e+00,8.85092e-01,9.99999e-01
1.470286975e+00,4.05259e-138,9.99999e-01,4.56769e-138,8.87229e-01,9.99999e-01
