#,Wave/freq,Total,O2,CO2,Rayleigh,CIA
4.000000000e-01,3.47339e-04,9.99999e-01,9.99999e-01,3.47339e-04,9.99999e-01
4.020000000e-01,4.06585e-04,9.99999e-01,9.99999e-01,4.06585e-04,9.99999e-01
4.040100000e-01,4.74383e-04,9.99999e-01,9.99999e-01,4.74383e-04,9.99999e-01
4.060300500e-01,5.51802e-04,9.99999e-01,9.99999e-01,5.51802e-04,9.99999e-01
4.080602003e-01,6.39943e-04,9.99999e-01,9.99999e-01,6.39943e-04,9.99999e-01
4.101005013e-01,7.39994e-04,9.99999e-01,9.99999e-01,7.39994e-04,9.99999e-01
4.121510038e-01,8.53235e-04,9.99999e-01,9.99999e-01,8.53235e-04,9.99999e-01
4.142117588e-01,9.81042e-04,9.99999e-01,9.99999e-01,9.81042e-04,9.99999e-01
4.162828176e-01,1.12489e-03,9.99999e-01,9.99999e-01,1.12489e-03,9.99999e-01
4.183642317e-01,1.28634e-03,9.99999e-01,9.99999e-01,1.28634e-03,9.99999e-01
4.204560528e-01,1.46708e-03,9.99999e-01,9.99999e-01,1.46708e-03,9.99999e-01
4.225583331e-01,1.66888e-03,9.99999e-01,9.99999e-01,1.66888e-03,9.99999e-01
4.246711247e-01,1.89360e-03,9.99999e-01,9.99999e-01,1.89360e-03,9.99999e-01
4.267944804e-01,2.14323e-03,9.99999e-01,9.99999e-01,2.14323e-03,9.99999e-01
4.289284528e-01,2.41984e-03,9.99999e-01,9.99999e-01,2.41984e-03,9.99999e-01
4.310730950e-01,2.72561e-03,9.99999e-01,9.99999e-01,2.72561e-03,9.99999e-01
4.332284605e-01,3.06280e-03,9.99999e-01,9.99999e-01,3.06280e-03,9.99999e-01
4.353946028e-01,3.43379e-03,9.99999e-01,9.99999e-01,3.43379e-03,9.99999e-01
4.375715758e-01,3.84104e-03,9.99999e-01,9.99999e-01,3.84104e-03,9.99999e-01
4.397594337e-01,4.28708e-03,9.99999e-01,9.99999e-01,4.28708e-03,9.99999e-01
4.419582309e-01,4.77455e-03,9.99999e-01,9.99999e-01,4.77455e-03,9.99999e-01
4.441680220e-01,5.30615e-03,9.99999e-01,9.99999e-01,5.30615e-03,9.99999e-01
4.463888621e-01,5.88465e-03,9.99999e-01,9.99999e-01,5.88465e-03,9.99999e-01
4.486208064e-01,6.51290e-03,9.99999e-01,9.99999e-01,6.51290e-03,9.99999e-01
4.508639105e-01,7.19379e-03,9.99999e-01,9.99999e-01,7.19379e-03,9.99999e-01
4.531182300e-01,7.93027e-03,9.99999e-01,9.99999e-01,7.93027e-03,9.99999e-01
4.553838212e-01,8.72534e-03,9.99999e-01,9.99999e-01,8.72534e-03,9.99999e-01
4.576607403e-01,9.58202e-03,9.99999e-01,9.99999e-01,9.58202e-03,9.99999e-01
4.599490440e-01,1.05034e-02,9.99999e-01,9.99999e-01,1.05034e-02,9.99999e-01
4.622487892e-01,1.14924e-02,9.99999e-01,9.99999e-01,1.14924e-02,9.99999e-01
4.645600332e-01,1.25523e-02,9.99999e-01,9.99999e-01,1.25523e-02,9.99999e-01
4.668828333e-01,1.36861e-02,9.99999e-01,9.99999e-01,1.36861e-02,9.99999e-01
4.692172475e-01,1.48967e-02,9.99999e-01,9.99999e-01,1.48967e-02,9.99999e-01
4.715633337e-01,1.61874e-02,9.99999e-01,9.99999e-01,1.61874e-02,9.99999e-01
4.739211504e-01,1.75611e-02,9.99999e-01,9.99999e-01,1.75611e-02,9.99999e-01
4.762907561e-01,1.90206e-02,9.99999e-01,9.99999e-01,1.90206e-02,9.99999e-01
4.786722099e-01,2.05691e-02,9.99999e-01,9.99999e-01,2.05691e-02,9.99999e-01
4.810655710e-01,2.22092e-02,9.99999e-01,9.99999e-01,2.22092e-02,9.99999e-01
4.834708988e-01,2.39438e-02,9.99999e-01,9.99999e-01,2.39438e-02,9.99999e-01
4.858882533e-01,2.57755e-02,9.99999e-01,9.99999e-01,2.57755e-02,9.99999e-01
4.883176946e-01,2.77071e-02,9.99999e-01,9.99999e-01,2.77071e-02,9.99999e-01
4.907592831e-01,2.97408e-02,9.99999e-01,9.99999e-01,2.97408e-02,9.99999e-01
4.932130795e-01,3.18793e-02,9.99999e-01,9.99999e-01,3.18793e-02,9.99999e-01
4.956791449e-01,3.41246e-02,9.99999e-01,9.99999e-01,3.41246e-02,9.99999e-01
4.981575406e-01,3.64790e-02,9.99999e-01,9.99999e-01,3.64790e-02,9.99999e-01
5.006483283e-01,3.89445e-02,9.99999e-01,9.99999e-01,3.89445e-02,9.99999e-01
5.031515699e-01,4.15230e-02,9.99999e-01,9.99999e-01,4.15230e-02,9.99999e-01
5.056673278e-01,4.42161e-02,9.99999e-01,9.99999e-01,4.42161e-02,9.99999e-01
5.081956644e-01,4.70255e-02,9.99999e-01,9.99999e-01,4.70255e-02,9.99999e-01
5.107366428e-01,4.99526e-02,9.99999e-01,9.99999e-01,4.99526e-02,9.99999e-01
5.132903260e-01,5.29987e-02,9.99999e-01,9.99999e-01,5.29987e-02,9.99999e-01
5.158567776e-01,5.61648e-02,9.99999e-01,9.99999e-01,5.61648e-02,9.99999e-01
5.184360615e-01,5.94518e-02,9.99999e-01,9.99999e-01,5.94518e-02,9.99999e-01
5.210282418e-01,6.28606e-02,9.99999e-01,9.99999e-01,6.28606e-02,9.99999e-01
5.236333830e-01,6.63917e-02,9.99999e-01,9.99999e-01,6.63917e-02,9.99999e-01
5.262515499e-01,7.00454e-02,9.99999e-01,9.99999e-01,7.00454e-02,9.99999e-01
5.288828077e-01,7.38221e-02,9.99999e-01,9.99999e-01,7.38221e-02,9.99999e-01
5.315272217e-01,7.77217e-02,9.99999e-01,9.99999e-01,7.77217e-02,9.99999e-01
5.341848578e-01,8.17442e-02,9.99999e-01,9.99999e-01,8.17442e-02,9.99999e-01
5.368557821e-01,8.58892e-02,9.99999e-01,9.99999e-01,8.58892e-02,9.99999e-01
5.395400610e-01,9.01563e-02,9.99999e-01,9.99999e-01,9.01563e-02,9.99999e-01
5.422377613e-01,9.45447e-02,9.99999e-01,9.99999e-01,9.45447e-02,9.99999e-01
5.449489501e-01,9.90538e-02,9.99999e-01,9.99999e-01,9.90538e-02,9.99999e-01
5.476736949e-01,1.03682e-01,9.99999e-01,9.99999e-01,1.03682e-01,9.99999e-01
5.504120634e-01,1.08429e-01,9.99999e-01,9.99999e-01,1.08429e-01,9.99999e-01
5.531641237e-01,1.13294e-01,9.99999e-01,9.99999e-01,1.13294e-01,9.99999e-01
5.559299443e-01,1.18273e-01,9.99999e-01,9.99999e-01,1.18273e-01,9.99999e-01
5.587095940e-01,1.23367e-01,9.99999e-01,9.99999e-01,1.23367e-01,9.99999e-01
5.615031420e-01,1.28573e-01,9.99999e-01,9.99999e-01,1.28573e-01,9.99999e-01
5.643106577e-01,1.33890e-01,9.99999e-01,9.99999e-01,1.33890e-01,9.99999e-01
5.671322110e-01,1.39315e-01,9.99999e-01,9.99999e-01,1.39315e-01,9.99999e-01
5.699678720e-01,1.44845e-01,9.99999e-01,9.99999e-01,1.44845e-01,9.99999e-01
5.728177114e-01,1.50480e-01,9.99999e-01,9.99999e-01,1.50480e-01,9.99999e-01
5.756818000e-01,1.56216e-01,9.99999e-01,9.99999e-01,1.56216e-01,9.99999e-01
5.785602090e-01,1.62051e-01,9.99999e-01,9.99999e-01,1.62051e-01,9.99999e-01
5.814530100e-01,1.67982e-01,9.99999e-01,9.99999e-01,1.67982e-01,9.99999e-01
5.843602750e-01,1.74007e-01,9.99999e-01,9.99999e-01,1.74007e-01,9.99999e-01
5.872820764e-01,1.80122e-01,9.99999e-01,9.99999e-01,1.80122e-01,9.99999e-01
5.902184868e-01,1.86325e-01,9.99999e-01,9.99999e-01,1.86325e-01,9.99999e-01
5.931695792e-01,1.92613e-01,9.99999e-01,9.99999e-01,1.92613e-01,9.99999e-01
5.961354271e-01,1.98982e-01,9.99999e-01,9.99999e-01,1.98982e-01,9.99999e-01
5.991161043e-01,2.05430e-01,9.99999e-01,9.99999e-01,2.05430e-01,9.99999e-01
6.021116848e-01,2.11954e-01,9.99999e-01,9.99999e-01,2.11954e-01,9.99999e-01
6.051222432e-01,2.18549e-01,9.99999e-01,9.99999e-01,2.18549e-01,9.99999e-01
6.081478544e-01,2.25214e-01,9.99999e-01,9.99999e-01,2.25214e-01,9.99999e-01
6.111885937e-01,2.31944e-01,9.99999e-01,9.99999e-01,2.31944e-01,9.99999e-01
6.142445367e-01,2.38736e-01,9.99999e-01,9.99999e-01,2.38736e-01,9.99999e-01
6.173157594e-01,2.45587e-01,9.99999e-01,9.99999e-01,2.45587e-01,9.99999e-01
6.204023382e-01,2.52494e-01,9.99999e-01,9.99999e-01,2.52494e-01,9.99999e-01
6.235043498e-01,2.59452e-01,9.99999e-01,9.99999e-01,2.59452e-01,9.99999e-01
6.266218716e-01,2.66460e-01,9.99999e-01,9.99999e-01,2.66460e-01,9.99999e-01
6.297549810e-01,2.73512e-01,9.99999e-01,9.99999e-01,2.73512e-01,9.99999e-01
6.329037559e-01,2.80606e-01,9.99999e-01,9.99999e-01,2.80606e-01,9.99999e-01
6.360682746e-01,2.87739e-01,9.99999e-01,9.99999e-01,2.87739e-01,9.99999e-01
6.392486160e-01,2.94907e-01,9.99999e-01,9.99999e-01,2.94907e-01,9.99999e-01
6.424448591e-01,3.02107e-01,9.99999e-01,9.99999e-01,3.02107e-01,9.99999e-01
6.456570834e-01,3.09334e-01,9.99999e-01,9.99999e-01,3.09334e-01,9.99999e-01
6.488853688e-01,3.16587e-01,9.99999e-01,9.99999e-01,3.16587e-01,9.99999e-01
6.521297956e-01,3.23862e-01,9.99999e-01,9.99999e-01,3.23862e-01,9.99999e-01
6.553904446e-01,3.31155e-01,9.99999e-01,9.99999e-01,3.31155e-01,9.99999e-01
6.586673968e-01,3.38464e-01,9.99999e-01,9.99999e-01,3.38464e-01,9.99999e-01
6.619607338e-01,3.45785e-01,9.99999e-01,9.99999e-01,3.45785e-01,9.99999e-01
6.652705375e-01,3.53114e-01,9.99999e-01,9.99999e-01,3.53114e-01,9.99999e-01
6.685968902e-01,3.60450e-01,9.99999e-01,9.99999e-01,3.60450e-01,9.99999e-01
6.719398746e-01,3.67789e-01,9.99999e-01,9.99999e-01,3.67789e-01,9.99999e-01
6.752995740e-01,3.75128e-01,9.99999e-01,9.99999e-01,3.75128e-01,9.99999e-01
6.786760719e-01,3.82463e-01,9.99999e-01,9.99999e-01,3.82463e-01,9.99999e-01
6.820694522e-01,3.89794e-01,9.99999e-01,9.99999e-01,3.89794e-01,9.99999e-01
6.854797995e-01,3.97116e-01,9.99999e-01,9.99999e-01,3.97116e-01,9.99999e-01
6.889071985e-01,4.04426e-01,9.99999e-01,9.99999e-01,4.04426e-01,9.99999e-01
6.923517345e-01,4.11723e-01,9.99999e-01,9.99999e-01,4.11723e-01,9.99999e-01
6.958134932e-01,4.19003e-01,9.99999e-01,9.99999e-01,4.19003e-01,9.99999e-01
6.992925606e-01,4.26265e-01,9.99999e-01,9.99999e-01,4.26265e-01,9.99999e-01
7.027890234e-01,4.33505e-01,9.99999e-01,9.99999e-01,4.33505e-01,9.99999e-01
7.063029686e-01,4.40722e-01,9.99999e-01,9.99999e-01,4.40722e-01,9.99999e-01
7.098344834e-01,4.47913e-01,9.99999e-01,9.99999e-01,4.47913e-01,9.99999e-01
7.133836558e-01,4.55075e-01,9.99999e-01,9.99999e-01,4.55075e-01,9.99999e-01
7.169505741e-01,4.62207e-01,9.99999e-01,9.99999e-01,4.62207e-01,9.99999e-01
7.205353270e-01,4.69307e-01,9.99999e-01,9.99999e-01,4.69307e-01,9.99999e-01
7.241380036e-01,4.76372e-01,9.99999e-01,9.99999e-01,4.76372e-01,9.99999e-01
7.277586936e-01,4.83402e-01,9.99999e-01,9.99999e-01,4.83402e-01,9.99999e-01
7.313974871e-01,4.90392e-01,9.99999e-01,9.99999e-01,4.90392e-01,9.99999e-01
7.350544745e-01,4.97343e-01,9.99999e-01,9.99999e-01,4.97343e-01,9.99999e-01
7.387297469e-01,5.04252e-01,9.99999e-01,9.99999e-01,5.04252e-01,9.99999e-01
7.424233956e-01,5.11118e-01,9.99999e-01,9.99999e-01,5.11118e-01,9.99999e-01
7.461355126e-01,5.17939e-01,9.99999e-01,9.99999e-01,5.17939e-01,9.99999e-01
7.498661902e-01,5.24714e-01,9.99999e-01,9.99999e-01,5.24714e-01,9.99999e-01
7.536155211e-01,5.31441e-01,9.99999e-01,9.99999e-01,5.31441e-01,9.99999e-01
7.573835987e-01,5.38118e-01,9.99999e-01,9.99999e-01,5.38118e-01,9.99999e-01
7.611705167e-01,5.44745e-01,9.99999e-01,9.99999e-01,5.44745e-01,9.99999e-01
7.649763693e-01,5.51321e-01,9.99999e-01,9.99999e-01,5.51321e-01,9.99999e-01
7.688012511e-01,5.57843e-01,9.99999e-01,9.99999e-01,5.57843e-01,9.99999e-01
7.726452574e-01,5.64312e-01,9.99999e-01,9.99999e-01,5.64312e-01,9.99999e-01
7.765084837e-01,5.70726e-01,9.99999e-01,9.99999e-01,5.70726e-01,9.99999e-01
7.803910261e-01,5.61317e-01,9.99999e-01,9.72679e-01,5.77083e-01,9.99999e-01
7.842929812e-01,5.19184e-01,9.99999e-01,8.89951e-01,5.83384e-01,9.99999e-01
7.882144461e-01,5.20003e-01,9.99999e-01,8.81916e-01,5.89627e-01,9.99999e-01
7.921555184e-01,5.53978e-01,9.99999e-01,9.29785e-01,5.95812e-01,9.99999e-01
7.961162960e-01,5.73495e-01,9.99999e-01,9.52748e-01,6.01937e-01,9.99999e-01
8.000968774e-01,5.92241e-01,9.99999e-01,9.74074e-01,6.08003e-01,9.99999e-01
8.040973618e-01,6.05737e-01,9.99999e-01,9.86529e-01,6.14008e-01,9.99999e-01
8.081178486e-01,6.16095e-01,9.99999e-01,9.93777e-01,6.19952e-01,9.99999e-01
8.121584379e-01,6.24638e-01,9.99999e-01,9.98087e-01,6.25835e-01,9.99999e-01
8.162192301e-01,6.31388e-01,9.99999e-01,9.99577e-01,6.31655e-01,9.99999e-01
8.203003262e-01,6.37410e-01,9.99999e-01,9.99993e-01,6.37413e-01,9.99999e-01
8.244018279e-01,6.43109e-01,9.99999e-01,9.99999e-01,6.43109e-01,9.99999e-01
8.285238370e-01,6.48741e-01,9.99999e-01,9.99999e-01,6.48741e-01,9.99999e-01
8.326664562e-01,6.54309e-01,9.99999e-01,9.99999e-01,6.54309e-01,9.99999e-01
8.368297885e-01,6.59815e-01,9.99999e-01,9.99999e-01,6.59815e-01,9.99999e-01
8.410139374e-01,6.65256e-01,9.99999e-01,9.99999e-01,6.65256e-01,9.99999e-01
8.452190071e-01,6.70633e-01,9.99999e-01,9.99999e-01,6.70633e-01,9.99999e-01
8.494451021e-01,6.75947e-01,9.99999e-01,9.99999e-01,6.75947e-01,9.99999e-01
8.536923276e-01,6.81196e-01,9.99999e-01,9.99999e-01,6.81196e-01,9.99999e-01
8.579607893e-01,6.86381e-01,9.99999e-01,9.99999e-01,6.86381e-01,9.99999e-01
8.622505932e-01,6.91502e-01,9.99999e-01,9.99999e-01,6.91502e-01,9.99999e-01
8.665618462e-01,6.51450e-01,9.99999e-01,9.35239e-01,6.96559e-01,9.99999e-01
8.708946554e-01,5.20180e-01,9.99999e-01,7.41469e-01,7.01552e-01,9.99999e-01
8.752491287e-01,5.56278e-01,9.99999e-01,7.87392e-01,7.06481e-01,9.99999e-01
8.796253743e-01,6.24255e-01,9.99999e-01,8.77567e-01,7.11347e-01,9.99999e-01
8.840235012e-01,6.69357e-01,9.99999e-01,9.34661e-01,7.16149e-01,9.99999e-01
8.884436187e-01,7.02025e-01,9.99999e-01,9.73833e-01,7.20887e-01,9.99999e-01
8.928858368e-01,7.17801e-01,9.99999e-01,9.89303e-01,7.25562e-01,9.99999e-01
8.973502660e-01,7.28279e-01,9.99999e-01,9.97403e-01,7.30174e-01,9.99999e-01
9.018370173e-01,7.34514e-01,9.99999e-01,9.99713e-01,7.34724e-01,9.99999e-01
9.063462024e-01,7.33659e-01,9.99999e-01,9.92487e-01,7.39211e-01,9.99999e-01
9.108779334e-01,7.31100e-01,9.99999e-01,9.83140e-01,7.43637e-01,9.99999e-01
9.154323231e-01,7.45044e-01,9.99999e-01,9.96047e-01,7.48000e-01,9.99999e-01
9.200094847e-01,7.08746e-01,9.99999e-01,9.42102e-01,7.52302e-01,9.99999e-01
9.246095321e-01,6.96039e-01,9.99999e-01,9.20023e-01,7.56544e-01,9.99999e-01
9.292325798e-01,7.12169e-01,9.99999e-01,9.36171e-01,7.60724e-01,9.99999e-01
9.338787427e-01,7.17999e-01,9.99999e-01,9.38750e-01,7.64845e-01,9.99999e-01
9.385481364e-01,7.34033e-01,9.99999e-01,9.54645e-01,7.68906e-01,9.99999e-01
9.432408771e-01,7.51310e-01,9.99999e-01,9.72056e-01,7.72907e-01,9.99999e-01
9.479570815e-01,7.65623e-01,9.99999e-01,9.85547e-01,7.76850e-01,9.99999e-01
9.526968669e-01,7.75282e-01,9.99999e-01,9.93016e-01,7.80734e-01,9.99999e-01
9.574603512e-01,7.82215e-01,9.99999e-01,9.97010e-01,7.84561e-01,9.99999e-01
9.622476530e-01,7.87595e-01,9.99999e-01,9.99067e-01,7.88330e-01,9.99999e-01
9.670588912e-01,7.91821e-01,9.99999e-01,9.99720e-01,7.92042e-01,9.99999e-01
9.718941857e-01,7.95682e-01,9.99999e-01,9.99980e-01,7.95698e-01,9.99999e-01
9.767536566e-01,7.99298e-01,9.99999e-01,9.99999e-01,7.99298e-01,9.99999e-01
9.816374249e-01,8.02843e-01,9.99999e-01,9.99999e-01,8.02843e-01,9.99999e-01
9.865456120e-01,8.06332e-01,9.99999e-01,9.99999e-01,8.06332e-01,9.99999e-01
9.914783401e-01,8.09768e-01,9.99999e-01,9.99999e-01,8.09768e-01,9.99999e-01
9.964357318e-01,8.13150e-01,9.99999e-01,9.99999e-01,8.13150e-01,9.99999e-01
1.001417910e+00,8.16479e-01,9.99999e-01,9.99999e-01,8.16479e-01,9.99999e-01
1.006425000e+00,8.19756e-01,9.99999e-01,9.99999e-01,8.19756e-01,9.99999e-01
1.011457125e+00,8.22980e-01,9.99999e-01,9.99999e-01,8.22980e-01,9.99999e-01
1.016514411e+00,8.26153e-01,9.99999e-01,9.99999e-01,8.26153e-01,9.99999e-01
1.021596983e+00,8.29240e-01,9.99999e-01,9.99956e-01,8.29276e-01,9.99999e-01
1.026704968e+00,8.29903e-01,9.99999e-01,9.97062e-01,8.32348e-01,9.99999e-01
1.031838492e+00,8.02760e-01,9.99999e-01,9.60962e-01,8.35370e-01,9.99999e-01
1.036997685e+00,1.61260e-01,9.99999e-01,1.92356e-01,8.38344e-01,9.99999e-01
1.042182673e+00,1.59919e-01,9.99999e-01,1.90092e-01,8.41268e-01,9.99999e-01
1.047393587e+00,1.67646e-01,9.99999e-01,1.98598e-01,8.44146e-01,9.99999e-01
1.052630555e+00,9.67811e-03,9.99999e-01,1.14267e-02,8.46975e-01,9.99999e-01
1.057893707e+00,2.20937e-02,9.99999e-01,2.59999e-02,8.49758e-01,9.99999e-01
1.063183176e+00,5.86907e-02,9.99999e-01,6.88457e-02,8.52495e-01,9.99999e-01
1.068499092e+00,1.36564e-01,9.99999e-01,1.59688e-01,8.55187e-01,9.99999e-01
1.073841587e+00,2.70163e-01,9.99999e-01,3.14936e-01,8.57834e-01,9.99999e-01
1.079210795e+00,4.14239e-01,9.99999e-01,4.81429e-01,8.60436e-01,9.99999e-01
1.084606849e+00,5.78226e-01,9.99999e-01,6.70022e-01,8.62994e-01,9.99999e-01
1.090029883e+00,7.03115e-01,9.99999e-01,8.12371e-01,8.65510e-01,9.99999e-01
1.095480033e+00,7.83633e-01,9.99999e-01,9.02821e-01,8.67982e-01,9.99999e-01
1.100957433e+00,8.28596e-01,9.99999e-01,9.51956e-01,8.70413e-01,9.99999e-01
1.106462220e+00,8.55236e-01,9.99999e-01,9.79872e-01,8.72803e-01,9.99999e-01
1.111994531e+00,8.68582e-01,9.99999e-01,9.92493e-01,8.75151e-01,9.99999e-01
1.117554504e+00,8.75853e-01,9.99999e-01,9.98169e-01,8.77460e-01,9.99999e-01
1.123142276e+00,8.79623e-01,9.99999e-01,9.99879e-01,8.79728e-01,9.99999e-01
1.128757988e+00,8.81958e-01,9.99999e-01,9.99999e-01,8.81958e-01,9.99999e-01
1.134401778e+00,8.84149e-01,9.99999e-01,9.99999e-01,8.84149e-01,9.99999e-01
1.140073787e+00,8.86302e-01,9.99999e-01,9.99999e-01,8.86302e-01,9.99999e-01
1.145774156e+00,8.88417e-01,9.99999e-01,9.99999e-01,8.88417e-01,9.99999e-01
1.151503026e+00,8.90496e-01,9.99999e-01,9.99999e-01,8.90496e-01,9.99999e-01
1.157260541e+00,8.92538e-01,9.99999e-01,9.99999e-01,8.92538e-01,9.99999e-01
1.163046844e+00,8.94545e-01,9.99999e-01,9.99999e-01,8.94545e-01,9.99999e-01
1.168862078e+00,8.96516e-01,9.99999e-01,9.99999e-01,8.96516e-01,9.99999e-01
1.174706389e+00,8.98452e-01,9.99999e-01,9.99999e-01,8.98452e-01,9.99999e-01
1.180579921e+00,9.00355e-01,9.99999e-01,9.99999e-01,9.00355e-01,9.99999e-01
1.186482820e+00,9.02218e-01,9.99999e-01,9.99993e-01,9.02223e-01,9.99999e-01
1.192415234e+00,8.94549e-01,9.99999e-01,9.89479e-01,9.04059e-01,9.99999e-01
1.198377311e+00,5.14405e-01,9.99999e-01,5.67863e-01,9.05862e-01,9.99999e-01
1.204369197e+00,3.70611e-09,9.99999e-01,4.08327e-09,9.07633e-01,9.99999e-01
1.210391043e+00,6.29295e-32,9.99999e-01,6.92010e-32,9.09372e-01,9.99999e-01
1.216442998e+00,7.42012e-28,9.99999e-01,8.14431e-28,9.11080e-01,9.99999e-01
1.222525213e+00,1.84121e-27,9.99999e-01,2.01719e-27,9.12757e-01,9.99999e-01
1.228637839e+00,3.02269e-21,9.99999e-01,3.30564e-21,9.14404e-01,9.99999e-01
1.234781029e+00,4.66829e-14,9.99999e-01,5.09625e-14,9.16022e-01,9.99999e-01
1.240954934e+00,1.64177e-09,9.99999e-01,1.78917e-09,9.17610e-01,9.99999e-01
1.247159708e+00,1.57456e-05,9.99999e-01,1.71302e-05,9.19170e-01,9.99999e-01
1.253395507e+00,1.63831e-03,9.99999e-01,1.77942e-03,9.20702e-01,9.99999e-01
1.259662485e+00,2.46819e-02,9.99999e-01,2.67640e-02,9.22205e-01,9.99999e-01
1.265960797e+00,1.13547e-01,9.99999e-01,1.22929e-01,9.23682e-01,9.99999e-01
1.272290601e+00,3.85342e-01,9.99999e-01,4.16527e-01,9.25131e-01,9.99999e-01
1.278652054e+00,3.30281e-01,9.99999e-01,3.56461e-01,9.26554e-01,9.99999e-01
1.285045314e+00,9.91998e-03,9.99999e-01,1.06902e-02,9.27952e-01,9.99999e-01
1.291470541e+00,1.90948e-04,9.99999e-01,2.05469e-04,9.29323e-01,9.99999e-01
1.297927893e+00,2.02609e-02,9.99999e-01,2.17703e-02,9.30670e-01,9.99999e-01
1.304417533e+00,1.89512e-01,9.99999e-01,2.03341e-01,9.31991e-01,9.99999e-01
1.310939621e+00,3.23182e-02,9.99999e-01,3.46283e-02,9.33289e-01,9.99999e-01
1.317494319e+00,1.69059e-11,9.99999e-01,1.80896e-11,9.34562e-01,9.99999e-01
1.324081790e+00,4.23567e-08,9.99999e-01,4.52619e-08,9.35813e-01,9.99999e-01
1.330702199e+00,8.63559e-05,9.99999e-01,9.21581e-05,9.37040e-01,9.99999e-01
1.337355710e+00,8.52115e-05,9.99999e-01,9.08201e-05,9.38244e-01,9.99999e-01
1.344042489e+00,2.45780e-05,9.99999e-01,2.61628e-05,9.39426e-01,9.99999e-01
1.350762701e+00,5.87065e-05,9.99999e-01,6.24148e-05,9.40586e-01,9.99999e-01
1.357516515e+00,1.78477e-03,9.99999e-01,1.89521e-03,9.41725e-01,9.99999e-01
1.364304097e+00,1.70476e-02,9.99999e-01,1.80810e-02,9.42843e-01,9.99999e-01
1.371125618e+00,1.15457e-01,9.99999e-01,1.22314e-01,9.43939e-01,9.99999e-01
1.377981246e+00,1.71191e-01,9.99999e-01,1.81151e-01,9.45016e-01,9.99999e-01
1.384871152e+00,3.50259e-01,9.99999e-01,3.70224e-01,9.46072e-01,9.99999e-01
1.391795508e+00,3.78304e-01,9.99999e-01,3.99430e-01,9.47108e-01,9.99999e-01
1.398754485e+00,5.38554e-01,9.99999e-01,5.68019e-01,9.48125e-01,9.99999e-01
1.405748258e+00,6.25806e-01,9.99999e-01,6.59351e-01,9.49124e-01,9.99999e-01
1.412776999e+00,7.30537e-01,9.99999e-01,7.68902e-01,9.50103e-01,9.99999e-01
1.419840884e+00,6.60516e-01,9.99999e-01,6.94502e-01,9.51064e-01,9.99999e-01
1.426940089e+00,7.11344e-02,9.99999e-01,7.47203e-02,9.52007e-01,9.99999e-01
1.434074789e+00,0.00000e+00,9.99999e-01,0.00000e+00,9.52932e-01,9.99999e-01
1.441245163e+00,0.00000e+00,9.99999e-01,0.00000e+00,9.53840e-01,9.99999e-01
1.448451389e+00,0.00000e+00,9.99999e-01,0.00000e+00,9.54731e-01,9.99999e-01
1.455693646e+00,1.02966e-252,9.99999e-01,1.07750e-252,9.55605e-01,9.99999e-01
1.462972114e+00,1.02847e-122,9.99999e-01,1.07528e-122,9.56462e-01,9.99999e-01
1.470286975e+00,8.10073e-52,9.99999e-01,8.46201e-52,9.57304e-01,9.99999e-01
