#,Wave/freq,Total,O2,CO2,Rayleigh,CIA
4.000000000e-01,1.46261e-07,9.99999e-01,9.99999e-01,1.46261e-07,9.99999e-01
4.020000000e-01,1.99651e-07,9.99999e-01,9.99999e-01,1.99651e-07,9.99999e-01
4.040100000e-01,2.70774e-07,9.99999e-01,9.99999e-01,2.70774e-07,9.99999e-01
4.060300500e-01,3.65030e-07,9.99999e-01,9.99999e-01,3.65030e-07,9.99999e-01
4.080602003e-01,4.89203e-07,9.99999e-01,9.99999e-01,4.89203e-07,9.99999e-01
4.101005013e-01,6.51834e-07,9.99999e-01,9.99999e-01,6.51834e-07,9.99999e-01
4.121510038e-01,8.63621e-07,9.99999e-01,9.99999e-01,8.63621e-07,9.99999e-01
4.142117588e-01,1.13788e-06,9.99999e-01,9.99999e-01,1.13788e-06,9.99999e-01
4.162828176e-01,1.49109e-06,9.99999e-01,9.99999e-01,1.49109e-06,9.99999e-01
4.183642317e-01,1.94353e-06,9.99999e-01,9.99999e-01,1.94353e-06,9.99999e-01
4.204560528e-01,2.52003e-06,9.99999e-01,9.99999e-01,2.52003e-06,9.99999e-01
4.225583331e-01,3.25081e-06,9.99999e-01,9.99999e-01,3.25081e-06,9.99999e-01
4.246711247e-01,4.17247e-06,9.99999e-01,9.99999e-01,4.17247e-06,9.99999e-01
4.267944804e-01,5.32910e-06,9.99999e-01,9.99999e-01,5.32910e-06,9.99999e-01
4.289284528e-01,6.77353e-06,9.99999e-01,9.99999e-01,6.77353e-06,9.99999e-01
4.310730950e-01,8.56879e-06,9.99999e-01,9.99999e-01,8.56879e-06,9.99999e-01
4.332284605e-01,1.07896e-05,9.99999e-01,9.99999e-01,1.07896e-05,9.99999e-01
4.353946028e-01,1.35244e-05,9.99999e-01,9.99999e-01,1.35244e-05,9.99999e-01
4.375715758e-01,1.68768e-05,9.99999e-01,9.99999e-01,1.68768e-05,9.99999e-01
4.397594337e-01,2.09683e-05,9.99999e-01,9.99999e-01,2.09683e-05,9.99999e-01
4.419582309e-01,2.59402e-05,9.99999e-01,9.99999e-01,2.59402e-05,9.99999e-01
4.441680220e-01,3.19565e-05,9.99999e-01,9.99999e-01,3.19565e-05,9.99999e-01
4.463888621e-01,3.92062e-05,9.99999e-01,9.99999e-01,3.92062e-05,9.99999e-01
4.486208064e-01,4.79068e-05,9.99999e-01,9.99999e-01,4.79068e-05,9.99999e-01
4.508639105e-01,5.83069e-05,9.99999e-01,9.99999e-01,5.83069e-05,9.99999e-01
4.531182300e-01,7.06899e-05,9.99999e-01,9.99999e-01,7.06899e-05,9.99999e-01
4.553838212e-01,8.53774e-05,9.99999e-01,9.99999e-01,8.53774e-05,9.99999e-01
4.576607403e-01,1.02733e-04,9.99999e-01,9.99999e-01,1.02733e-04,9.99999e-01
4.599490440e-01,1.23165e-04,9.99999e-01,9.99999e-01,1.23165e-04,9.99999e-01
4.622487892e-01,1.47133e-04,9.99999e-01,9.99999e-01,1.47133e-04,9.99999e-01
4.645600332e-01,1.75149e-04,9.99999e-01,9.99999e-01,1.75149e-04,9.99999e-01
4.668828333e-01,2.07783e-04,9.99999e-01,9.99999e-01,2.07783e-04,9.99999e-01
4.692172475e-01,2.45666e-04,9.99999e-01,9.99999e-01,2.45666e-04,9.99999e-01
4.715633337e-01,2.89498e-04,9.99999e-01,9.99999e-01,2.89498e-04,9.99999e-01
4.739211504e-01,3.40045e-04,9.99999e-01,9.99999e-01,3.40045e-04,9.99999e-01
4.762907561e-01,3.98150e-04,9.99999e-01,9.99999e-01,3.98150e-04,9.99999e-01
4.786722099e-01,4.64734e-04,9.99999e-01,9.99999e-01,4.64734e-04,9.99999e-01
4.810655710e-01,5.40799e-04,9.99999e-01,9.99999e-01,5.40799e-04,9.99999e-01
4.834708988e-01,6.27431e-04,9.99999e-01,9.99999e-01,6.27431e-04,9.99999e-01
4.858882533e-01,7.25809e-04,9.99999e-01,9.99999e-01,7.25809e-04,9.99999e-01
4.883176946e-01,8.37199e-04,9.99999e-01,9.99999e-01,8.37199e-04,9.99999e-01
4.907592831e-01,9.62965e-04,9.99999e-01,9.99999e-01,9.62965e-04,9.99999e-01
4.932130795e-01,1.10457e-03,9.99999e-01,9.99999e-01,1.10457e-03,9.99999e-01
4.956791449e-01,1.26356e-03,9.99999e-01,9.99999e-01,1.26356e-03,9.99999e-01
4.981575406e-01,1.44161e-03,9.99999e-01,9.99999e-01,1.44161e-03,9.99999e-01
5.006483283e-01,1.64046e-03,9.99999e-01,9.99999e-01,1.64046e-03,9.99999e-01
5.031515699e-01,1.86199e-03,9.99999e-01,9.99999e-01,1.86199e-03,9.99999e-01
5.056673278e-01,2.10815e-03,9.99999e-01,9.99999e-01,2.10815e-03,9.99999e-01
5.081956644e-01,2.38101e-03,9.99999e-01,9.99999e-01,2.38101e-03,9.99999e-01
5.107366428e-01,2.68273e-03,9.99999e-01,9.99999e-01,2.68273e-03,9.99999e-01
5.132903260e-01,3.01557e-03,9.99999e-01,9.99999e-01,3.01557e-03,9.99999e-01
5.158567776e-01,3.38188e-03,9.99999e-01,9.99999e-01,3.38188e-03,9.99999e-01
5.184360615e-01,3.78411e-03,9.99999e-01,9.99999e-01,3.78411e-03,9.99999e-01
5.210282418e-01,4.22478e-03,9.99999e-01,9.99999e-01,4.22478e-03,9.99999e-01
5.236333830e-01,4.70653e-03,9.99999e-01,9.99999e-01,4.70653e-03,9.99999e-01
5.262515499e-01,5.23204e-03,9.99999e-01,9.99999e-01,5.23204e-03,9.99999e-01
5.288828077e-01,5.80407e-03,9.99999e-01,9.99999e-01,5.80407e-03,9.99999e-01
5.315272217e-01,6.42546e-03,9.99999e-01,9.99999e-01,6.42546e-03,9.99999e-01
5.341848578e-01,7.09911e-03,9.99999e-01,9.99999e-01,7.09911e-03,9.99999e-01
5.368557821e-01,7.82794e-03,9.99999e-01,9.99999e-01,7.82794e-03,9.99999e-01
5.395400610e-01,8.61496e-03,9.99999e-01,9.99999e-01,8.61496e-03,9.99999e-01
5.422377613e-01,9.46318e-03,9.99999e-01,9.99999e-01,9.46318e-03,9.99999e-01
5.449489501e-01,1.03757e-02,9.99999e-01,9.99999e-01,1.03757e-02,9.99999e-01
5.476736949e-01,1.13554e-02,9.99999e-01,9.99999e-01,1.13554e-02,9.99999e-01
5.504120634e-01,1.24056e-02,9.99999e-01,9.99999e-01,1.24056e-02,9.99999e-01
5.531641237e-01,1.35293e-02,9.99999e-01,9.99999e-01,1.35293e-02,9.99999e-01
5.559299443e-01,1.47294e-02,9.99999e-01,9.99999e-01,1.47294e-02,9.99999e-01
5.587095940e-01,1.60092e-02,9.99999e-01,9.99999e-01,1.60092e-02,9.99999e-01
5.615031420e-01,1.73715e-02,9.99999e-01,9.99999e-01,1.73715e-02,9.99999e-01
5.643106577e-01,1.88194e-02,9.99999e-01,9.99999e-01,1.88194e-02,9.99999e-01
5.671322110e-01,2.03557e-02,9.99999e-01,9.99999e-01,2.03557e-02,9.99999e-01
5.699678720e-01,2.19833e-02,9.99999e-01,9.99999e-01,2.19833e-02,9.99999e-01
5.728177114e-01,2.37051e-02,9.99999e-01,9.99999e-01,2.37051e-02,9.99999e-01
5.756818000e-01,2.55236e-02,9.99999e-01,9.99999e-01,2.55236e-02,9.99999e-01
5.785602090e-01,2.74416e-02,9.99999e-01,9.99999e-01,2.74416e-02,9.99999e-01
5.814530100e-01,2.94615e-02,9.99999e-01,9.99999e-01,2.94615e-02,9.99999e-01
5.843602750e-01,3.15857e-02,9.99999e-01,9.99999e-01,3.15857e-02,9.99999e-01
5.872820764e-01,3.38165e-02,9.99999e-01,9.99999e-01,3.38165e-02,9.99999e-01
5.902184868e-01,3.61562e-02,9.99999e-01,9.99999e-01,3.61562e-02,9.99999e-01
5.931695792e-01,3.86066e-02,9.99999e-01,9.99999e-01,3.86066e-02,9.99999e-01
5.961354271e-01,4.11698e-02,9.99999e-01,9.99999e-01,4.11698e-02,9.99999e-01
5.991161043e-01,4.38474e-02,9.99999e-01,9.99999e-01,4.38474e-02,9.99999e-01
6.021116848e-01,4.66411e-02,9.99999e-01,9.99999e-01,4.66411e-02,9.99999e-01
6.051222432e-01,4.95524e-02,9.99999e-01,9.99999e-01,4.95524e-02,9.99999e-01
6.081478544e-01,5.25823e-02,9.99999e-01,9.99999e-01,5.25823e-02,9.99999e-01
6.111885937e-01,5.57322e-02,9.99999e-01,9.99999e-01,5.57322e-02,9.99999e-01
6.142445367e-01,5.90030e-02,9.99999e-01,9.99999e-01,5.90030e-02,9.99999e-01
6.173157594e-01,6.23954e-02,9.99999e-01,9.99999e-01,6.23954e-02,9.99999e-01
6.204023382e-01,6.59100e-02,9.99999e-01,9.99999e-01,6.59100e-02,9.99999e-01
6.235043498e-01,6.95472e-02,9.99999e-01,9.99999e-01,6.95472e-02,9.99999e-01
6.266218716e-01,7.33073e-02,9.99999e-01,9.99999e-01,7.33073e-02,9.99999e-01
6.297549810e-01,7.71905e-02,9.99999e-01,9.99999e-01,7.71905e-02,9.99999e-01
6.329037559e-01,8.11964e-02,9.99999e-01,9.99999e-01,8.11964e-02,9.99999e-01
6.360682746e-01,8.53250e-02,9.99999e-01,9.99999e-01,8.53250e-02,9.99999e-01
6.392486160e-01,8.95757e-02,9.99999e-01,9.99999e-01,8.95757e-02,9.99999e-01
6.424448591e-01,9.39479e-02,9.99999e-01,9.99999e-01,9.39479e-02,9.99999e-01
6.456570834e-01,9.84408e-02,9.99999e-01,9.99999e-01,9.84408e-02,9.99999e-01
6.488853688e-01,1.03053e-01,9.99999e-01,9.99999e-01,1.03053e-01,9.99999e-01
6.521297956e-01,1.07785e-01,9.99999e-01,9.99999e-01,1.07785e-01,9.99999e-01
6.553904446e-01,1.12633e-01,9.99999e-01,9.99999e-01,1.12633e-01,9.99999e-01
6.586673968e-01,1.17598e-01,9.99999e-01,9.99999e-01,1.17598e-01,9.99999e-01
6.619607338e-01,1.22676e-01,9.99999e-01,9.99999e-01,1.22676e-01,9.99999e-01
6.652705375e-01,1.27867e-01,9.99999e-01,9.99999e-01,1.27867e-01,9.99999e-01
6.685968902e-01,1.33169e-01,9.99999e-01,9.99999e-01,1.33169e-01,9.99999e-01
6.719398746e-01,1.38579e-01,9.99999e-01,9.99999e-01,1.38579e-01,9.99999e-01
6.752995740e-01,1.44096e-01,9.99999e-01,9.99999e-01,1.44096e-01,9.99999e-01
6.786760719e-01,1.49717e-01,9.99999e-01,9.99999e-01,1.49717e-01,9.99999e-01
6.820694522e-01,1.55439e-01,9.99999e-01,9.99999e-01,1.55439e-01,9.99999e-01
6.854797995e-01,1.61261e-01,9.99999e-01,9.99999e-01,1.61261e-01,9.99999e-01
6.889071985e-01,1.67179e-01,9.99999e-01,9.99999e-01,1.67179e-01,9.99999e-01
6.923517345e-01,1.73192e-01,9.99999e-01,9.99999e-01,1.73192e-01,9.99999e-01
6.958134932e-01,1.79295e-01,9.99999e-01,9.99999e-01,1.79295e-01,9.99999e-01
6.992925606e-01,1.85486e-01,9.99999e-01,9.99999e-01,1.85486e-01,9.99999e-01
7.027890234e-01,1.91763e-01,9.99999e-01,9.99999e-01,1.91763e-01,9.99999e-01
7.063029686e-01,1.98121e-01,9.99999e-01,9.99999e-01,1.98121e-01,9.99999e-01
7.098344834e-01,2.04559e-01,9.99999e-01,9.99999e-01,2.04559e-01,9.99999e-01
7.133836558e-01,2.11073e-01,9.99999e-01,9.99999e-01,2.11073e-01,9.99999e-01
7.169505741e-01,2.17659e-01,9.99999e-01,9.99999e-01,2.17659e-01,9.99999e-01
7.205353270e-01,2.24314e-01,9.99999e-01,9.99999e-01,2.24314e-01,9.99999e-01
7.241380036e-01,2.31036e-01,9.99999e-01,9.99999e-01,2.31036e-01,9.99999e-01
7.277586936e-01,2.37820e-01,9.99999e-01,9.99999e-01,2.37820e-01,9.99999e-01
7.313974871e-01,2.44663e-01,9.99999e-01,9.99999e-01,2.44663e-01,9.99999e-01
7.350544745e-01,2.51562e-01,9.99999e-01,9.99999e-01,2.51562e-01,9.99999e-01
7.387297469e-01,2.58514e-01,9.99999e-01,9.99999e-01,2.58514e-01,9.99999e-01
7.424233956e-01,2.65515e-01,9.99999e-01,9.99999e-01,2.65515e-01,9.99999e-01
7.461355126e-01,2.72562e-01,9.99999e-01,9.99999e-01,2.72562e-01,9.99999e-01
7.498661902e-01,2.79651e-01,9.99999e-01,9.99999e-01,2.79651e-01,9.99999e-01
7.536155211e-01,2.86778e-01,9.99999e-01,9.99999e-01,2.86778e-01,9.99999e-01
7.573835987e-01,2.93942e-01,9.99999e-01,9.99999e-01,2.93942e-01,9.99999e-01
7.611705167e-01,3.01137e-01,9.99999e-01,9.99999e-01,3.01137e-01,9.99999e-01
7.649763693e-01,3.08362e-01,9.99999e-01,9.99999e-01,3.08362e-01,9.99999e-01
7.688012511e-01,3.15611e-01,9.99999e-01,9.99999e-01,3.15611e-01,9.99999e-01
7.726452574e-01,3.22883e-01,9.99999e-01,9.99999e-01,3.22883e-01,9.99999e-01
7.765084837e-01,3.30174e-01,9.99999e-01,9.99999e-01,3.30174e-01,9.99999e-01
7.803910261e-01,3.20607e-01,9.99999e-01,9.50001e-01,3.37481e-01,9.99999e-01
7.842929812e-01,2.75292e-01,9.99999e-01,7.98411e-01,3.44800e-01,9.99999e-01
7.882144461e-01,2.76594e-01,9.99999e-01,7.85489e-01,3.52129e-01,9.99999e-01
7.921555184e-01,3.11594e-01,9.99999e-01,8.66828e-01,3.59464e-01,9.99999e-01
7.961162960e-01,3.33427e-01,9.99999e-01,9.09009e-01,3.66802e-01,9.99999e-01
8.000968774e-01,3.55252e-01,9.99999e-01,9.49513e-01,3.74141e-01,9.99999e-01
8.040973618e-01,3.71404e-01,9.99999e-01,9.73593e-01,3.81478e-01,9.99999e-01
8.081178486e-01,3.84047e-01,9.99999e-01,9.87751e-01,3.88809e-01,9.99999e-01
8.121584379e-01,3.94639e-01,9.99999e-01,9.96230e-01,3.96132e-01,9.99999e-01
8.162192301e-01,4.03108e-01,9.99999e-01,9.99166e-01,4.03444e-01,9.99999e-01
8.203003262e-01,4.10738e-01,9.99999e-01,9.99988e-01,4.10743e-01,9.99999e-01
8.244018279e-01,4.18026e-01,9.99999e-01,9.99999e-01,4.18026e-01,9.99999e-01
8.285238370e-01,4.25290e-01,9.99999e-01,9.99999e-01,4.25290e-01,9.99999e-01
8.326664562e-01,4.32534e-01,9.99999e-01,9.99999e-01,4.32534e-01,9.99999e-01
8.368297885e-01,4.39754e-01,9.99999e-01,9.99999e-01,4.39754e-01,9.99999e-01
8.410139374e-01,4.46948e-01,9.99999e-01,9.99999e-01,4.46948e-01,9.99999e-01
8.452190071e-01,4.54114e-01,9.99999e-01,9.99999e-01,4.54114e-01,9.99999e-01
8.494451021e-01,4.61251e-01,9.99999e-01,9.99999e-01,4.61251e-01,9.99999e-01
8.536923276e-01,4.68355e-01,9.99999e-01,9.99999e-01,4.68355e-01,9.99999e-01
8.579607893e-01,4.75425e-01,9.99999e-01,9.99999e-01,4.75425e-01,9.99999e-01
8.622505932e-01,4.82459e-01,9.99999e-01,9.99999e-01,4.82459e-01,9.99999e-01
8.665618462e-01,4.42216e-01,9.99999e-01,9.03486e-01,4.89455e-01,9.99999e-01
8.708946554e-01,2.81245e-01,9.99999e-01,5.66557e-01,4.96411e-01,9.99999e-01
8.752491287e-01,3.17469e-01,9.99999e-01,6.30740e-01,5.03326e-01,9.99999e-01
8.796253743e-01,3.95350e-01,9.99999e-01,7.74895e-01,5.10198e-01,9.99999e-01
8.840235012e-01,4.52686e-01,9.99999e-01,8.75558e-01,5.17025e-01,9.99999e-01
8.884436187e-01,4.97131e-01,9.99999e-01,9.49073e-01,5.23806e-01,9.99999e-01
8.928858368e-01,5.19398e-01,9.99999e-01,9.79000e-01,5.30539e-01,9.99999e-01
8.973502660e-01,5.34475e-01,9.99999e-01,9.94882e-01,5.37224e-01,9.99999e-01
9.018370173e-01,5.43551e-01,9.99999e-01,9.99435e-01,5.43858e-01,9.99999e-01
9.063462024e-01,5.42349e-01,9.99999e-01,9.85299e-01,5.50440e-01,9.99999e-01
9.108779334e-01,5.38602e-01,9.99999e-01,9.67020e-01,5.56970e-01,9.99999e-01
9.154323231e-01,5.59063e-01,9.99999e-01,9.92221e-01,5.63446e-01,9.99999e-01
9.200094847e-01,5.09439e-01,9.99999e-01,8.93960e-01,5.69867e-01,9.99999e-01
9.246095321e-01,4.89054e-01,9.99999e-01,8.48708e-01,5.76232e-01,9.99999e-01
9.292325798e-01,5.12066e-01,9.99999e-01,8.79021e-01,5.82541e-01,9.99999e-01
9.338787427e-01,5.20073e-01,9.99999e-01,8.83288e-01,5.88792e-01,9.99999e-01
9.385481364e-01,5.43001e-01,9.99999e-01,9.12630e-01,5.94984e-01,9.99999e-01
9.432408771e-01,5.68421e-01,9.99999e-01,9.45605e-01,6.01118e-01,9.99999e-01
9.479570815e-01,5.89987e-01,9.99999e-01,9.71664e-01,6.07191e-01,9.99999e-01
9.526968669e-01,6.04781e-01,9.99999e-01,9.86263e-01,6.13205e-01,9.99999e-01
9.574603512e-01,6.15508e-01,9.99999e-01,9.94106e-01,6.19157e-01,9.99999e-01
9.622476530e-01,6.23898e-01,9.99999e-01,9.98159e-01,6.25048e-01,9.99999e-01
9.670588912e-01,6.30529e-01,9.99999e-01,9.99449e-01,6.30877e-01,9.99999e-01
9.718941857e-01,6.36619e-01,9.99999e-01,9.99961e-01,6.36643e-01,9.99999e-01
9.767536566e-01,6.42347e-01,9.99999e-01,9.99999e-01,6.42347e-01,9.99999e-01
9.816374249e-01,6.47987e-01,9.99999e-01,9.99999e-01,6.47987e-01,9.99999e-01
9.865456120e-01,6.53565e-01,9.99999e-01,9.99999e-01,6.53565e-01,9.99999e-01
9.914783401e-01,6.59078e-01,9.99999e-01,9.99999e-01,6.59078e-01,9.99999e-01
9.964357318e-01,6.64528e-01,9.99999e-01,9.99999e-01,6.64528e-01,9.99999e-01
1.001417910e+00,6.69914e-01,9.99999e-01,9.99999e-01,6.69914e-01,9.99999e-01
1.006425000e+00,6.75236e-01,9.99999e-01,9.99999e-01,6.75236e-01,9.99999e-01
1.011457125e+00,6.80494e-01,9.99999e-01,9.99999e-01,6.80494e-01,9.99999e-01
1.016514411e+00,6.85688e-01,9.99999e-01,9.99999e-01,6.85688e-01,9.99999e-01
1.021596983e+00,6.90758e-01,9.99999e-01,9.99913e-01,6.90818e-01,9.99999e-01
1.026704968e+00,6.91854e-01,9.99999e-01,9.94209e-01,6.95883e-01,9.99999e-01
1.031838492e+00,6.57679e-01,9.99999e-01,9.38354e-01,7.00885e-01,9.99999e-01
1.036997685e+00,7.24372e-02,9.99999e-01,1.02628e-01,7.05823e-01,9.99999e-01
1.042182673e+00,3.25196e-02,9.99999e-01,4.57573e-02,7.10697e-01,9.99999e-01
1.047393587e+00,4.85976e-02,9.99999e-01,6.79204e-02,7.15507e-01,9.99999e-01
1.052630555e+00,3.05996e-04,9.99999e-01,4.24844e-04,7.20254e-01,9.99999e-01
1.057893707e+00,9.70768e-04,9.99999e-01,1.33910e-03,7.24937e-01,9.99999e-01
1.063183176e+00,5.31618e-03,9.99999e-01,7.28684e-03,7.29558e-01,9.99999e-01
1.068499092e+00,2.16474e-02,9.99999e-01,2.94877e-02,7.34116e-01,9.99999e-01
1.073841587e+00,7.92003e-02,9.99999e-01,1.07228e-01,7.38612e-01,9.99999e-01
1.079210795e+00,1.80748e-01,9.99999e-01,2.43253e-01,7.43046e-01,9.99999e-01
1.084606849e+00,3.41277e-01,9.99999e-01,4.56608e-01,7.47417e-01,9.99999e-01
1.090029883e+00,4.99694e-01,9.99999e-01,6.64726e-01,7.51728e-01,9.99999e-01
1.095480033e+00,6.18200e-01,9.99999e-01,8.17748e-01,7.55977e-01,9.99999e-01
1.100957433e+00,6.89827e-01,9.99999e-01,9.07468e-01,7.60166e-01,9.99999e-01
1.106462220e+00,7.34238e-01,9.99999e-01,9.60674e-01,7.64295e-01,9.99999e-01
1.111994531e+00,7.57019e-01,9.99999e-01,9.85235e-01,7.68363e-01,9.99999e-01
1.117554504e+00,7.69585e-01,9.99999e-01,9.96389e-01,7.72373e-01,9.99999e-01
1.123142276e+00,7.76140e-01,9.99999e-01,9.99763e-01,7.76323e-01,9.99999e-01
1.128757988e+00,7.80216e-01,9.99999e-01,9.99999e-01,7.80216e-01,9.99999e-01
1.134401778e+00,7.84050e-01,9.99999e-01,9.99999e-01,7.84050e-01,9.99999e-01
1.140073787e+00,7.87827e-01,9.99999e-01,9.99999e-01,7.87827e-01,9.99999e-01
1.145774156e+00,7.91546e-01,9.99999e-01,9.99999e-01,7.91546e-01,9.99999e-01
1.151503026e+00,7.95210e-01,9.99999e-01,9.99999e-01,7.95210e-01,9.99999e-01
1.157260541e+00,7.98817e-01,9.99999e-01,9.99999e-01,7.98817e-01,9.99999e-01
1.163046844e+00,8.02369e-01,9.99999e-01,9.99999e-01,8.02369e-01,9.99999e-01
1.168862078e+00,8.05867e-01,9.99999e-01,9.99999e-01,8.05867e-01,9.99999e-01
1.174706389e+00,8.09310e-01,9.99999e-01,9.99999e-01,8.09310e-01,9.99999e-01
1.180579921e+00,8.12699e-01,9.99999e-01,9.99999e-01,8.12699e-01,9.99999e-01
1.186482820e+00,8.16025e-01,9.99999e-01,9.99986e-01,8.16035e-01,9.99999e-01
1.192415234e+00,8.02591e-01,9.99999e-01,9.79583e-01,8.19318e-01,9.99999e-01
1.198377311e+00,4.51189e-01,9.99999e-01,5.48524e-01,8.22550e-01,9.99999e-01
1.204369197e+00,6.73659e-16,9.99999e-01,8.15834e-16,8.25730e-01,9.99999e-01
1.210391043e+00,6.92124e-61,9.99999e-01,8.35032e-61,8.28859e-01,9.99999e-01
1.216442998e+00,7.66458e-53,9.99999e-01,9.21292e-53,8.31938e-01,9.99999e-01
1.222525213e+00,4.57938e-52,9.99999e-01,5.48450e-52,8.34967e-01,9.99999e-01
1.228637839e+00,2.61395e-40,9.99999e-01,3.11947e-40,8.37947e-01,9.99999e-01
1.234781029e+00,1.39682e-25,9.99999e-01,1.66114e-25,8.40878e-01,9.99999e-01
1.240954934e+00,3.71157e-17,9.99999e-01,4.39883e-17,8.43762e-01,9.99999e-01
1.247159708e+00,5.97170e-09,9.99999e-01,7.05376e-09,8.46598e-01,9.99999e-01
1.253395507e+00,6.24242e-06,9.99999e-01,7.34932e-06,8.49387e-01,9.99999e-01
1.259662485e+00,9.66502e-04,9.99999e-01,1.13422e-03,8.52130e-01,9.99999e-01
1.265960797e+00,1.78414e-02,9.99999e-01,2.08713e-02,8.54828e-01,9.99999e-01
1.272290601e+00,1.57793e-01,9.99999e-01,1.84020e-01,8.57480e-01,9.99999e-01
1.278652054e+00,1.33174e-01,9.99999e-01,1.54838e-01,8.60089e-01,9.99999e-01
1.285045314e+00,1.18460e-03,9.99999e-01,1.37320e-03,8.62653e-01,9.99999e-01
1.291470541e+00,9.79541e-08,9.99999e-01,1.13219e-07,8.65174e-01,9.99999e-01
1.297927893e+00,1.68890e-03,9.99999e-01,1.94651e-03,8.67653e-01,9.99999e-01
1.304417533e+00,3.92610e-02,9.99999e-01,4.51229e-02,8.70089e-01,9.99999e-01
1.310939621e+00,6.36110e-03,9.99999e-01,7.29079e-03,8.72484e-01,9.99999e-01
1.317494319e+00,1.84641e-21,9.99999e-01,2.11057e-21,8.74838e-01,9.99999e-01
1.324081790e+00,2.37517e-14,9.99999e-01,2.70782e-14,8.77152e-01,9.99999e-01
1.330702199e+00,1.64845e-08,9.99999e-01,1.87446e-08,8.79426e-01,9.99999e-01
1.337355710e+00,4.38450e-08,9.99999e-01,4.97300e-08,8.81660e-01,9.99999e-01
1.344042489e+00,1.55108e-08,9.99999e-01,1.75490e-08,8.83856e-01,9.99999e-01
1.350762701e+00,9.50269e-09,9.99999e-01,1.07252e-08,8.86014e-01,9.99999e-01
1.357516515e+00,9.58950e-06,9.99999e-01,1.07973e-05,8.88135e-01,9.99999e-01
1.364304097e+00,3.90949e-04,9.99999e-01,4.39160e-04,8.90219e-01,9.99999e-01
1.371125618e+00,1.65913e-02,9.99999e-01,1.85946e-02,8.92266e-01,9.99999e-01
1.377981246e+00,3.15641e-02,9.99999e-01,3.52956e-02,8.94277e-01,9.99999e-01
1.384871152e+00,1.28070e-01,9.99999e-01,1.42894e-01,8.96253e-01,9.99999e-01
1.391795508e+00,1.48975e-01,9.99999e-01,1.65861e-01,8.98194e-01,9.99999e-01
1.398754485e+00,2.95006e-01,9.99999e-01,3.27747e-01,9.00101e-01,9.99999e-01
1.405748258e+00,3.98135e-01,9.99999e-01,4.41404e-01,9.01974e-01,9.99999e-01
1.412776999e+00,5.38585e-01,9.99999e-01,5.95902e-01,9.03814e-01,9.99999e-01
1.419840884e+00,4.79764e-01,9.99999e-01,5.29762e-01,9.05621e-01,9.99999e-01
1.426940089e+00,3.17275e-02,9.99999e-01,3.49654e-02,9.07396e-01,9.99999e-01
1.434074789e+00,0.00000e+00,9.99999e-01,0.00000e+00,9.09140e-01,9.99999e-01
1.441245163e+00,0.00000e+00,9.99999e-01,0.00000e+00,9.10852e-01,9.99999e-01
1.448451389e+00,0.00000e+00,9.99999e-01,0.00000e+00,9.12533e-01,9.99999e-01
1.455693646e+00,0.00000e+00,9.99999e-01,0.00000e+00,9.14185e-01,9.99999e-01
1.462972114e+00,2.97771e-240,9.99999e-01,3.25146e-240,9.15806e-01,9.99999e-01
1.470286975e+00,3.50036e-100,9.99999e-01,3.81553e-100,9.17399e-01,9.99999e-01
