#,Wave/freq,Total,O2,CO2,Rayleigh,CIA
4.000000000e-01,5.96946e-03,9.99999e-01,9.99999e-01,5.96946e-03,9.99999e-01
4.020000000e-01,6.60559e-03,9.99999e-01,9.99999e-01,6.60559e-03,9.99999e-01
4.040100000e-01,7.29413e-03,9.99999e-01,9.99999e-01,7.29413e-03,9.99999e-01
4.060300500e-01,8.03869e-03,9.99999e-01,9.99999e-01,8.03869e-03,9.99999e-01
4.080602003e-01,8.84225e-03,9.99999e-01,9.99999e-01,8.84225e-03,9.99999e-01
4.101005013e-01,9.70786e-03,9.99999e-01,9.99999e-01,9.70786e-03,9.99999e-01
4.121510038e-01,1.06386e-02,9.99999e-01,9.99999e-01,1.06386e-02,9.99999e-01
4.142117588e-01,1.16374e-02,9.99999e-01,9.99999e-01,1.16374e-02,9.99999e-01
4.162828176e-01,1.27075e-02,9.99999e-01,9.99999e-01,1.27075e-02,9.99999e-01
4.183642317e-01,1.38519e-02,9.99999e-01,9.99999e-01,1.38519e-02,9.99999e-01
4.204560528e-01,1.50737e-02,9.99999e-01,9.99999e-01,1.50737e-02,9.99999e-01
4.225583331e-01,1.63759e-02,9.99999e-01,9.99999e-01,1.63759e-02,9.99999e-01
4.246711247e-01,1.77615e-02,9.99999e-01,9.99999e-01,1.77615e-02,9.99999e-01
4.267944804e-01,1.92334e-02,9.99999e-01,9.99999e-01,1.92334e-02,9.99999e-01
4.289284528e-01,2.07946e-02,9.99999e-01,9.99999e-01,2.07946e-02,9.99999e-01
4.310730950e-01,2.24478e-02,9.99999e-01,9.99999e-01,2.24478e-02,9.99999e-01
4.332284605e-01,2.41960e-02,9.99999e-01,9.99999e-01,2.41960e-02,9.99999e-01
4.353946028e-01,2.60416e-02,9.99999e-01,9.99999e-01,2.60416e-02,9.99999e-01
4.375715758e-01,2.79874e-02,9.99999e-01,9.99999e-01,2.79874e-02,9.99999e-01
4.397594337e-01,3.00358e-02,9.99999e-01,9.99999e-01,3.00358e-02,9.99999e-01
4.419582309e-01,3.21891e-02,9.99999e-01,9.99999e-01,3.21891e-02,9.99999e-01
4.441680220e-01,3.44497e-02,9.99999e-01,9.99999e-01,3.44497e-02,9.99999e-01
4.463888621e-01,3.68197e-02,9.99999e-01,9.99999e-01,3.68197e-02,9.99999e-01
4.486208064e-01,3.93010e-02,9.99999e-01,9.99999e-01,3.93010e-02,9.99999e-01
4.508639105e-01,4.18955e-02,9.99999e-01,9.99999e-01,4.18955e-02,9.99999e-01
4.531182300e-01,4.46049e-02,9.99999e-01,9.99999e-01,4.46049e-02,9.99999e-01
4.553838212e-01,4.74309e-02,9.99999e-01,9.99999e-01,4.74309e-02,9.99999e-01
4.576607403e-01,5.03746e-02,9.99999e-01,9.99999e-01,5.03746e-02,9.99999e-01
4.599490440e-01,5.34375e-02,9.99999e-01,9.99999e-01,5.34375e-02,9.99999e-01
4.622487892e-01,5.66206e-02,9.99999e-01,9.99999e-01,5.66206e-02,9.99999e-01
4.645600332e-01,5.99248e-02,9.99999e-01,9.99999e-01,5.99248e-02,9.99999e-01
4.668828333e-01,6.33508e-02,9.99999e-01,9.99999e-01,6.33508e-02,9.99999e-01
4.692172475e-01,6.68991e-02,9.99999e-01,9.99999e-01,6.68991e-02,9.99999e-01
4.715633337e-01,7.05701e-02,9.99999e-01,9.99999e-01,7.05701e-02,9.99999e-01
4.739211504e-01,7.43641e-02,9.99999e-01,9.99999e-01,7.43641e-02,9.99999e-01
4.762907561e-01,7.82811e-02,9.99999e-01,9.99999e-01,7.82811e-02,9.99999e-01
4.786722099e-01,8.23209e-02,9.99999e-01,9.99999e-01,8.23209e-02,9.99999e-01
4.810655710e-01,8.64831e-02,9.99999e-01,9.99999e-01,8.64831e-02,9.99999e-01
4.834708988e-01,9.07673e-02,9.99999e-01,9.99999e-01,9.07673e-02,9.99999e-01
4.858882533e-01,9.51728e-02,9.99999e-01,9.99999e-01,9.51728e-02,9.99999e-01
4.883176946e-01,9.96988e-02,9.99999e-01,9.99999e-01,9.96988e-02,9.99999e-01
4.907592831e-01,1.04344e-01,9.99999e-01,9.99999e-01,1.04344e-01,9.99999e-01
4.932130795e-01,1.09108e-01,9.99999e-01,9.99999e-01,1.09108e-01,9.99999e-01
4.956791449e-01,1.13988e-01,9.99999e-01,9.99999e-01,1.13988e-01,9.99999e-01
4.981575406e-01,1.18984e-01,9.99999e-01,9.99999e-01,1.18984e-01,9.99999e-01
5.006483283e-01,1.24094e-01,9.99999e-01,9.99999e-01,1.24094e-01,9.99999e-01
5.031515699e-01,1.29316e-01,9.99999e-01,9.99999e-01,1.29316e-01,9.99999e-01
5.056673278e-01,1.34648e-01,9.99999e-01,9.99999e-01,1.34648e-01,9.99999e-01
5.081956644e-01,1.40088e-01,9.99999e-01,9.99999e-01,1.40088e-01,9.99999e-01
5.107366428e-01,1.45633e-01,9.99999e-01,9.99999e-01,1.45633e-01,9.99999e-01
5.132903260e-01,1.51282e-01,9.99999e-01,9.99999e-01,1.51282e-01,9.99999e-01
5.158567776e-01,1.57032e-01,9.99999e-01,9.99999e-01,1.57032e-01,9.99999e-01
5.184360615e-01,1.62881e-01,9.99999e-01,9.99999e-01,1.62881e-01,9.99999e-01
5.210282418e-01,1.68825e-01,9.99999e-01,9.99999e-01,1.68825e-01,9.99999e-01
5.236333830e-01,1.74863e-01,9.99999e-01,9.99999e-01,1.74863e-01,9.99999e-01
5.262515499e-01,1.80991e-01,9.99999e-01,9.99999e-01,1.80991e-01,9.99999e-01
5.288828077e-01,1.87206e-01,9.99999e-01,9.99999e-01,1.87206e-01,9.99999e-01
5.315272217e-01,1.93505e-01,9.99999e-01,9.99999e-01,1.93505e-01,9.99999e-01
5.341848578e-01,1.99886e-01,9.99999e-01,9.99999e-01,1.99886e-01,9.99999e-01
5.368557821e-01,2.06345e-01,9.99999e-01,9.99999e-01,2.06345e-01,9.99999e-01
5.395400610e-01,2.12879e-01,9.99999e-01,9.99999e-01,2.12879e-01,9.99999e-01
5.422377613e-01,2.19484e-01,9.99999e-01,9.99999e-01,2.19484e-01,9.99999e-01
5.449489501e-01,2.26158e-01,9.99999e-01,9.99999e-01,2.26158e-01,9.99999e-01
5.476736949e-01,2.32897e-01,9.99999e-01,9.99999e-01,2.32897e-01,9.99999e-01
5.504120634e-01,2.39698e-01,9.99999e-01,9.99999e-01,2.39698e-01,9.99999e-01
5.531641237e-01,2.46557e-01,9.99999e-01,9.99999e-01,2.46557e-01,9.99999e-01
5.559299443e-01,2.53471e-01,9.99999e-01,9.99999e-01,2.53471e-01,9.99999e-01
5.587095940e-01,2.60437e-01,9.99999e-01,9.99999e-01,2.60437e-01,9.99999e-01
5.615031420e-01,2.67451e-01,9.99999e-01,9.99999e-01,2.67451e-01,9.99999e-01
5.643106577e-01,2.74509e-01,9.99999e-01,9.99999e-01,2.74509e-01,9.99999e-01
5.671322110e-01,2.81609e-01,9.99999e-01,9.99999e-01,2.81609e-01,9.99999e-01
5.699678720e-01,2.88747e-01,9.99999e-01,9.99999e-01,2.88747e-01,9.99999e-01
5.728177114e-01,2.95920e-01,9.99999e-01,9.99999e-01,2.95920e-01,9.99999e-01
5.756818000e-01,3.03123e-01,9.99999e-01,9.99999e-01,3.03123e-01,9.99999e-01
5.785602090e-01,3.10355e-01,9.99999e-01,9.99999e-01,3.10355e-01,9.99999e-01
5.814530100e-01,3.17611e-01,9.99999e-01,9.99999e-01,3.17611e-01,9.99999e-01
5.843602750e-01,3.24889e-01,9.99999e-01,9.99999e-01,3.24889e-01,9.99999e-01
5.872820764e-01,3.32184e-01,9.99999e-01,9.99999e-01,3.32184e-01,9.99999e-01
5.902184868e-01,3.39495e-01,9.99999e-01,9.99999e-01,3.39495e-01,9.99999e-01
5.931695792e-01,3.46817e-01,9.99999e-01,9.99999e-01,3.46817e-01,9.99999e-01
5.961354271e-01,3.54148e-01,9.99999e-01,9.99999e-01,3.54148e-01,9.99999e-01
5.991161043e-01,3.61484e-01,9.99999e-01,9.99999e-01,3.61484e-01,9.99999e-01
6.021116848e-01,3.68823e-01,9.99999e-01,9.99999e-01,3.68823e-01,9.99999e-01
6.051222432e-01,3.76162e-01,9.99999e-01,9.99999e-01,3.76162e-01,9.99999e-01
6.081478544e-01,3.83497e-01,9.99999e-01,9.99999e-01,3.83497e-01,9.99999e-01
6.111885937e-01,3.90826e-01,9.99999e-01,9.99999e-01,3.90826e-01,9.99999e-01
6.142445367e-01,3.98146e-01,9.99999e-01,9.99999e-01,3.98146e-01,9.99999e-01
6.173157594e-01,4.05455e-01,9.99999e-01,9.99999e-01,4.05455e-01,9.99999e-01
6.204023382e-01,4.12750e-01,9.99999e-01,9.99999e-01,4.12750e-01,9.99999e-01
6.235043498e-01,4.20028e-01,9.99999e-01,9.99999e-01,4.20028e-01,9.99999e-01
6.266218716e-01,4.27287e-01,9.99999e-01,9.99999e-01,4.27287e-01,9.99999e-01
6.297549810e-01,4.34524e-01,9.99999e-01,9.99999e-01,4.34524e-01,9.99999e-01
6.329037559e-01,4.41737e-01,9.99999e-01,9.99999e-01,4.41737e-01,9.99999e-01
6.360682746e-01,4.48924e-01,9.99999e-01,9.99999e-01,4.48924e-01,9.99999e-01
6.392486160e-01,4.56082e-01,9.99999e-01,9.99999e-01,4.56082e-01,9.99999e-01
6.424448591e-01,4.63210e-01,9.99999e-01,9.99999e-01,4.63210e-01,9.99999e-01
6.456570834e-01,4.70305e-01,9.99999e-01,9.99999e-01,4.70305e-01,9.99999e-01
6.488853688e-01,4.77365e-01,9.99999e-01,9.99999e-01,4.77365e-01,9.99999e-01
6.521297956e-01,4.84389e-01,9.99999e-01,9.99999e-01,4.84389e-01,9.99999e-01
6.553904446e-01,4.91374e-01,9.99999e-01,9.99999e-01,4.91374e-01,9.99999e-01
6.586673968e-01,4.98319e-01,9.99999e-01,9.99999e-01,4.98319e-01,9.99999e-01
6.619607338e-01,5.05223e-01,9.99999e-01,9.99999e-01,5.05223e-01,9.99999e-01
6.652705375e-01,5.12082e-01,9.99999e-01,9.99999e-01,5.12082e-01,9.99999e-01
6.685968902e-01,5.18897e-01,9.99999e-01,9.99999e-01,5.18897e-01,9.99999e-01
6.719398746e-01,5.25665e-01,9.99999e-01,9.99999e-01,5.25665e-01,9.99999e-01
6.752995740e-01,5.32385e-01,9.99999e-01,9.99999e-01,5.32385e-01,9.99999e-01
6.786760719e-01,5.39055e-01,9.99999e-01,9.99999e-01,5.39055e-01,9.99999e-01
6.820694522e-01,5.45675e-01,9.99999e-01,9.99999e-01,5.45675e-01,9.99999e-01
6.854797995e-01,5.52243e-01,9.99999e-01,9.99999e-01,5.52243e-01,9.99999e-01
6.889071985e-01,5.58758e-01,9.99999e-01,9.99999e-01,5.58758e-01,9.99999e-01
6.923517345e-01,5.65219e-01,9.99999e-01,9.99999e-01,5.65219e-01,9.99999e-01
6.958134932e-01,5.71625e-01,9.99999e-01,9.99999e-01,5.71625e-01,9.99999e-01
6.992925606e-01,5.77975e-01,9.99999e-01,9.99999e-01,5.77975e-01,9.99999e-01
7.027890234e-01,5.84267e-01,9.99999e-01,9.99999e-01,5.84267e-01,9.99999e-01
7.063029686e-01,5.90502e-01,9.99999e-01,9.99999e-01,5.90502e-01,9.99999e-01
7.098344834e-01,5.96679e-01,9.99999e-01,9.99999e-01,5.96679e-01,9.99999e-01
7.133836558e-01,6.02796e-01,9.99999e-01,9.99999e-01,6.02796e-01,9.99999e-01
7.169505741e-01,6.08853e-01,9.99999e-01,9.99999e-01,6.08853e-01,9.99999e-01
7.205353270e-01,6.14849e-01,9.99999e-01,9.99999e-01,6.14849e-01,9.99999e-01
7.241380036e-01,6.20785e-01,9.99999e-01,9.99999e-01,6.20785e-01,9.99999e-01
7.277586936e-01,6.26659e-01,9.99999e-01,9.99999e-01,6.26659e-01,9.99999e-01
7.313974871e-01,6.32470e-01,9.99999e-01,9.99999e-01,6.32470e-01,9.99999e-01
7.350544745e-01,6.38220e-01,9.99999e-01,9.99999e-01,6.38220e-01,9.99999e-01
7.387297469e-01,6.43906e-01,9.99999e-01,9.99999e-01,6.43906e-01,9.99999e-01
7.424233956e-01,6.49529e-01,9.99999e-01,9.99999e-01,6.49529e-01,9.99999e-01
7.461355126e-01,6.55089e-01,9.99999e-01,9.99999e-01,6.55089e-01,9.99999e-01
7.498661902e-01,6.60585e-01,9.99999e-01,9.99999e-01,6.60585e-01,9.99999e-01
7.536155211e-01,6.66018e-01,9.99999e-01,9.99999e-01,6.66018e-01,9.99999e-01
7.573835987e-01,6.71386e-01,9.99999e-01,9.99999e-01,6.71386e-01,9.99999e-01
7.611705167e-01,6.76690e-01,9.99999e-01,9.99999e-01,6.76690e-01,9.99999e-01
7.649763693e-01,6.81931e-01,9.99999e-01,9.99999e-01,6.81931e-01,9.99999e-01
7.688012511e-01,6.87107e-01,9.99999e-01,9.99999e-01,6.87107e-01,9.99999e-01
7.726452574e-01,6.92219e-01,9.99999e-01,9.99999e-01,6.92219e-01,9.99999e-01
7.765084837e-01,6.97267e-01,9.99999e-01,9.99999e-01,6.97267e-01,9.99999e-01
7.803910261e-01,6.90253e-01,9.99999e-01,9.82914e-01,7.02251e-01,9.99999e-01
7.842929812e-01,6.55266e-01,9.99999e-01,9.26601e-01,7.07171e-01,9.99999e-01
7.882144461e-01,6.56284e-01,9.99999e-01,9.21711e-01,7.12027e-01,9.99999e-01
7.921555184e-01,6.84051e-01,9.99999e-01,9.54285e-01,7.16820e-01,9.99999e-01
7.961162960e-01,6.99241e-01,9.99999e-01,9.69081e-01,7.21550e-01,9.99999e-01
8.000968774e-01,7.13981e-01,9.99999e-01,9.83152e-01,7.26216e-01,9.99999e-01
8.040973618e-01,7.24400e-01,9.99999e-01,9.91216e-01,7.30819e-01,9.99999e-01
8.081178486e-01,7.32399e-01,9.99999e-01,9.95972e-01,7.35360e-01,9.99999e-01
8.121584379e-01,7.38912e-01,9.99999e-01,9.98746e-01,7.39839e-01,9.99999e-01
8.162192301e-01,7.44049e-01,9.99999e-01,9.99722e-01,7.44255e-01,9.99999e-01
8.203003262e-01,7.48607e-01,9.99999e-01,9.99995e-01,7.48610e-01,9.99999e-01
8.244018279e-01,7.52904e-01,9.99999e-01,9.99999e-01,7.52904e-01,9.99999e-01
8.285238370e-01,7.57136e-01,9.99999e-01,9.99999e-01,7.57136e-01,9.99999e-01
8.326664562e-01,7.61309e-01,9.99999e-01,9.99999e-01,7.61309e-01,9.99999e-01
8.368297885e-01,7.65421e-01,9.99999e-01,9.99999e-01,7.65421e-01,9.99999e-01
8.410139374e-01,7.69473e-01,9.99999e-01,9.99999e-01,7.69473e-01,9.99999e-01
8.452190071e-01,7.73466e-01,9.99999e-01,9.99999e-01,7.73466e-01,9.99999e-01
8.494451021e-01,7.77401e-01,9.99999e-01,9.99999e-01,7.77401e-01,9.99999e-01
8.536923276e-01,7.81277e-01,9.99999e-01,9.99999e-01,7.81277e-01,9.99999e-01
8.579607893e-01,7.85095e-01,9.99999e-01,9.99999e-01,7.85095e-01,9.99999e-01
8.622505932e-01,7.88856e-01,9.99999e-01,9.99999e-01,7.88856e-01,9.99999e-01
8.665618462e-01,7.56654e-01,9.99999e-01,9.54695e-01,7.92561e-01,9.99999e-01
8.708946554e-01,6.54564e-01,9.99999e-01,8.22101e-01,7.96208e-01,9.99999e-01
8.752491287e-01,6.84129e-01,9.99999e-01,8.55373e-01,7.99801e-01,9.99999e-01
8.796253743e-01,7.37894e-01,9.99999e-01,9.18534e-01,8.03338e-01,9.99999e-01
8.840235012e-01,7.72228e-01,9.99999e-01,9.57125e-01,8.06820e-01,9.99999e-01
8.884436187e-01,7.96362e-01,9.99999e-01,9.82861e-01,8.10248e-01,9.99999e-01
8.928858368e-01,8.07962e-01,9.99999e-01,9.93041e-01,8.13623e-01,9.99999e-01
8.973502660e-01,8.15554e-01,9.99999e-01,9.98298e-01,8.16944e-01,9.99999e-01
9.018370173e-01,8.20059e-01,9.99999e-01,9.99811e-01,8.20213e-01,9.99999e-01
9.063462024e-01,8.19543e-01,9.99999e-01,9.95279e-01,8.23430e-01,9.99999e-01
9.108779334e-01,8.17546e-01,9.99999e-01,9.89051e-01,8.26596e-01,9.99999e-01
9.154323231e-01,8.27557e-01,9.99999e-01,9.97402e-01,8.29712e-01,9.99999e-01
9.200094847e-01,8.01388e-01,9.99999e-01,9.62307e-01,8.32777e-01,9.99999e-01
9.246095321e-01,7.91905e-01,9.99999e-01,9.47489e-01,8.35792e-01,9.99999e-01
9.292325798e-01,8.04136e-01,9.99999e-01,9.58721e-01,8.38759e-01,9.99999e-01
9.338787427e-01,8.07932e-01,9.99999e-01,9.59906e-01,8.41677e-01,9.99999e-01
9.385481364e-01,8.19597e-01,9.99999e-01,9.70456e-01,8.44547e-01,9.99999e-01
9.432408771e-01,8.31943e-01,9.99999e-01,9.81793e-01,8.47370e-01,9.99999e-01
9.479570815e-01,8.42190e-01,9.99999e-01,9.90640e-01,8.50147e-01,9.99999e-01
9.526968669e-01,8.49014e-01,9.99999e-01,9.95469e-01,8.52877e-01,9.99999e-01
9.574603512e-01,8.53903e-01,9.99999e-01,9.98060e-01,8.55563e-01,9.99999e-01
9.622476530e-01,8.57683e-01,9.99999e-01,9.99394e-01,8.58203e-01,9.99999e-01
9.670588912e-01,8.60643e-01,9.99999e-01,9.99817e-01,8.60799e-01,9.99999e-01
9.718941857e-01,8.63340e-01,9.99999e-01,9.99986e-01,8.63351e-01,9.99999e-01
9.767536566e-01,8.65861e-01,9.99999e-01,9.99999e-01,8.65861e-01,9.99999e-01
9.816374249e-01,8.68328e-01,9.99999e-01,9.99999e-01,8.68328e-01,9.99999e-01
9.865456120e-01,8.70752e-01,9.99999e-01,9.99999e-01,8.70752e-01,9.99999e-01
9.914783401e-01,8.73136e-01,9.99999e-01,9.99999e-01,8.73136e-01,9.99999e-01
9.964357318e-01,8.75479e-01,9.99999e-01,9.99999e-01,8.75479e-01,9.99999e-01
1.001417910e+00,8.77782e-01,9.99999e-01,9.99999e-01,8.77782e-01,9.99999e-01
1.006425000e+00,8.80045e-01,9.99999e-01,9.99999e-01,8.80045e-01,9.99999e-01
1.011457125e+00,8.82269e-01,9.99999e-01,9.99999e-01,8.82269e-01,9.99999e-01
1.016514411e+00,8.84454e-01,9.99999e-01,9.99999e-01,8.84454e-01,9.99999e-01
1.021596983e+00,8.86581e-01,9.99999e-01,9.99976e-01,8.86602e-01,9.99999e-01
1.026704968e+00,8.87085e-01,9.99999e-01,9.98168e-01,8.88712e-01,9.99999e-01
1.031838492e+00,8.68110e-01,9.99999e-01,9.74543e-01,8.90786e-01,9.99999e-01
1.036997685e+00,2.52929e-01,9.99999e-01,2.83291e-01,8.92823e-01,9.99999e-01
1.042182673e+00,2.97795e-01,9.99999e-01,3.32797e-01,8.94824e-01,9.99999e-01
1.047393587e+00,2.80858e-01,9.99999e-01,3.13181e-01,8.96791e-01,9.99999e-01
1.052630555e+00,4.03792e-02,9.99999e-01,4.49295e-02,8.98722e-01,9.99999e-01
1.057893707e+00,7.61744e-02,9.99999e-01,8.45799e-02,9.00620e-01,9.99999e-01
1.063183176e+00,1.50848e-01,9.99999e-01,1.67147e-01,9.02484e-01,9.99999e-01
1.068499092e+00,2.74264e-01,9.99999e-01,3.03283e-01,9.04315e-01,9.99999e-01
1.073841587e+00,4.26244e-01,9.99999e-01,4.70409e-01,9.06113e-01,9.99999e-01
1.079210795e+00,5.64365e-01,9.99999e-01,6.21629e-01,9.07879e-01,9.99999e-01
1.084606849e+00,7.01502e-01,9.99999e-01,7.71207e-01,9.09614e-01,9.99999e-01
1.090029883e+00,7.96731e-01,9.99999e-01,8.74262e-01,9.11318e-01,9.99999e-01
1.095480033e+00,8.54497e-01,9.99999e-01,9.35931e-01,9.12991e-01,9.99999e-01
1.100957433e+00,8.85966e-01,9.99999e-01,9.68655e-01,9.14634e-01,9.99999e-01
1.106462220e+00,9.04256e-01,9.99999e-01,9.86912e-01,9.16248e-01,9.99999e-01
1.111994531e+00,9.13363e-01,9.99999e-01,9.95131e-01,9.17832e-01,9.99999e-01
1.117554504e+00,9.18290e-01,9.99999e-01,9.98805e-01,9.19388e-01,9.99999e-01
1.123142276e+00,9.20843e-01,9.99999e-01,9.99920e-01,9.20915e-01,9.99999e-01
1.128757988e+00,9.22415e-01,9.99999e-01,9.99999e-01,9.22415e-01,9.99999e-01
1.134401778e+00,9.23888e-01,9.99999e-01,9.99999e-01,9.23888e-01,9.99999e-01
1.140073787e+00,9.25333e-01,9.99999e-01,9.99999e-01,9.25333e-01,9.99999e-01
1.145774156e+00,9.26753e-01,9.99999e-01,9.99999e-01,9.26753e-01,9.99999e-01
1.151503026e+00,9.28146e-01,9.99999e-01,9.99999e-01,9.28146e-01,9.99999e-01
1.157260541e+00,9.29514e-01,9.99999e-01,9.99999e-01,9.29514e-01,9.99999e-01
1.163046844e+00,9.30857e-01,9.99999e-01,9.99999e-01,9.30857e-01,9.99999e-01
1.168862078e+00,9.32176e-01,9.99999e-01,9.99999e-01,9.32176e-01,9.99999e-01
1.174706389e+00,9.33470e-01,9.99999e-01,9.99999e-01,9.33470e-01,9.99999e-01
1.180579921e+00,9.34740e-01,9.99999e-01,9.99999e-01,9.34740e-01,9.99999e-01
1.186482820e+00,9.35984e-01,9.99999e-01,9.99996e-01,9.35987e-01,9.99999e-01
1.192415234e+00,9.31071e-01,9.99999e-01,9.93448e-01,9.37211e-01,9.99999e-01
1.198377311e+00,5.49769e-01,9.99999e-01,5.85850e-01,9.38412e-01,9.99999e-01
1.204369197e+00,1.09236e-06,9.99999e-01,1.16259e-06,9.39591e-01,9.99999e-01
1.210391043e+00,2.51687e-21,9.99999e-01,2.67539e-21,9.40748e-01,9.99999e-01
1.216442998e+00,1.05210e-18,9.99999e-01,1.11701e-18,9.41884e-01,9.99999e-01
1.222525213e+00,1.95731e-18,9.99999e-01,2.07562e-18,9.42998e-01,9.99999e-01
1.228637839e+00,3.48359e-14,9.99999e-01,3.68988e-14,9.44092e-01,9.99999e-01
1.234781029e+00,8.04645e-10,9.99999e-01,8.51326e-10,9.45166e-01,9.99999e-01
1.240954934e+00,1.08710e-06,9.99999e-01,1.14888e-06,9.46219e-01,9.99999e-01
1.247159708e+00,4.53170e-04,9.99999e-01,4.78404e-04,9.47253e-01,9.99999e-01
1.253395507e+00,1.38576e-02,9.99999e-01,1.46136e-02,9.48267e-01,9.99999e-01
1.259662485e+00,8.62023e-02,9.99999e-01,9.08097e-02,9.49263e-01,9.99999e-01
1.265960797e+00,2.35848e-01,9.99999e-01,2.48198e-01,9.50239e-01,9.99999e-01
1.272290601e+00,5.13158e-01,9.99999e-01,5.39486e-01,9.51198e-01,9.99999e-01
1.278652054e+00,4.78581e-01,9.99999e-01,5.02638e-01,9.52138e-01,9.99999e-01
1.285045314e+00,3.88864e-02,9.99999e-01,4.08015e-02,9.53061e-01,9.99999e-01
1.291470541e+00,3.42283e-03,9.99999e-01,3.58799e-03,9.53967e-01,9.99999e-01
1.297927893e+00,4.06576e-02,9.99999e-01,4.25798e-02,9.54855e-01,9.99999e-01
1.304417533e+00,3.39261e-01,9.99999e-01,3.54976e-01,9.55727e-01,9.99999e-01
1.310939621e+00,9.80241e-02,9.99999e-01,1.02473e-01,9.56582e-01,9.99999e-01
1.317494319e+00,9.07978e-08,9.99999e-01,9.48357e-08,9.57421e-01,9.99999e-01
1.324081790e+00,9.56037e-06,9.99999e-01,9.97696e-06,9.58244e-01,9.99999e-01
1.330702199e+00,2.13706e-03,9.99999e-01,2.22830e-03,9.59052e-01,9.99999e-01
1.337355710e+00,1.52327e-03,9.99999e-01,1.58699e-03,9.59844e-01,9.99999e-01
1.344042489e+00,5.34200e-04,9.99999e-01,5.56098e-04,9.60622e-01,9.99999e-01
1.350762701e+00,1.62473e-03,9.99999e-01,1.68999e-03,9.61384e-01,9.99999e-01
1.357516515e+00,1.42990e-02,9.99999e-01,1.48618e-02,9.62132e-01,9.99999e-01
1.364304097e+00,7.03197e-02,9.99999e-01,7.30315e-02,9.62866e-01,9.99999e-01
1.371125618e+00,2.40951e-01,9.99999e-01,2.50056e-01,9.63586e-01,9.99999e-01
1.377981246e+00,3.19663e-01,9.99999e-01,3.31500e-01,9.64292e-01,9.99999e-01
1.384871152e+00,5.07146e-01,9.99999e-01,5.25547e-01,9.64985e-01,9.99999e-01
1.391795508e+00,5.33137e-01,9.99999e-01,5.52093e-01,9.65665e-01,9.99999e-01
1.398754485e+00,6.70800e-01,9.99999e-01,6.94171e-01,9.66331e-01,9.99999e-01
1.405748258e+00,7.38412e-01,9.99999e-01,7.63622e-01,9.66985e-01,9.99999e-01
1.412776999e+00,8.16309e-01,9.99999e-01,8.43618e-01,9.67627e-01,9.99999e-01
1.419840884e+00,7.58862e-01,9.99999e-01,7.83741e-01,9.68256e-01,9.99999e-01
1.426940089e+00,1.01624e-01,9.99999e-01,1.04888e-01,9.68873e-01,9.99999e-01
1.434074789e+00,9.70362e-301,9.99999e-01,1.00091e-300,9.69478e-01,9.99999e-01
1.441245163e+00,0.00000e+00,9.99999e-01,0.00000e+00,9.70072e-01,9.99999e-01
1.448451389e+00,0.00000e+00,9.99999e-01,0.00000e+00,9.70655e-01,9.99999e-01
1.455693646e+00,3.06153e-163,9.99999e-01,3.15223e-163,9.71226e-01,9.99999e-01
1.462972114e+00,1.11105e-79,9.99999e-01,1.14331e-79,9.71786e-01,9.99999e-01
1.470286975e+00,4.13805e-34,9.99999e-01,4.25578e-34,9.72335e-01,9.99999e-01
