#,Wave/freq,Total,O2,CO2,Rayleigh,CIA
4.000000000e-01,5.57215e-03,9.99999e-01,9.99999e-01,5.57215e-03,9.99999e-01
4.020000000e-01,6.17432e-03,9.99999e-01,9.99999e-01,6.17432e-03,9.99999e-01
4.040100000e-01,6.82701e-03,9.99999e-01,9.99999e-01,6.82701e-03,9.99999e-01
4.060300500e-01,7.53373e-03,9.99999e-01,9.99999e-01,7.53373e-03,9.99999e-01
4.080602003e-01,8.29744e-03,9.99999e-01,9.99999e-01,8.29744e-03,9.99999e-01
4.101005013e-01,9.12117e-03,9.99999e-01,9.99999e-01,9.12117e-03,9.99999e-01
4.121510038e-01,1.00079e-02,9.99999e-01,9.99999e-01,1.00079e-02,9.99999e-01
4.142117588e-01,1.09608e-02,9.99999e-01,9.99999e-01,1.09608e-02,9.99999e-01
4.162828176e-01,1.19829e-02,9.99999e-01,9.99999e-01,1.19829e-02,9.99999e-01
4.183642317e-01,1.30772e-02,9.99999e-01,9.99999e-01,1.30772e-02,9.99999e-01
4.204560528e-01,1.42468e-02,9.99999e-01,9.99999e-01,1.42468e-02,9.99999e-01
4.225583331e-01,1.54948e-02,9.99999e-01,9.99999e-01,1.54948e-02,9.99999e-01
4.246711247e-01,1.68242e-02,9.99999e-01,9.99999e-01,1.68242e-02,9.99999e-01
4.267944804e-01,1.82380e-02,9.99999e-01,9.99999e-01,1.82380e-02,9.99999e-01
4.289284528e-01,1.97391e-02,9.99999e-01,9.99999e-01,1.97391e-02,9.99999e-01
4.310730950e-01,2.13303e-02,9.99999e-01,9.99999e-01,2.13303e-02,9.99999e-01
4.332284605e-01,2.30146e-02,9.99999e-01,9.99999e-01,2.30146e-02,9.99999e-01
4.353946028e-01,2.47947e-02,9.99999e-01,9.99999e-01,2.47947e-02,9.99999e-01
4.375715758e-01,2.66731e-02,9.99999e-01,9.99999e-01,2.66731e-02,9.99999e-01
4.397594337e-01,2.86525e-02,9.99999e-01,9.99999e-01,2.86525e-02,9.99999e-01
4.419582309e-01,3.07353e-02,9.99999e-01,9.99999e-01,3.07353e-02,9.99999e-01
4.441680220e-01,3.29239e-02,9.99999e-01,9.99999e-01,3.29239e-02,9.99999e-01
4.463888621e-01,3.52203e-02,9.99999e-01,9.99999e-01,3.52203e-02,9.99999e-01
4.486208064e-01,3.76269e-02,9.99999e-01,9.99999e-01,3.76269e-02,9.99999e-01
4.508639105e-01,4.01454e-02,9.99999e-01,9.99999e-01,4.01454e-02,9.99999e-01
4.531182300e-01,4.27777e-02,9.99999e-01,9.99999e-01,4.27777e-02,9.99999e-01
4.553838212e-01,4.55254e-02,9.99999e-01,9.99999e-01,4.55254e-02,9.99999e-01
4.576607403e-01,4.83901e-02,9.99999e-01,9.99999e-01,4.83901e-02,9.99999e-01
4.599490440e-01,5.13731e-02,9.99999e-01,9.99999e-01,5.13731e-02,9.99999e-01
4.622487892e-01,5.44756e-02,9.99999e-01,9.99999e-01,5.44756e-02,9.99999e-01
4.645600332e-01,5.76986e-02,9.99999e-01,9.99999e-01,5.76986e-02,9.99999e-01
4.668828333e-01,6.10429e-02,9.99999e-01,9.99999e-01,6.10429e-02,9.99999e-01
4.692172475e-01,6.45093e-02,9.99999e-01,9.99999e-01,6.45093e-02,9.99999e-01
4.715633337e-01,6.80981e-02,9.99999e-01,9.99999e-01,6.80981e-02,9.99999e-01
4.739211504e-01,7.18098e-02,9.99999e-01,9.99999e-01,7.18098e-02,9.99999e-01
4.762907561e-01,7.56444e-02,9.99999e-01,9.99999e-01,7.56444e-02,9.99999e-01
4.786722099e-01,7.96019e-02,9.99999e-01,9.99999e-01,7.96019e-02,9.99999e-01
4.810655710e-01,8.36822e-02,9.99999e-01,9.99999e-01,8.36822e-02,9.99999e-01
4.834708988e-01,8.78848e-02,9.99999e-01,9.99999e-01,8.78848e-02,9.99999e-01
4.858882533e-01,9.22092e-02,9.99999e-01,9.99999e-01,9.22092e-02,9.99999e-01
4.883176946e-01,9.66546e-02,9.99999e-01,9.99999e-01,9.66546e-02,9.99999e-01
4.907592831e-01,1.01220e-01,9.99999e-01,9.99999e-01,1.01220e-01,9.99999e-01
4.932130795e-01,1.05905e-01,9.99999e-01,9.99999e-01,1.05905e-01,9.99999e-01
4.956791449e-01,1.10707e-01,9.99999e-01,9.99999e-01,1.10707e-01,9.99999e-01
4.981575406e-01,1.15626e-01,9.99999e-01,9.99999e-01,1.15626e-01,9.99999e-01
5.006483283e-01,1.20660e-01,9.99999e-01,9.99999e-01,1.20660e-01,9.99999e-01
5.031515699e-01,1.25807e-01,9.99999e-01,9.99999e-01,1.25807e-01,9.99999e-01
5.056673278e-01,1.31065e-01,9.99999e-01,9.99999e-01,1.31065e-01,9.99999e-01
5.081956644e-01,1.36433e-01,9.99999e-01,9.99999e-01,1.36433e-01,9.99999e-01
5.107366428e-01,1.41908e-01,9.99999e-01,9.99999e-01,1.41908e-01,9.99999e-01
5.132903260e-01,1.47488e-01,9.99999e-01,9.99999e-01,1.47488e-01,9.99999e-01
5.158567776e-01,1.53171e-01,9.99999e-01,9.99999e-01,1.53171e-01,9.99999e-01
5.184360615e-01,1.58953e-01,9.99999e-01,9.99999e-01,1.58953e-01,9.99999e-01
5.210282418e-01,1.64834e-01,9.99999e-01,9.99999e-01,1.64834e-01,9.99999e-01
5.236333830e-01,1.70810e-01,9.99999e-01,9.99999e-01,1.70810e-01,9.99999e-01
5.262515499e-01,1.76877e-01,9.99999e-01,9.99999e-01,1.76877e-01,9.99999e-01
5.288828077e-01,1.83034e-01,9.99999e-01,9.99999e-01,1.83034e-01,9.99999e-01
5.315272217e-01,1.89278e-01,9.99999e-01,9.99999e-01,1.89278e-01,9.99999e-01
5.341848578e-01,1.95604e-01,9.99999e-01,9.99999e-01,1.95604e-01,9.99999e-01
5.368557821e-01,2.02011e-01,9.99999e-01,9.99999e-01,2.02011e-01,9.99999e-01
5.395400610e-01,2.08495e-01,9.99999e-01,9.99999e-01,2.08495e-01,9.99999e-01
5.422377613e-01,2.15053e-01,9.99999e-01,9.99999e-01,2.15053e-01,9.99999e-01
5.449489501e-01,2.21681e-01,9.99999e-01,9.99999e-01,2.21681e-01,9.99999e-01
5.476736949e-01,2.28377e-01,9.99999e-01,9.99999e-01,2.28377e-01,9.99999e-01
5.504120634e-01,2.35137e-01,9.99999e-01,9.99999e-01,2.35137e-01,9.99999e-01
5.531641237e-01,2.41957e-01,9.99999e-01,9.99999e-01,2.41957e-01,9.99999e-01
5.559299443e-01,2.48835e-01,9.99999e-01,9.99999e-01,2.48835e-01,9.99999e-01
5.587095940e-01,2.55767e-01,9.99999e-01,9.99999e-01,2.55767e-01,9.99999e-01
5.615031420e-01,2.62748e-01,9.99999e-01,9.99999e-01,2.62748e-01,9.99999e-01
5.643106577e-01,2.69778e-01,9.99999e-01,9.99999e-01,2.69778e-01,9.99999e-01
5.671322110e-01,2.76850e-01,9.99999e-01,9.99999e-01,2.76850e-01,9.99999e-01
5.699678720e-01,2.83963e-01,9.99999e-01,9.99999e-01,2.83963e-01,9.99999e-01
5.728177114e-01,2.91113e-01,9.99999e-01,9.99999e-01,2.91113e-01,9.99999e-01
5.756818000e-01,2.98296e-01,9.99999e-01,9.99999e-01,2.98296e-01,9.99999e-01
5.785602090e-01,3.05509e-01,9.99999e-01,9.99999e-01,3.05509e-01,9.99999e-01
5.814530100e-01,3.12749e-01,9.99999e-01,9.99999e-01,3.12749e-01,9.99999e-01
5.843602750e-01,3.20013e-01,9.99999e-01,9.99999e-01,3.20013e-01,9.99999e-01
5.872820764e-01,3.27297e-01,9.99999e-01,9.99999e-01,3.27297e-01,9.99999e-01
5.902184868e-01,3.34598e-01,9.99999e-01,9.99999e-01,3.34598e-01,9.99999e-01
5.931695792e-01,3.41912e-01,9.99999e-01,9.99999e-01,3.41912e-01,9.99999e-01
5.961354271e-01,3.49238e-01,9.99999e-01,9.99999e-01,3.49238e-01,9.99999e-01
5.991161043e-01,3.56571e-01,9.99999e-01,9.99999e-01,3.56571e-01,9.99999e-01
6.021116848e-01,3.63908e-01,9.99999e-01,9.99999e-01,3.63908e-01,9.99999e-01
6.051222432e-01,3.71247e-01,9.99999e-01,9.99999e-01,3.71247e-01,9.99999e-01
6.081478544e-01,3.78585e-01,9.99999e-01,9.99999e-01,3.78585e-01,9.99999e-01
6.111885937e-01,3.85919e-01,9.99999e-01,9.99999e-01,3.85919e-01,9.99999e-01
6.142445367e-01,3.93245e-01,9.99999e-01,9.99999e-01,3.93245e-01,9.99999e-01
6.173157594e-01,4.00562e-01,9.99999e-01,9.99999e-01,4.00562e-01,9.99999e-01
6.204023382e-01,4.07867e-01,9.99999e-01,9.99999e-01,4.07867e-01,9.99999e-01
6.235043498e-01,4.15156e-01,9.99999e-01,9.99999e-01,4.15156e-01,9.99999e-01
6.266218716e-01,4.22428e-01,9.99999e-01,9.99999e-01,4.22428e-01,9.99999e-01
6.297549810e-01,4.29680e-01,9.99999e-01,9.99999e-01,4.29680e-01,9.99999e-01
6.329037559e-01,4.36909e-01,9.99999e-01,9.99999e-01,4.36909e-01,9.99999e-01
6.360682746e-01,4.44114e-01,9.99999e-01,9.99999e-01,4.44114e-01,9.99999e-01
6.392486160e-01,4.51291e-01,9.99999e-01,9.99999e-01,4.51291e-01,9.99999e-01
6.424448591e-01,4.58440e-01,9.99999e-01,9.99999e-01,4.58440e-01,9.99999e-01
6.456570834e-01,4.65557e-01,9.99999e-01,9.99999e-01,4.65557e-01,9.99999e-01
6.488853688e-01,4.72641e-01,9.99999e-01,9.99999e-01,4.72641e-01,9.99999e-01
6.521297956e-01,4.79689e-01,9.99999e-01,9.99999e-01,4.79689e-01,9.99999e-01
6.553904446e-01,4.86701e-01,9.99999e-01,9.99999e-01,4.86701e-01,9.99999e-01
6.586673968e-01,4.93673e-01,9.99999e-01,9.99999e-01,4.93673e-01,9.99999e-01
6.619607338e-01,5.00604e-01,9.99999e-01,9.99999e-01,5.00604e-01,9.99999e-01
6.652705375e-01,5.07493e-01,9.99999e-01,9.99999e-01,5.07493e-01,9.99999e-01
6.685968902e-01,5.14338e-01,9.99999e-01,9.99999e-01,5.14338e-01,9.99999e-01
6.719398746e-01,5.21138e-01,9.99999e-01,9.99999e-01,5.21138e-01,9.99999e-01
6.752995740e-01,5.27890e-01,9.99999e-01,9.99999e-01,5.27890e-01,9.99999e-01
6.786760719e-01,5.34593e-01,9.99999e-01,9.99999e-01,5.34593e-01,9.99999e-01
6.820694522e-01,5.41247e-01,9.99999e-01,9.99999e-01,5.41247e-01,9.99999e-01
6.854797995e-01,5.47850e-01,9.99999e-01,9.99999e-01,5.47850e-01,9.99999e-01
6.889071985e-01,5.54401e-01,9.99999e-01,9.99999e-01,5.54401e-01,9.99999e-01
6.923517345e-01,5.60898e-01,9.99999e-01,9.99999e-01,5.60898e-01,9.99999e-01
6.958134932e-01,5.67341e-01,9.99999e-01,9.99999e-01,5.67341e-01,9.99999e-01
6.992925606e-01,5.73729e-01,9.99999e-01,9.99999e-01,5.73729e-01,9.99999e-01
7.027890234e-01,5.80060e-01,9.99999e-01,9.99999e-01,5.80060e-01,9.99999e-01
7.063029686e-01,5.86333e-01,9.99999e-01,9.99999e-01,5.86333e-01,9.99999e-01
7.098344834e-01,5.92549e-01,9.99999e-01,9.99999e-01,5.92549e-01,9.99999e-01
7.133836558e-01,5.98706e-01,9.99999e-01,9.99999e-01,5.98706e-01,9.99999e-01
7.169505741e-01,6.04803e-01,9.99999e-01,9.99999e-01,6.04803e-01,9.99999e-01
7.205353270e-01,6.10840e-01,9.99999e-01,9.99999e-01,6.10840e-01,9.99999e-01
7.241380036e-01,6.16817e-01,9.99999e-01,9.99999e-01,6.16817e-01,9.99999e-01
7.277586936e-01,6.22732e-01,9.99999e-01,9.99999e-01,6.22732e-01,9.99999e-01
7.313974871e-01,6.28585e-01,9.99999e-01,9.99999e-01,6.28585e-01,9.99999e-01
7.350544745e-01,6.34376e-01,9.99999e-01,9.99999e-01,6.34376e-01,9.99999e-01
7.387297469e-01,6.40105e-01,9.99999e-01,9.99999e-01,6.40105e-01,9.99999e-01
7.424233956e-01,6.45770e-01,9.99999e-01,9.99999e-01,6.45770e-01,9.99999e-01
7.461355126e-01,6.51373e-01,9.99999e-01,9.99999e-01,6.51373e-01,9.99999e-01
7.498661902e-01,6.56912e-01,9.99999e-01,9.99999e-01,6.56912e-01,9.99999e-01
7.536155211e-01,6.62387e-01,9.99999e-01,9.99999e-01,6.62387e-01,9.99999e-01
7.573835987e-01,6.67798e-01,9.99999e-01,9.99999e-01,6.67798e-01,9.99999e-01
7.611705167e-01,6.73145e-01,9.99999e-01,9.99999e-01,6.73145e-01,9.99999e-01
7.649763693e-01,6.78428e-01,9.99999e-01,9.99999e-01,6.78428e-01,9.99999e-01
7.688012511e-01,6.83647e-01,9.99999e-01,9.99999e-01,6.83647e-01,9.99999e-01
7.726452574e-01,6.88802e-01,9.99999e-01,9.99999e-01,6.88802e-01,9.99999e-01
7.765084837e-01,6.93893e-01,9.99999e-01,9.99999e-01,6.93893e-01,9.99999e-01
7.803910261e-01,6.86057e-01,9.99999e-01,9.81595e-01,6.98920e-01,9.99999e-01
7.842929812e-01,6.51974e-01,9.99999e-01,9.26253e-01,7.03883e-01,9.99999e-01
7.882144461e-01,6.52486e-01,9.99999e-01,9.20572e-01,7.08782e-01,9.99999e-01
7.921555184e-01,6.80475e-01,9.99999e-01,9.53556e-01,7.13617e-01,9.99999e-01
7.961162960e-01,6.96077e-01,9.99999e-01,9.68940e-01,7.18389e-01,9.99999e-01
8.000968774e-01,7.10824e-01,9.99999e-01,9.83025e-01,7.23098e-01,9.99999e-01
8.040973618e-01,7.21342e-01,9.99999e-01,9.91203e-01,7.27743e-01,9.99999e-01
8.081178486e-01,7.29354e-01,9.99999e-01,9.95941e-01,7.32326e-01,9.99999e-01
8.121584379e-01,7.35929e-01,9.99999e-01,9.98754e-01,7.36846e-01,9.99999e-01
8.162192301e-01,7.41101e-01,9.99999e-01,9.99724e-01,7.41304e-01,9.99999e-01
8.203003262e-01,7.45698e-01,9.99999e-01,9.99995e-01,7.45701e-01,9.99999e-01
8.244018279e-01,7.50035e-01,9.99999e-01,9.99999e-01,7.50035e-01,9.99999e-01
8.285238370e-01,7.54309e-01,9.99999e-01,9.99999e-01,7.54309e-01,9.99999e-01
8.326664562e-01,7.58521e-01,9.99999e-01,9.99999e-01,7.58521e-01,9.99999e-01
8.368297885e-01,7.62674e-01,9.99999e-01,9.99999e-01,7.62674e-01,9.99999e-01
8.410139374e-01,7.66766e-01,9.99999e-01,9.99999e-01,7.66766e-01,9.99999e-01
8.452190071e-01,7.70799e-01,9.99999e-01,9.99999e-01,7.70799e-01,9.99999e-01
8.494451021e-01,7.74772e-01,9.99999e-01,9.99999e-01,7.74772e-01,9.99999e-01
8.536923276e-01,7.78688e-01,9.99999e-01,9.99999e-01,7.78688e-01,9.99999e-01
8.579607893e-01,7.82545e-01,9.99999e-01,9.99999e-01,7.82545e-01,9.99999e-01
8.622505932e-01,7.86344e-01,9.99999e-01,9.99999e-01,7.86344e-01,9.99999e-01
8.665618462e-01,7.52026e-01,9.99999e-01,9.51827e-01,7.90086e-01,9.99999e-01
8.708946554e-01,6.51039e-01,9.99999e-01,8.20183e-01,7.93772e-01,9.99999e-01
8.752491287e-01,6.81367e-01,9.99999e-01,8.54483e-01,7.97401e-01,9.99999e-01
8.796253743e-01,7.35391e-01,9.99999e-01,9.18119e-01,8.00975e-01,9.99999e-01
8.840235012e-01,7.69802e-01,9.99999e-01,9.56877e-01,8.04494e-01,9.99999e-01
8.884436187e-01,7.94119e-01,9.99999e-01,9.82870e-01,8.07958e-01,9.99999e-01
8.928858368e-01,8.05705e-01,9.99999e-01,9.93018e-01,8.11369e-01,9.99999e-01
8.973502660e-01,8.13348e-01,9.99999e-01,9.98308e-01,8.14726e-01,9.99999e-01
9.018370173e-01,8.17878e-01,9.99999e-01,9.99813e-01,8.18030e-01,9.99999e-01
9.063462024e-01,8.17241e-01,9.99999e-01,9.95080e-01,8.21282e-01,9.99999e-01
9.108779334e-01,8.15396e-01,9.99999e-01,9.88979e-01,8.24482e-01,9.99999e-01
9.154323231e-01,8.25500e-01,9.99999e-01,9.97424e-01,8.27631e-01,9.99999e-01
9.200094847e-01,7.98456e-01,9.99999e-01,9.61149e-01,8.30729e-01,9.99999e-01
9.246095321e-01,7.89652e-01,9.99999e-01,9.47076e-01,8.33778e-01,9.99999e-01
9.292325798e-01,8.01420e-01,9.99999e-01,9.57745e-01,8.36777e-01,9.99999e-01
9.338787427e-01,8.05780e-01,9.99999e-01,9.59572e-01,8.39728e-01,9.99999e-01
9.385481364e-01,8.17506e-01,9.99999e-01,9.70183e-01,8.42630e-01,9.99999e-01
9.432408771e-01,8.30016e-01,9.99999e-01,9.81703e-01,8.45485e-01,9.99999e-01
9.479570815e-01,8.40285e-01,9.99999e-01,9.90559e-01,8.48293e-01,9.99999e-01
9.526968669e-01,8.47177e-01,9.99999e-01,9.95444e-01,8.51054e-01,9.99999e-01
9.574603512e-01,8.52106e-01,9.99999e-01,9.98051e-01,8.53769e-01,9.99999e-01
9.622476530e-01,8.55920e-01,9.99999e-01,9.99392e-01,8.56440e-01,9.99999e-01
9.670588912e-01,8.58909e-01,9.99999e-01,9.99817e-01,8.59065e-01,9.99999e-01
9.718941857e-01,8.61636e-01,9.99999e-01,9.99986e-01,8.61647e-01,9.99999e-01
9.767536566e-01,8.64185e-01,9.99999e-01,9.99999e-01,8.64185e-01,9.99999e-01
9.816374249e-01,8.66680e-01,9.99999e-01,9.99999e-01,8.66680e-01,9.99999e-01
9.865456120e-01,8.69133e-01,9.99999e-01,9.99999e-01,8.69133e-01,9.99999e-01
9.914783401e-01,8.71544e-01,9.99999e-01,9.99999e-01,8.71544e-01,9.99999e-01
9.964357318e-01,8.73914e-01,9.99999e-01,9.99999e-01,8.73914e-01,9.99999e-01
1.001417910e+00,8.76244e-01,9.99999e-01,9.99999e-01,8.76244e-01,9.99999e-01
1.006425000e+00,8.78533e-01,9.99999e-01,9.99999e-01,8.78533e-01,9.99999e-01
1.011457125e+00,8.80784e-01,9.99999e-01,9.99999e-01,8.80784e-01,9.99999e-01
1.016514411e+00,8.82995e-01,9.99999e-01,9.99999e-01,8.82995e-01,9.99999e-01
1.021596983e+00,8.85143e-01,9.99999e-01,9.99971e-01,8.85168e-01,9.99999e-01
1.026704968e+00,8.85600e-01,9.99999e-01,9.98080e-01,8.87303e-01,9.99999e-01
1.031838492e+00,8.63373e-01,9.99999e-01,9.70734e-01,8.89401e-01,9.99999e-01
1.036997685e+00,2.47811e-01,9.99999e-01,2.77982e-01,8.91463e-01,9.99999e-01
1.042182673e+00,2.94851e-01,9.99999e-01,3.30000e-01,8.93488e-01,9.99999e-01
1.047393587e+00,2.73627e-01,9.99999e-01,3.05565e-01,8.95478e-01,9.99999e-01
1.052630555e+00,3.88863e-02,9.99999e-01,4.33306e-02,8.97433e-01,9.99999e-01
1.057893707e+00,7.47359e-02,9.99999e-01,8.30995e-02,8.99353e-01,9.99999e-01
1.063183176e+00,1.48200e-01,9.99999e-01,1.64440e-01,9.01239e-01,9.99999e-01
1.068499092e+00,2.69351e-01,9.99999e-01,2.98254e-01,9.03092e-01,9.99999e-01
1.073841587e+00,4.22933e-01,9.99999e-01,4.67374e-01,9.04912e-01,9.99999e-01
1.079210795e+00,5.61015e-01,9.99999e-01,6.18743e-01,9.06700e-01,9.99999e-01
1.084606849e+00,6.99249e-01,9.99999e-01,7.69711e-01,9.08456e-01,9.99999e-01
1.090029883e+00,7.94743e-01,9.99999e-01,8.73170e-01,9.10180e-01,9.99999e-01
1.095480033e+00,8.53054e-01,9.99999e-01,9.35494e-01,9.11874e-01,9.99999e-01
1.100957433e+00,8.84686e-01,9.99999e-01,9.68417e-01,9.13537e-01,9.99999e-01
1.106462220e+00,9.03126e-01,9.99999e-01,9.86839e-01,9.15170e-01,9.99999e-01
1.111994531e+00,9.12285e-01,9.99999e-01,9.95103e-01,9.16774e-01,9.99999e-01
1.117554504e+00,9.17254e-01,9.99999e-01,9.98807e-01,9.18349e-01,9.99999e-01
1.123142276e+00,9.19824e-01,9.99999e-01,9.99921e-01,9.19895e-01,9.99999e-01
1.128757988e+00,9.21414e-01,9.99999e-01,9.99999e-01,9.21414e-01,9.99999e-01
1.134401778e+00,9.22905e-01,9.99999e-01,9.99999e-01,9.22905e-01,9.99999e-01
1.140073787e+00,9.24368e-01,9.99999e-01,9.99999e-01,9.24368e-01,9.99999e-01
1.145774156e+00,9.25805e-01,9.99999e-01,9.99999e-01,9.25805e-01,9.99999e-01
1.151503026e+00,9.27216e-01,9.99999e-01,9.99999e-01,9.27216e-01,9.99999e-01
1.157260541e+00,9.28601e-01,9.99999e-01,9.99999e-01,9.28601e-01,9.99999e-01
1.163046844e+00,9.29961e-01,9.99999e-01,9.99999e-01,9.29961e-01,9.99999e-01
1.168862078e+00,9.31296e-01,9.99999e-01,9.99999e-01,9.31296e-01,9.99999e-01
1.174706389e+00,9.32606e-01,9.99999e-01,9.99999e-01,9.32606e-01,9.99999e-01
1.180579921e+00,9.33892e-01,9.99999e-01,9.99999e-01,9.33892e-01,9.99999e-01
1.186482820e+00,9.35151e-01,9.99999e-01,9.99995e-01,9.35154e-01,9.99999e-01
1.192415234e+00,9.29917e-01,9.99999e-01,9.93082e-01,9.36394e-01,9.99999e-01
1.198377311e+00,5.46450e-01,9.99999e-01,5.82811e-01,9.37610e-01,9.99999e-01
1.204369197e+00,9.48266e-07,9.99999e-01,1.01008e-06,9.38804e-01,9.99999e-01
1.210391043e+00,1.37719e-21,9.99999e-01,1.46513e-21,9.39976e-01,9.99999e-01
1.216442998e+00,6.25044e-19,9.99999e-01,6.64145e-19,9.41126e-01,9.99999e-01
1.222525213e+00,1.16774e-18,9.99999e-01,1.23931e-18,9.42254e-01,9.99999e-01
1.228637839e+00,2.31156e-14,9.99999e-01,2.45034e-14,9.43362e-01,9.99999e-01
1.234781029e+00,6.32196e-10,9.99999e-01,6.69381e-10,9.44449e-01,9.99999e-01
1.240954934e+00,1.00018e-06,9.99999e-01,1.05781e-06,9.45516e-01,9.99999e-01
1.247159708e+00,4.20189e-04,9.99999e-01,4.43910e-04,9.46563e-01,9.99999e-01
1.253395507e+00,1.33565e-02,9.99999e-01,1.40952e-02,9.47590e-01,9.99999e-01
1.259662485e+00,8.43402e-02,9.99999e-01,8.89103e-02,9.48598e-01,9.99999e-01
1.265960797e+00,2.33920e-01,9.99999e-01,2.46338e-01,9.49587e-01,9.99999e-01
1.272290601e+00,5.34584e-01,9.99999e-01,5.62389e-01,9.50558e-01,9.99999e-01
1.278652054e+00,4.69719e-01,9.99999e-01,4.93655e-01,9.51511e-01,9.99999e-01
1.285045314e+00,2.65988e-02,9.99999e-01,2.79268e-02,9.52445e-01,9.99999e-01
1.291470541e+00,3.20441e-03,9.99999e-01,3.36116e-03,9.53362e-01,9.99999e-01
1.297927893e+00,6.14696e-02,9.99999e-01,6.44158e-02,9.54262e-01,9.99999e-01
1.304417533e+00,3.36231e-01,9.99999e-01,3.52021e-01,9.55145e-01,9.99999e-01
1.310939621e+00,6.32571e-02,9.99999e-01,6.61677e-02,9.56011e-01,9.99999e-01
1.317494319e+00,7.01142e-08,9.99999e-01,7.32751e-08,9.56861e-01,9.99999e-01
1.324081790e+00,8.67108e-06,9.99999e-01,9.05411e-06,9.57695e-01,9.99999e-01
1.330702199e+00,1.98071e-03,9.99999e-01,2.06644e-03,9.58513e-01,9.99999e-01
1.337355710e+00,1.45642e-03,9.99999e-01,1.51819e-03,9.59315e-01,9.99999e-01
1.344042489e+00,4.80160e-04,9.99999e-01,5.00113e-04,9.60103e-01,9.99999e-01
1.350762701e+00,1.52556e-03,9.99999e-01,1.58768e-03,9.60875e-01,9.99999e-01
1.357516515e+00,1.39174e-02,9.99999e-01,1.44727e-02,9.61633e-01,9.99999e-01
1.364304097e+00,6.85076e-02,9.99999e-01,7.11858e-02,9.62376e-01,9.99999e-01
1.371125618e+00,2.38853e-01,9.99999e-01,2.48002e-01,9.63106e-01,9.99999e-01
1.377981246e+00,3.15515e-01,9.99999e-01,3.27358e-01,9.63821e-01,9.99999e-01
1.384871152e+00,5.03772e-01,9.99999e-01,5.22301e-01,9.64523e-01,9.99999e-01
1.391795508e+00,5.29873e-01,9.99999e-01,5.48970e-01,9.65211e-01,9.99999e-01
1.398754485e+00,6.68040e-01,9.99999e-01,6.91633e-01,9.65886e-01,9.99999e-01
1.405748258e+00,7.36428e-01,9.99999e-01,7.61915e-01,9.66549e-01,9.99999e-01
1.412776999e+00,8.14891e-01,9.99999e-01,8.42526e-01,9.67199e-01,9.99999e-01
1.419840884e+00,7.51763e-01,9.99999e-01,7.76746e-01,9.67836e-01,9.99999e-01
1.426940089e+00,9.90953e-02,9.99999e-01,1.02322e-01,9.68461e-01,9.99999e-01
1.434074789e+00,7.75187e-305,9.99999e-01,7.99924e-305,9.69074e-01,9.99999e-01
1.441245163e+00,0.00000e+00,9.99999e-01,0.00000e+00,9.69676e-01,9.99999e-01
1.448451389e+00,0.00000e+00,9.99999e-01,0.00000e+00,9.70266e-01,9.99999e-01
1.455693646e+00,1.88816e-165,9.99999e-01,1.94487e-165,9.70844e-01,9.99999e-01
1.462972114e+00,9.61416e-81,9.99999e-01,9.89709e-81,9.71412e-01,9.99999e-01
1.470286975e+00,1.51727e-34,9.99999e-01,1.56102e-34,9.71969e-01,9.99999e-01
