#,Wave/freq,Total,O2,CO2,Rayleigh,CIA
4.000000000e-01,7.41814e-06,9.99999e-01,9.99999e-01,7.41814e-06,9.99999e-01
4.020000000e-01,9.36966e-06,9.99999e-01,9.99999e-01,9.36966e-06,9.99999e-01
4.040100000e-01,1.17773e-05,9.99999e-01,9.99999e-01,1.17773e-05,9.99999e-01
4.060300500e-01,1.47368e-05,9.99999e-01,9.99999e-01,1.47368e-05,9.99999e-01
4.080602003e-01,1.83586e-05,9.99999e-01,9.99999e-01,1.83586e-05,9.99999e-01
4.101005013e-01,2.27715e-05,9.99999e-01,9.99999e-01,2.27715e-05,9.99999e-01
4.121510038e-01,2.81251e-05,9.99999e-01,9.99999e-01,2.81251e-05,9.99999e-01
4.142117588e-01,3.45928e-05,9.99999e-01,9.99999e-01,3.45928e-05,9.99999e-01
4.162828176e-01,4.23742e-05,9.99999e-01,9.99999e-01,4.23742e-05,9.99999e-01
4.183642317e-01,5.16984e-05,9.99999e-01,9.99999e-01,5.16984e-05,9.99999e-01
4.204560528e-01,6.28270e-05,9.99999e-01,9.99999e-01,6.28270e-05,9.99999e-01
4.225583331e-01,7.60578e-05,9.99999e-01,9.99999e-01,7.60578e-05,9.99999e-01
4.246711247e-01,9.17279e-05,9.99999e-01,9.99999e-01,9.17279e-05,9.99999e-01
4.267944804e-01,1.10218e-04,9.99999e-01,9.99999e-01,1.10218e-04,9.99999e-01
4.289284528e-01,1.31955e-04,9.99999e-01,9.99999e-01,1.31955e-04,9.99999e-01
4.310730950e-01,1.57419e-04,9.99999e-01,9.99999e-01,1.57419e-04,9.99999e-01
4.332284605e-01,1.87144e-04,9.99999e-01,9.99999e-01,1.87144e-04,9.99999e-01
4.353946028e-01,2.21722e-04,9.99999e-01,9.99999e-01,2.21722e-04,9.99999e-01
4.375715758e-01,2.61812e-04,9.99999e-01,9.99999e-01,2.61812e-04,9.99999e-01
4.397594337e-01,3.08136e-04,9.99999e-01,9.99999e-01,3.08136e-04,9.99999e-01
4.419582309e-01,3.61492e-04,9.99999e-01,9.99999e-01,3.61492e-04,9.99999e-01
4.441680220e-01,4.22751e-04,9.99999e-01,9.99999e-01,4.22751e-04,9.99999e-01
4.463888621e-01,4.92865e-04,9.99999e-01,9.99999e-01,4.92865e-04,9.99999e-01
4.486208064e-01,5.72868e-04,9.99999e-01,9.99999e-01,5.72868e-04,9.99999e-01
4.508639105e-01,6.63882e-04,9.99999e-01,9.99999e-01,6.63882e-04,9.99999e-01
4.531182300e-01,7.67119e-04,9.99999e-01,9.99999e-01,7.67119e-04,9.99999e-01
4.553838212e-01,8.83882e-04,9.99999e-01,9.99999e-01,8.83882e-04,9.99999e-01
4.576607403e-01,1.01557e-03,9.99999e-01,9.99999e-01,1.01557e-03,9.99999e-01
4.599490440e-01,1.16369e-03,9.99999e-01,9.99999e-01,1.16369e-03,9.99999e-01
4.622487892e-01,1.32982e-03,9.99999e-01,9.99999e-01,1.32982e-03,9.99999e-01
4.645600332e-01,1.51567e-03,9.99999e-01,9.99999e-01,1.51567e-03,9.99999e-01
4.668828333e-01,1.72304e-03,9.99999e-01,9.99999e-01,1.72304e-03,9.99999e-01
4.692172475e-01,1.95382e-03,9.99999e-01,9.99999e-01,1.95382e-03,9.99999e-01
4.715633337e-01,2.21002e-03,9.99999e-01,9.99999e-01,2.21002e-03,9.99999e-01
4.739211504e-01,2.49374e-03,9.99999e-01,9.99999e-01,2.49374e-03,9.99999e-01
4.762907561e-01,2.80718e-03,9.99999e-01,9.99999e-01,2.80718e-03,9.99999e-01
4.786722099e-01,3.15263e-03,9.99999e-01,9.99999e-01,3.15263e-03,9.99999e-01
4.810655710e-01,3.53248e-03,9.99999e-01,9.99999e-01,3.53248e-03,9.99999e-01
4.834708988e-01,3.94922e-03,9.99999e-01,9.99999e-01,3.94922e-03,9.99999e-01
4.858882533e-01,4.40541e-03,9.99999e-01,9.99999e-01,4.40541e-03,9.99999e-01
4.883176946e-01,4.90370e-03,9.99999e-01,9.99999e-01,4.90370e-03,9.99999e-01
4.907592831e-01,5.44680e-03,9.99999e-01,9.99999e-01,5.44680e-03,9.99999e-01
4.932130795e-01,6.03752e-03,9.99999e-01,9.99999e-01,6.03752e-03,9.99999e-01
4.956791449e-01,6.67870e-03,9.99999e-01,9.99999e-01,6.67870e-03,9.99999e-01
4.981575406e-01,7.37326e-03,9.99999e-01,9.99999e-01,7.37326e-03,9.99999e-01
5.006483283e-01,8.12416e-03,9.99999e-01,9.99999e-01,8.12416e-03,9.99999e-01
5.031515699e-01,8.93440e-03,9.99999e-01,9.99999e-01,8.93440e-03,9.99999e-01
5.056673278e-01,9.80702e-03,9.99999e-01,9.99999e-01,9.80702e-03,9.99999e-01
5.081956644e-01,1.07451e-02,9.99999e-01,9.99999e-01,1.07451e-02,9.99999e-01
5.107366428e-01,1.17516e-02,9.99999e-01,9.99999e-01,1.17516e-02,9.99999e-01
5.132903260e-01,1.28297e-02,9.99999e-01,9.99999e-01,1.28297e-02,9.99999e-01
5.158567776e-01,1.39825e-02,9.99999e-01,9.99999e-01,1.39825e-02,9.99999e-01
5.184360615e-01,1.52130e-02,9.99999e-01,9.99999e-01,1.52130e-02,9.99999e-01
5.210282418e-01,1.65242e-02,9.99999e-01,9.99999e-01,1.65242e-02,9.99999e-01
5.236333830e-01,1.79191e-02,9.99999e-01,9.99999e-01,1.79191e-02,9.99999e-01
5.262515499e-01,1.94007e-02,9.99999e-01,9.99999e-01,1.94007e-02,9.99999e-01
5.288828077e-01,2.09719e-02,9.99999e-01,9.99999e-01,2.09719e-02,9.99999e-01
5.315272217e-01,2.26355e-02,9.99999e-01,9.99999e-01,2.26355e-02,9.99999e-01
5.341848578e-01,2.43942e-02,9.99999e-01,9.99999e-01,2.43942e-02,9.99999e-01
5.368557821e-01,2.62508e-02,9.99999e-01,9.99999e-01,2.62508e-02,9.99999e-01
5.395400610e-01,2.82077e-02,9.99999e-01,9.99999e-01,2.82077e-02,9.99999e-01
5.422377613e-01,3.02675e-02,9.99999e-01,9.99999e-01,3.02675e-02,9.99999e-01
5.449489501e-01,3.24326e-02,9.99999e-01,9.99999e-01,3.24326e-02,9.99999e-01
5.476736949e-01,3.47051e-02,9.99999e-01,9.99999e-01,3.47051e-02,9.99999e-01
5.504120634e-01,3.70872e-02,9.99999e-01,9.99999e-01,3.70872e-02,9.99999e-01
5.531641237e-01,3.95809e-02,9.99999e-01,9.99999e-01,3.95809e-02,9.99999e-01
5.559299443e-01,4.21880e-02,9.99999e-01,9.99999e-01,4.21880e-02,9.99999e-01
5.587095940e-01,4.49101e-02,9.99999e-01,9.99999e-01,4.49101e-02,9.99999e-01
5.615031420e-01,4.77490e-02,9.99999e-01,9.99999e-01,4.77490e-02,9.99999e-01
5.643106577e-01,5.07058e-02,9.99999e-01,9.99999e-01,5.07058e-02,9.99999e-01
5.671322110e-01,5.37819e-02,9.99999e-01,9.99999e-01,5.37819e-02,9.99999e-01
5.699678720e-01,5.69782e-02,9.99999e-01,9.99999e-01,5.69782e-02,9.99999e-01
5.728177114e-01,6.02958e-02,9.99999e-01,9.99999e-01,6.02958e-02,9.99999e-01
5.756818000e-01,6.37352e-02,9.99999e-01,9.99999e-01,6.37352e-02,9.99999e-01
5.785602090e-01,6.72970e-02,9.99999e-01,9.99999e-01,6.72970e-02,9.99999e-01
5.814530100e-01,7.09816e-02,9.99999e-01,9.99999e-01,7.09816e-02,9.99999e-01
5.843602750e-01,7.47891e-02,9.99999e-01,9.99999e-01,7.47891e-02,9.99999e-01
5.872820764e-01,7.87196e-02,9.99999e-01,9.99999e-01,7.87196e-02,9.99999e-01
5.902184868e-01,8.27729e-02,9.99999e-01,9.99999e-01,8.27729e-02,9.99999e-01
5.931695792e-01,8.69486e-02,9.99999e-01,9.99999e-01,8.69486e-02,9.99999e-01
5.961354271e-01,9.12461e-02,9.99999e-01,9.99999e-01,9.12461e-02,9.99999e-01
5.991161043e-01,9.56650e-02,9.99999e-01,9.99999e-01,9.56650e-02,9.99999e-01
6.021116848e-01,1.00204e-01,9.99999e-01,9.99999e-01,1.00204e-01,9.99999e-01
6.051222432e-01,1.04863e-01,9.99999e-01,9.99999e-01,1.04863e-01,9.99999e-01
6.081478544e-01,1.09639e-01,9.99999e-01,9.99999e-01,1.09639e-01,9.99999e-01
6.111885937e-01,1.14532e-01,9.99999e-01,9.99999e-01,1.14532e-01,9.99999e-01
6.142445367e-01,1.19541e-01,9.99999e-01,9.99999e-01,1.19541e-01,9.99999e-01
6.173157594e-01,1.24663e-01,9.99999e-01,9.99999e-01,1.24663e-01,9.99999e-01
6.204023382e-01,1.29897e-01,9.99999e-01,9.99999e-01,1.29897e-01,9.99999e-01
6.235043498e-01,1.35241e-01,9.99999e-01,9.99999e-01,1.35241e-01,9.99999e-01
6.266218716e-01,1.40693e-01,9.99999e-01,9.99999e-01,1.40693e-01,9.99999e-01
6.297549810e-01,1.46250e-01,9.99999e-01,9.99999e-01,1.46250e-01,9.99999e-01
6.329037559e-01,1.51910e-01,9.99999e-01,9.99999e-01,1.51910e-01,9.99999e-01
6.360682746e-01,1.57671e-01,9.99999e-01,9.99999e-01,1.57671e-01,9.99999e-01
6.392486160e-01,1.63530e-01,9.99999e-01,9.99999e-01,1.63530e-01,9.99999e-01
6.424448591e-01,1.69485e-01,9.99999e-01,9.99999e-01,1.69485e-01,9.99999e-01
6.456570834e-01,1.75533e-01,9.99999e-01,9.99999e-01,1.75533e-01,9.99999e-01
6.488853688e-01,1.81670e-01,9.99999e-01,9.99999e-01,1.81670e-01,9.99999e-01
6.521297956e-01,1.87895e-01,9.99999e-01,9.99999e-01,1.87895e-01,9.99999e-01
6.553904446e-01,1.94204e-01,9.99999e-01,9.99999e-01,1.94204e-01,9.99999e-01
6.586673968e-01,2.00593e-01,9.99999e-01,9.99999e-01,2.00593e-01,9.99999e-01
6.619607338e-01,2.07060e-01,9.99999e-01,9.99999e-01,2.07060e-01,9.99999e-01
6.652705375e-01,2.13602e-01,9.99999e-01,9.99999e-01,2.13602e-01,9.99999e-01
6.685968902e-01,2.20215e-01,9.99999e-01,9.99999e-01,2.20215e-01,9.99999e-01
6.719398746e-01,2.26897e-01,9.99999e-01,9.99999e-01,2.26897e-01,9.99999e-01
6.752995740e-01,2.33643e-01,9.99999e-01,9.99999e-01,2.33643e-01,9.99999e-01
6.786760719e-01,2.40450e-01,9.99999e-01,9.99999e-01,2.40450e-01,9.99999e-01
6.820694522e-01,2.47315e-01,9.99999e-01,9.99999e-01,2.47315e-01,9.99999e-01
6.854797995e-01,2.54235e-01,9.99999e-01,9.99999e-01,2.54235e-01,9.99999e-01
6.889071985e-01,2.61206e-01,9.99999e-01,9.99999e-01,2.61206e-01,9.99999e-01
6.923517345e-01,2.68225e-01,9.99999e-01,9.99999e-01,2.68225e-01,9.99999e-01
6.958134932e-01,2.75289e-01,9.99999e-01,9.99999e-01,2.75289e-01,9.99999e-01
6.992925606e-01,2.82393e-01,9.99999e-01,9.99999e-01,2.82393e-01,9.99999e-01
7.027890234e-01,2.89535e-01,9.99999e-01,9.99999e-01,2.89535e-01,9.99999e-01
7.063029686e-01,2.96711e-01,9.99999e-01,9.99999e-01,2.96711e-01,9.99999e-01
7.098344834e-01,3.03918e-01,9.99999e-01,9.99999e-01,3.03918e-01,9.99999e-01
7.133836558e-01,3.11152e-01,9.99999e-01,9.99999e-01,3.11152e-01,9.99999e-01
7.169505741e-01,3.18411e-01,9.99999e-01,9.99999e-01,3.18411e-01,9.99999e-01
7.205353270e-01,3.25691e-01,9.99999e-01,9.99999e-01,3.25691e-01,9.99999e-01
7.241380036e-01,3.32988e-01,9.99999e-01,9.99999e-01,3.32988e-01,9.99999e-01
7.277586936e-01,3.40300e-01,9.99999e-01,9.99999e-01,3.40300e-01,9.99999e-01
7.313974871e-01,3.47623e-01,9.99999e-01,9.99999e-01,3.47623e-01,9.99999e-01
7.350544745e-01,3.54955e-01,9.99999e-01,9.99999e-01,3.54955e-01,9.99999e-01
7.387297469e-01,3.62291e-01,9.99999e-01,9.99999e-01,3.62291e-01,9.99999e-01
7.424233956e-01,3.69630e-01,9.99999e-01,9.99999e-01,3.69630e-01,9.99999e-01
7.461355126e-01,3.76969e-01,9.99999e-01,9.99999e-01,3.76969e-01,9.99999e-01
7.498661902e-01,3.84304e-01,9.99999e-01,9.99999e-01,3.84304e-01,9.99999e-01
7.536155211e-01,3.91632e-01,9.99999e-01,9.99999e-01,3.91632e-01,9.99999e-01
7.573835987e-01,3.98951e-01,9.99999e-01,9.99999e-01,3.98951e-01,9.99999e-01
7.611705167e-01,4.06259e-01,9.99999e-01,9.99999e-01,4.06259e-01,9.99999e-01
7.649763693e-01,4.13552e-01,9.99999e-01,9.99999e-01,4.13552e-01,9.99999e-01
7.688012511e-01,4.20828e-01,9.99999e-01,9.99999e-01,4.20828e-01,9.99999e-01
7.726452574e-01,4.28084e-01,9.99999e-01,9.99999e-01,4.28084e-01,9.99999e-01
7.765084837e-01,4.35319e-01,9.99999e-01,9.99999e-01,4.35319e-01,9.99999e-01
7.803910261e-01,4.25834e-01,9.99999e-01,9.62274e-01,4.42529e-01,9.99999e-01
7.842929812e-01,3.78794e-01,9.99999e-01,8.42300e-01,4.49713e-01,9.99999e-01
7.882144461e-01,3.80267e-01,9.99999e-01,8.32333e-01,4.56868e-01,9.99999e-01
7.921555184e-01,4.16723e-01,9.99999e-01,8.98125e-01,4.63992e-01,9.99999e-01
7.961162960e-01,4.38347e-01,9.99999e-01,9.30507e-01,4.71083e-01,9.99999e-01
8.000968774e-01,4.59836e-01,9.99999e-01,9.61718e-01,4.78140e-01,9.99999e-01
8.040973618e-01,4.75445e-01,9.99999e-01,9.79976e-01,4.85159e-01,9.99999e-01
8.081178486e-01,4.87594e-01,9.99999e-01,9.90761e-01,4.92140e-01,9.99999e-01
8.121584379e-01,4.97652e-01,9.99999e-01,9.97136e-01,4.99081e-01,9.99999e-01
8.162192301e-01,5.05659e-01,9.99999e-01,9.99367e-01,5.05980e-01,9.99999e-01
8.203003262e-01,5.12829e-01,9.99999e-01,9.99990e-01,5.12834e-01,9.99999e-01
8.244018279e-01,5.19644e-01,9.99999e-01,9.99999e-01,5.19644e-01,9.99999e-01
8.285238370e-01,5.26406e-01,9.99999e-01,9.99999e-01,5.26406e-01,9.99999e-01
8.326664562e-01,5.33121e-01,9.99999e-01,9.99999e-01,5.33121e-01,9.99999e-01
8.368297885e-01,5.39786e-01,9.99999e-01,9.99999e-01,5.39786e-01,9.99999e-01
8.410139374e-01,5.46400e-01,9.99999e-01,9.99999e-01,5.46400e-01,9.99999e-01
8.452190071e-01,5.52963e-01,9.99999e-01,9.99999e-01,5.52963e-01,9.99999e-01
8.494451021e-01,5.59472e-01,9.99999e-01,9.99999e-01,5.59472e-01,9.99999e-01
8.536923276e-01,5.65927e-01,9.99999e-01,9.99999e-01,5.65927e-01,9.99999e-01
8.579607893e-01,5.72326e-01,9.99999e-01,9.99999e-01,5.72326e-01,9.99999e-01
8.622505932e-01,5.78670e-01,9.99999e-01,9.99999e-01,5.78670e-01,9.99999e-01
8.665618462e-01,5.38016e-01,9.99999e-01,9.19753e-01,5.84956e-01,9.99999e-01
8.708946554e-01,3.82876e-01,9.99999e-01,6.47642e-01,5.91185e-01,9.99999e-01
8.752491287e-01,4.20482e-01,9.99999e-01,7.03906e-01,5.97355e-01,9.99999e-01
8.796253743e-01,4.97369e-01,9.99999e-01,8.24187e-01,6.03465e-01,9.99999e-01
8.840235012e-01,5.51299e-01,9.99999e-01,9.04486e-01,6.09516e-01,9.99999e-01
8.884436187e-01,5.91617e-01,9.99999e-01,9.61188e-01,6.15506e-01,9.99999e-01
8.928858368e-01,6.11552e-01,9.99999e-01,9.84097e-01,6.21434e-01,9.99999e-01
8.973502660e-01,6.24864e-01,9.99999e-01,9.96114e-01,6.27301e-01,9.99999e-01
9.018370173e-01,6.32835e-01,9.99999e-01,9.99570e-01,6.33106e-01,9.99999e-01
9.063462024e-01,6.31871e-01,9.99999e-01,9.89078e-01,6.38848e-01,9.99999e-01
9.108779334e-01,6.28436e-01,9.99999e-01,9.75032e-01,6.44528e-01,9.99999e-01
9.154323231e-01,6.46296e-01,9.99999e-01,9.94080e-01,6.50144e-01,9.99999e-01
9.200094847e-01,6.02036e-01,9.99999e-01,9.18162e-01,6.55697e-01,9.99999e-01
9.246095321e-01,5.84249e-01,9.99999e-01,8.83637e-01,6.61186e-01,9.99999e-01
9.292325798e-01,6.05141e-01,9.99999e-01,9.07786e-01,6.66611e-01,9.99999e-01
9.338787427e-01,6.11886e-01,9.99999e-01,9.10581e-01,6.71973e-01,9.99999e-01
9.385481364e-01,6.32197e-01,9.99999e-01,9.33449e-01,6.77270e-01,9.99999e-01
9.432408771e-01,6.54314e-01,9.99999e-01,9.58696e-01,6.82503e-01,9.99999e-01
9.479570815e-01,6.72955e-01,9.99999e-01,9.78597e-01,6.87672e-01,9.99999e-01
9.526968669e-01,6.85589e-01,9.99999e-01,9.89623e-01,6.92777e-01,9.99999e-01
9.574603512e-01,6.94713e-01,9.99999e-01,9.95550e-01,6.97818e-01,9.99999e-01
9.622476530e-01,7.01819e-01,9.99999e-01,9.98610e-01,7.02795e-01,9.99999e-01
9.670588912e-01,7.07414e-01,9.99999e-01,9.99583e-01,7.07708e-01,9.99999e-01
9.718941857e-01,7.12537e-01,9.99999e-01,9.99970e-01,7.12558e-01,9.99999e-01
9.767536566e-01,7.17344e-01,9.99999e-01,9.99999e-01,7.17344e-01,9.99999e-01
9.816374249e-01,7.22066e-01,9.99999e-01,9.99999e-01,7.22066e-01,9.99999e-01
9.865456120e-01,7.26726e-01,9.99999e-01,9.99999e-01,7.26726e-01,9.99999e-01
9.914783401e-01,7.31322e-01,9.99999e-01,9.99999e-01,7.31322e-01,9.99999e-01
9.964357318e-01,7.35856e-01,9.99999e-01,9.99999e-01,7.35856e-01,9.99999e-01
1.001417910e+00,7.40328e-01,9.99999e-01,9.99999e-01,7.40328e-01,9.99999e-01
1.006425000e+00,7.44737e-01,9.99999e-01,9.99999e-01,7.44737e-01,9.99999e-01
1.011457125e+00,7.49086e-01,9.99999e-01,9.99999e-01,7.49086e-01,9.99999e-01
1.016514411e+00,7.53372e-01,9.99999e-01,9.99999e-01,7.53372e-01,9.99999e-01
1.021596983e+00,7.57555e-01,9.99999e-01,9.99942e-01,7.57599e-01,9.99999e-01
1.026704968e+00,7.58511e-01,9.99999e-01,9.95728e-01,7.61764e-01,9.99999e-01
1.031838492e+00,7.28966e-01,9.99999e-01,9.51814e-01,7.65870e-01,9.99999e-01
1.036997685e+00,1.04384e-01,9.99999e-01,1.35578e-01,7.69915e-01,9.99999e-01
1.042182673e+00,7.08406e-02,9.99999e-01,9.15368e-02,7.73902e-01,9.99999e-01
1.047393587e+00,9.01760e-02,9.99999e-01,1.15933e-01,7.77830e-01,9.99999e-01
1.052630555e+00,1.65205e-03,9.99999e-01,2.11341e-03,7.81700e-01,9.99999e-01
1.057893707e+00,4.48450e-03,9.99999e-01,5.70902e-03,7.85512e-01,9.99999e-01
1.063183176e+00,1.72770e-02,9.99999e-01,2.18900e-02,7.89267e-01,9.99999e-01
1.068499092e+00,5.43891e-02,9.99999e-01,6.85895e-02,7.92965e-01,9.99999e-01
1.073841587e+00,1.46112e-01,9.99999e-01,1.83417e-01,7.96606e-01,9.99999e-01
1.079210795e+00,2.73320e-01,9.99999e-01,3.41568e-01,8.00193e-01,9.99999e-01
1.084606849e+00,4.44258e-01,9.99999e-01,5.52749e-01,8.03723e-01,9.99999e-01
1.090029883e+00,5.93222e-01,9.99999e-01,7.34913e-01,8.07200e-01,9.99999e-01
1.095480033e+00,6.96441e-01,9.99999e-01,8.59144e-01,8.10622e-01,9.99999e-01
1.100957433e+00,7.56563e-01,9.99999e-01,9.29448e-01,8.13991e-01,9.99999e-01
1.106462220e+00,7.92946e-01,9.99999e-01,9.70193e-01,8.17306e-01,9.99999e-01
1.111994531e+00,8.11418e-01,9.99999e-01,9.88846e-01,8.20570e-01,9.99999e-01
1.117554504e+00,8.21529e-01,9.99999e-01,9.97265e-01,8.23781e-01,9.99999e-01
1.123142276e+00,8.26793e-01,9.99999e-01,9.99819e-01,8.26942e-01,9.99999e-01
1.128757988e+00,8.30051e-01,9.99999e-01,9.99999e-01,8.30051e-01,9.99999e-01
1.134401778e+00,8.33111e-01,9.99999e-01,9.99999e-01,8.33111e-01,9.99999e-01
1.140073787e+00,8.36121e-01,9.99999e-01,9.99999e-01,8.36121e-01,9.99999e-01
1.145774156e+00,8.39082e-01,9.99999e-01,9.99999e-01,8.39082e-01,9.99999e-01
1.151503026e+00,8.41995e-01,9.99999e-01,9.99999e-01,8.41995e-01,9.99999e-01
1.157260541e+00,8.44860e-01,9.99999e-01,9.99999e-01,8.44860e-01,9.99999e-01
1.163046844e+00,8.47678e-01,9.99999e-01,9.99999e-01,8.47678e-01,9.99999e-01
1.168862078e+00,8.50450e-01,9.99999e-01,9.99999e-01,8.50450e-01,9.99999e-01
1.174706389e+00,8.53175e-01,9.99999e-01,9.99999e-01,8.53175e-01,9.99999e-01
1.180579921e+00,8.55855e-01,9.99999e-01,9.99999e-01,8.55855e-01,9.99999e-01
1.186482820e+00,8.58484e-01,9.99999e-01,9.99991e-01,8.58491e-01,9.99999e-01
1.192415234e+00,8.48054e-01,9.99999e-01,9.84869e-01,8.61082e-01,9.99999e-01
1.198377311e+00,4.81912e-01,9.99999e-01,5.58007e-01,8.63630e-01,9.99999e-01
1.204369197e+00,1.71699e-12,9.99999e-01,1.98236e-12,8.66134e-01,9.99999e-01
1.210391043e+00,2.98402e-46,9.99999e-01,3.43545e-46,8.68596e-01,9.99999e-01
1.216442998e+00,3.24590e-40,9.99999e-01,3.72656e-40,8.71017e-01,9.99999e-01
1.222525213e+00,1.24173e-39,9.99999e-01,1.42172e-39,8.73396e-01,9.99999e-01
1.228637839e+00,1.06203e-30,9.99999e-01,1.21273e-30,8.75734e-01,9.99999e-01
1.234781029e+00,9.29658e-20,9.99999e-01,1.05880e-19,8.78033e-01,9.99999e-01
1.240954934e+00,2.53194e-13,9.99999e-01,2.87625e-13,8.80291e-01,9.99999e-01
1.247159708e+00,2.91381e-07,9.99999e-01,3.30173e-07,8.82511e-01,9.99999e-01
1.253395507e+00,9.87614e-05,9.99999e-01,1.11633e-04,8.84692e-01,9.99999e-01
1.259662485e+00,4.77806e-03,9.99999e-01,5.38775e-03,8.86836e-01,9.99999e-01
1.265960797e+00,4.35590e-02,9.99999e-01,4.90009e-02,8.88942e-01,9.99999e-01
1.272290601e+00,2.45936e-01,9.99999e-01,2.76019e-01,8.91012e-01,9.99999e-01
1.278652054e+00,2.09967e-01,9.99999e-01,2.35114e-01,8.93045e-01,9.99999e-01
1.285045314e+00,3.35902e-03,9.99999e-01,3.75292e-03,8.95043e-01,9.99999e-01
1.291470541e+00,4.31531e-06,9.99999e-01,4.81079e-06,8.97005e-01,9.99999e-01
1.297927893e+00,2.52596e-03,9.99999e-01,2.80995e-03,8.98933e-01,9.99999e-01
1.304417533e+00,8.62422e-02,9.99999e-01,9.57366e-02,9.00827e-01,9.99999e-01
1.310939621e+00,2.06435e-02,9.99999e-01,2.28689e-02,9.02687e-01,9.99999e-01
1.317494319e+00,2.41886e-16,9.99999e-01,2.67421e-16,9.04514e-01,9.99999e-01
1.324081790e+00,3.17525e-11,9.99999e-01,3.50349e-11,9.06309e-01,9.99999e-01
1.330702199e+00,1.21525e-06,9.99999e-01,1.33827e-06,9.08072e-01,9.99999e-01
1.337355710e+00,1.90913e-06,9.99999e-01,2.09840e-06,9.09803e-01,9.99999e-01
1.344042489e+00,6.04256e-07,9.99999e-01,6.62922e-07,9.11503e-01,9.99999e-01
1.350762701e+00,7.30824e-07,9.99999e-01,8.00311e-07,9.13173e-01,9.99999e-01
1.357516515e+00,1.21877e-04,9.99999e-01,1.33226e-04,9.14813e-01,9.99999e-01
1.364304097e+00,2.55810e-03,9.99999e-01,2.79140e-03,9.16423e-01,9.99999e-01
1.371125618e+00,4.32033e-02,9.99999e-01,4.70622e-02,9.18005e-01,9.99999e-01
1.377981246e+00,7.36539e-02,9.99999e-01,8.00971e-02,9.19557e-01,9.99999e-01
1.384871152e+00,2.11991e-01,9.99999e-01,2.30154e-01,9.21082e-01,9.99999e-01
1.391795508e+00,2.37343e-01,9.99999e-01,2.57260e-01,9.22578e-01,9.99999e-01
1.398754485e+00,3.99214e-01,9.99999e-01,4.32027e-01,9.24048e-01,9.99999e-01
1.405748258e+00,4.99171e-01,9.99999e-01,5.39358e-01,9.25491e-01,9.99999e-01
1.412776999e+00,6.27366e-01,9.99999e-01,6.76837e-01,9.26908e-01,9.99999e-01
1.419840884e+00,5.63662e-01,9.99999e-01,6.07199e-01,9.28298e-01,9.99999e-01
1.426940089e+00,4.73945e-02,9.99999e-01,5.09802e-02,9.29663e-01,9.99999e-01
1.434074789e+00,0.00000e+00,9.99999e-01,0.00000e+00,9.31004e-01,9.99999e-01
1.441245163e+00,0.00000e+00,9.99999e-01,0.00000e+00,9.32319e-01,9.99999e-01
1.448451389e+00,0.00000e+00,9.99999e-01,0.00000e+00,9.33611e-01,9.99999e-01
1.455693646e+00,0.00000e+00,9.99999e-01,0.00000e+00,9.34878e-01,9.99999e-01
1.462972114e+00,7.46006e-181,9.99999e-01,7.96909e-181,9.36123e-01,9.99999e-01
1.470286975e+00,9.66840e-76,9.99999e-01,1.03147e-75,9.37344e-01,9.99999e-01
