#,Wave/freq,Total,O2,CO2,Rayleigh,CIA
4.000000000e-01,2.67139e-06,9.99999e-01,9.99999e-01,2.67139e-06,9.99999e-01
4.020000000e-01,3.44299e-06,9.99999e-01,9.99999e-01,3.44299e-06,9.99999e-01
4.040100000e-01,4.41412e-06,9.99999e-01,9.99999e-01,4.41412e-06,9.99999e-01
4.060300500e-01,5.63147e-06,9.99999e-01,9.99999e-01,5.63147e-06,9.99999e-01
4.080602003e-01,7.15007e-06,9.99999e-01,9.99999e-01,7.15007e-06,9.99999e-01
4.101005013e-01,9.03546e-06,9.99999e-01,9.99999e-01,9.03546e-06,9.99999e-01
4.121510038e-01,1.13654e-05,9.99999e-01,9.99999e-01,1.13654e-05,9.99999e-01
4.142117588e-01,1.42314e-05,9.99999e-01,9.99999e-01,1.42314e-05,9.99999e-01
4.162828176e-01,1.77412e-05,9.99999e-01,9.99999e-01,1.77412e-05,9.99999e-01
4.183642317e-01,2.20205e-05,9.99999e-01,9.99999e-01,2.20205e-05,9.99999e-01
4.204560528e-01,2.72156e-05,9.99999e-01,9.99999e-01,2.72156e-05,9.99999e-01
4.225583331e-01,3.34959e-05,9.99999e-01,9.99999e-01,3.34959e-05,9.99999e-01
4.246711247e-01,4.10567e-05,9.99999e-01,9.99999e-01,4.10567e-05,9.99999e-01
4.267944804e-01,5.01222e-05,9.99999e-01,9.99999e-01,5.01222e-05,9.99999e-01
4.289284528e-01,6.09488e-05,9.99999e-01,9.99999e-01,6.09488e-05,9.99999e-01
4.310730950e-01,7.38283e-05,9.99999e-01,9.99999e-01,7.38283e-05,9.99999e-01
4.332284605e-01,8.90914e-05,9.99999e-01,9.99999e-01,8.90914e-05,9.99999e-01
4.353946028e-01,1.07112e-04,9.99999e-01,9.99999e-01,1.07112e-04,9.99999e-01
4.375715758e-01,1.28309e-04,9.99999e-01,9.99999e-01,1.28309e-04,9.99999e-01
4.397594337e-01,1.53154e-04,9.99999e-01,9.99999e-01,1.53154e-04,9.99999e-01
4.419582309e-01,1.82172e-04,9.99999e-01,9.99999e-01,1.82172e-04,9.99999e-01
4.441680220e-01,2.15947e-04,9.99999e-01,9.99999e-01,2.15947e-04,9.99999e-01
4.463888621e-01,2.55125e-04,9.99999e-01,9.99999e-01,2.55125e-04,9.99999e-01
4.486208064e-01,3.00419e-04,9.99999e-01,9.99999e-01,3.00419e-04,9.99999e-01
4.508639105e-01,3.52615e-04,9.99999e-01,9.99999e-01,3.52615e-04,9.99999e-01
4.531182300e-01,4.12573e-04,9.99999e-01,9.99999e-01,4.12573e-04,9.99999e-01
4.553838212e-01,4.81230e-04,9.99999e-01,9.99999e-01,4.81230e-04,9.99999e-01
4.576607403e-01,5.59609e-04,9.99999e-01,9.99999e-01,5.59609e-04,9.99999e-01
4.599490440e-01,6.48817e-04,9.99999e-01,9.99999e-01,6.48817e-04,9.99999e-01
4.622487892e-01,7.50050e-04,9.99999e-01,9.99999e-01,7.50050e-04,9.99999e-01
4.645600332e-01,8.64600e-04,9.99999e-01,9.99999e-01,8.64600e-04,9.99999e-01
4.668828333e-01,9.93850e-04,9.99999e-01,9.99999e-01,9.93850e-04,9.99999e-01
4.692172475e-01,1.13928e-03,9.99999e-01,9.99999e-01,1.13928e-03,9.99999e-01
4.715633337e-01,1.30248e-03,9.99999e-01,9.99999e-01,1.30248e-03,9.99999e-01
4.739211504e-01,1.48512e-03,9.99999e-01,9.99999e-01,1.48512e-03,9.99999e-01
4.762907561e-01,1.68898e-03,9.99999e-01,9.99999e-01,1.68898e-03,9.99999e-01
4.786722099e-01,1.91596e-03,9.99999e-01,9.99999e-01,1.91596e-03,9.99999e-01
4.810655710e-01,2.16803e-03,9.99999e-01,9.99999e-01,2.16803e-03,9.99999e-01
4.834708988e-01,2.44729e-03,9.99999e-01,9.99999e-01,2.44729e-03,9.99999e-01
4.858882533e-01,2.75591e-03,9.99999e-01,9.99999e-01,2.75591e-03,9.99999e-01
4.883176946e-01,3.09618e-03,9.99999e-01,9.99999e-01,3.09618e-03,9.99999e-01
4.907592831e-01,3.47047e-03,9.99999e-01,9.99999e-01,3.47047e-03,9.99999e-01
4.932130795e-01,3.88125e-03,9.99999e-01,9.99999e-01,3.88125e-03,9.99999e-01
4.956791449e-01,4.33108e-03,9.99999e-01,9.99999e-01,4.33108e-03,9.99999e-01
4.981575406e-01,4.82257e-03,9.99999e-01,9.99999e-01,4.82257e-03,9.99999e-01
5.006483283e-01,5.35846e-03,9.99999e-01,9.99999e-01,5.35846e-03,9.99999e-01
5.031515699e-01,5.94151e-03,9.99999e-01,9.99999e-01,5.94151e-03,9.99999e-01
5.056673278e-01,6.57458e-03,9.99999e-01,9.99999e-01,6.57458e-03,9.99999e-01
5.081956644e-01,7.26057e-03,9.99999e-01,9.99999e-01,7.26057e-03,9.99999e-01
5.107366428e-01,8.00242e-03,9.99999e-01,9.99999e-01,8.00242e-03,9.99999e-01
5.132903260e-01,8.80315e-03,9.99999e-01,9.99999e-01,8.80315e-03,9.99999e-01
5.158567776e-01,9.66577e-03,9.99999e-01,9.99999e-01,9.66577e-03,9.99999e-01
5.184360615e-01,1.05933e-02,9.99999e-01,9.99999e-01,1.05933e-02,9.99999e-01
5.210282418e-01,1.15889e-02,9.99999e-01,9.99999e-01,1.15889e-02,9.99999e-01
5.236333830e-01,1.26556e-02,9.99999e-01,9.99999e-01,1.26556e-02,9.99999e-01
5.262515499e-01,1.37965e-02,9.99999e-01,9.99999e-01,1.37965e-02,9.99999e-01
5.288828077e-01,1.50146e-02,9.99999e-01,9.99999e-01,1.50146e-02,9.99999e-01
5.315272217e-01,1.63129e-02,9.99999e-01,9.99999e-01,1.63129e-02,9.99999e-01
5.341848578e-01,1.76945e-02,9.99999e-01,9.99999e-01,1.76945e-02,9.99999e-01
5.368557821e-01,1.91623e-02,9.99999e-01,9.99999e-01,1.91623e-02,9.99999e-01
5.395400610e-01,2.07192e-02,9.99999e-01,9.99999e-01,2.07192e-02,9.99999e-01
5.422377613e-01,2.23681e-02,9.99999e-01,9.99999e-01,2.23681e-02,9.99999e-01
5.449489501e-01,2.41117e-02,9.99999e-01,9.99999e-01,2.41117e-02,9.99999e-01
5.476736949e-01,2.59527e-02,9.99999e-01,9.99999e-01,2.59527e-02,9.99999e-01
5.504120634e-01,2.78937e-02,9.99999e-01,9.99999e-01,2.78937e-02,9.99999e-01
5.531641237e-01,2.99372e-02,9.99999e-01,9.99999e-01,2.99372e-02,9.99999e-01
5.559299443e-01,3.20856e-02,9.99999e-01,9.99999e-01,3.20856e-02,9.99999e-01
5.587095940e-01,3.43411e-02,9.99999e-01,9.99999e-01,3.43411e-02,9.99999e-01
5.615031420e-01,3.67059e-02,9.99999e-01,9.99999e-01,3.67059e-02,9.99999e-01
5.643106577e-01,3.91819e-02,9.99999e-01,9.99999e-01,3.91819e-02,9.99999e-01
5.671322110e-01,4.17711e-02,9.99999e-01,9.99999e-01,4.17711e-02,9.99999e-01
5.699678720e-01,4.44751e-02,9.99999e-01,9.99999e-01,4.44751e-02,9.99999e-01
5.728177114e-01,4.72955e-02,9.99999e-01,9.99999e-01,4.72955e-02,9.99999e-01
5.756818000e-01,5.02337e-02,9.99999e-01,9.99999e-01,5.02337e-02,9.99999e-01
5.785602090e-01,5.32910e-02,9.99999e-01,9.99999e-01,5.32910e-02,9.99999e-01
5.814530100e-01,5.64684e-02,9.99999e-01,9.99999e-01,5.64684e-02,9.99999e-01
5.843602750e-01,5.97669e-02,9.99999e-01,9.99999e-01,5.97669e-02,9.99999e-01
5.872820764e-01,6.31871e-02,9.99999e-01,9.99999e-01,6.31871e-02,9.99999e-01
5.902184868e-01,6.67297e-02,9.99999e-01,9.99999e-01,6.67297e-02,9.99999e-01
5.931695792e-01,7.03950e-02,9.99999e-01,9.99999e-01,7.03950e-02,9.99999e-01
5.961354271e-01,7.41832e-02,9.99999e-01,9.99999e-01,7.41832e-02,9.99999e-01
5.991161043e-01,7.80944e-02,9.99999e-01,9.99999e-01,7.80944e-02,9.99999e-01
6.021116848e-01,8.21284e-02,9.99999e-01,9.99999e-01,8.21284e-02,9.99999e-01
6.051222432e-01,8.62849e-02,9.99999e-01,9.99999e-01,8.62849e-02,9.99999e-01
6.081478544e-01,9.05634e-02,9.99999e-01,9.99999e-01,9.05634e-02,9.99999e-01
6.111885937e-01,9.49632e-02,9.99999e-01,9.99999e-01,9.49632e-02,9.99999e-01
6.142445367e-01,9.94836e-02,9.99999e-01,9.99999e-01,9.94836e-02,9.99999e-01
6.173157594e-01,1.04123e-01,9.99999e-01,9.99999e-01,1.04123e-01,9.99999e-01
6.204023382e-01,1.08881e-01,9.99999e-01,9.99999e-01,1.08881e-01,9.99999e-01
6.235043498e-01,1.13757e-01,9.99999e-01,9.99999e-01,1.13757e-01,9.99999e-01
6.266218716e-01,1.18747e-01,9.99999e-01,9.99999e-01,1.18747e-01,9.99999e-01
6.297549810e-01,1.23852e-01,9.99999e-01,9.99999e-01,1.23852e-01,9.99999e-01
6.329037559e-01,1.29068e-01,9.99999e-01,9.99999e-01,1.29068e-01,9.99999e-01
6.360682746e-01,1.34395e-01,9.99999e-01,9.99999e-01,1.34395e-01,9.99999e-01
6.392486160e-01,1.39830e-01,9.99999e-01,9.99999e-01,1.39830e-01,9.99999e-01
6.424448591e-01,1.45370e-01,9.99999e-01,9.99999e-01,1.45370e-01,9.99999e-01
6.456570834e-01,1.51015e-01,9.99999e-01,9.99999e-01,1.51015e-01,9.99999e-01
6.488853688e-01,1.56760e-01,9.99999e-01,9.99999e-01,1.56760e-01,9.99999e-01
6.521297956e-01,1.62604e-01,9.99999e-01,9.99999e-01,1.62604e-01,9.99999e-01
6.553904446e-01,1.68544e-01,9.99999e-01,9.99999e-01,1.68544e-01,9.99999e-01
6.586673968e-01,1.74577e-01,9.99999e-01,9.99999e-01,1.74577e-01,9.99999e-01
6.619607338e-01,1.80701e-01,9.99999e-01,9.99999e-01,1.80701e-01,9.99999e-01
6.652705375e-01,1.86912e-01,9.99999e-01,9.99999e-01,1.86912e-01,9.99999e-01
6.685968902e-01,1.93208e-01,9.99999e-01,9.99999e-01,1.93208e-01,9.99999e-01
6.719398746e-01,1.99585e-01,9.99999e-01,9.99999e-01,1.99585e-01,9.99999e-01
6.752995740e-01,2.06040e-01,9.99999e-01,9.99999e-01,2.06040e-01,9.99999e-01
6.786760719e-01,2.12570e-01,9.99999e-01,9.99999e-01,2.12570e-01,9.99999e-01
6.820694522e-01,2.19172e-01,9.99999e-01,9.99999e-01,2.19172e-01,9.99999e-01
6.854797995e-01,2.25843e-01,9.99999e-01,9.99999e-01,2.25843e-01,9.99999e-01
6.889071985e-01,2.32579e-01,9.99999e-01,9.99999e-01,2.32579e-01,9.99999e-01
6.923517345e-01,2.39377e-01,9.99999e-01,9.99999e-01,2.39377e-01,9.99999e-01
6.958134932e-01,2.46234e-01,9.99999e-01,9.99999e-01,2.46234e-01,9.99999e-01
6.992925606e-01,2.53145e-01,9.99999e-01,9.99999e-01,2.53145e-01,9.99999e-01
7.027890234e-01,2.60109e-01,9.99999e-01,9.99999e-01,2.60109e-01,9.99999e-01
7.063029686e-01,2.67120e-01,9.99999e-01,9.99999e-01,2.67120e-01,9.99999e-01
7.098344834e-01,2.74177e-01,9.99999e-01,9.99999e-01,2.74177e-01,9.99999e-01
7.133836558e-01,2.81275e-01,9.99999e-01,9.99999e-01,2.81275e-01,9.99999e-01
7.169505741e-01,2.88411e-01,9.99999e-01,9.99999e-01,2.88411e-01,9.99999e-01
7.205353270e-01,2.95582e-01,9.99999e-01,9.99999e-01,2.95582e-01,9.99999e-01
7.241380036e-01,3.02785e-01,9.99999e-01,9.99999e-01,3.02785e-01,9.99999e-01
7.277586936e-01,3.10015e-01,9.99999e-01,9.99999e-01,3.10015e-01,9.99999e-01
7.313974871e-01,3.17270e-01,9.99999e-01,9.99999e-01,3.17270e-01,9.99999e-01
7.350544745e-01,3.24547e-01,9.99999e-01,9.99999e-01,3.24547e-01,9.99999e-01
7.387297469e-01,3.31841e-01,9.99999e-01,9.99999e-01,3.31841e-01,9.99999e-01
7.424233956e-01,3.39151e-01,9.99999e-01,9.99999e-01,3.39151e-01,9.99999e-01
7.461355126e-01,3.46473e-01,9.99999e-01,9.99999e-01,3.46473e-01,9.99999e-01
7.498661902e-01,3.53803e-01,9.99999e-01,9.99999e-01,3.53803e-01,9.99999e-01
7.536155211e-01,3.61139e-01,9.99999e-01,9.99999e-01,3.61139e-01,9.99999e-01
7.573835987e-01,3.68478e-01,9.99999e-01,9.99999e-01,3.68478e-01,9.99999e-01
7.611705167e-01,3.75817e-01,9.99999e-01,9.99999e-01,3.75817e-01,9.99999e-01
7.649763693e-01,3.83152e-01,9.99999e-01,9.99999e-01,3.83152e-01,9.99999e-01
7.688012511e-01,3.90482e-01,9.99999e-01,9.99999e-01,3.90482e-01,9.99999e-01
7.726452574e-01,3.97803e-01,9.99999e-01,9.99999e-01,3.97803e-01,9.99999e-01
7.765084837e-01,4.05112e-01,9.99999e-01,9.99999e-01,4.05112e-01,9.99999e-01
7.803910261e-01,3.95284e-01,9.99999e-01,9.58477e-01,4.12408e-01,9.99999e-01
7.842929812e-01,3.48688e-01,9.99999e-01,8.30828e-01,4.19687e-01,9.99999e-01
7.882144461e-01,3.49967e-01,9.99999e-01,8.19698e-01,4.26946e-01,9.99999e-01
7.921555184e-01,3.86336e-01,9.99999e-01,8.89796e-01,4.34184e-01,9.99999e-01
7.961162960e-01,4.08293e-01,9.99999e-01,9.24997e-01,4.41399e-01,9.99999e-01
8.000968774e-01,4.30004e-01,9.99999e-01,9.58573e-01,4.48587e-01,9.99999e-01
8.040973618e-01,4.45887e-01,9.99999e-01,9.78366e-01,4.55747e-01,9.99999e-01
8.081178486e-01,4.58242e-01,9.99999e-01,9.89989e-01,4.62876e-01,9.99999e-01
8.121584379e-01,4.68522e-01,9.99999e-01,9.96913e-01,4.69972e-01,9.99999e-01
8.162192301e-01,4.76709e-01,9.99999e-01,9.99317e-01,4.77034e-01,9.99999e-01
8.203003262e-01,4.84055e-01,9.99999e-01,9.99989e-01,4.84060e-01,9.99999e-01
8.244018279e-01,4.91047e-01,9.99999e-01,9.99999e-01,4.91047e-01,9.99999e-01
8.285238370e-01,4.97994e-01,9.99999e-01,9.99999e-01,4.97994e-01,9.99999e-01
8.326664562e-01,5.04899e-01,9.99999e-01,9.99999e-01,5.04899e-01,9.99999e-01
8.368297885e-01,5.11761e-01,9.99999e-01,9.99999e-01,5.11761e-01,9.99999e-01
8.410139374e-01,5.18578e-01,9.99999e-01,9.99999e-01,5.18578e-01,9.99999e-01
8.452190071e-01,5.25348e-01,9.99999e-01,9.99999e-01,5.25348e-01,9.99999e-01
8.494451021e-01,5.32070e-01,9.99999e-01,9.99999e-01,5.32070e-01,9.99999e-01
8.536923276e-01,5.38743e-01,9.99999e-01,9.99999e-01,5.38743e-01,9.99999e-01
8.579607893e-01,5.45365e-01,9.99999e-01,9.99999e-01,5.45365e-01,9.99999e-01
8.622505932e-01,5.51936e-01,9.99999e-01,9.99999e-01,5.51936e-01,9.99999e-01
8.665618462e-01,5.10555e-01,9.99999e-01,9.14230e-01,5.58453e-01,9.99999e-01
8.708946554e-01,3.53208e-01,9.99999e-01,6.25238e-01,5.64917e-01,9.99999e-01
8.752491287e-01,3.90948e-01,9.99999e-01,6.84283e-01,5.71325e-01,9.99999e-01
8.796253743e-01,4.68674e-01,9.99999e-01,8.11306e-01,5.77678e-01,9.99999e-01
8.840235012e-01,5.23832e-01,9.99999e-01,8.97012e-01,5.83973e-01,9.99999e-01
8.884436187e-01,5.65495e-01,9.99999e-01,9.58122e-01,5.90211e-01,9.99999e-01
8.928858368e-01,5.86136e-01,9.99999e-01,9.82806e-01,5.96390e-01,9.99999e-01
8.973502660e-01,5.99986e-01,9.99999e-01,9.95810e-01,6.02510e-01,9.99999e-01
9.018370173e-01,6.08289e-01,9.99999e-01,9.99537e-01,6.08570e-01,9.99999e-01
9.063462024e-01,6.07208e-01,9.99999e-01,9.88022e-01,6.14569e-01,9.99999e-01
9.108779334e-01,6.03741e-01,9.99999e-01,9.72979e-01,6.20508e-01,9.99999e-01
9.154323231e-01,6.22392e-01,9.99999e-01,9.93625e-01,6.26384e-01,9.99999e-01
9.200094847e-01,5.76158e-01,9.99999e-01,9.11356e-01,6.32199e-01,9.99999e-01
9.246095321e-01,5.57908e-01,9.99999e-01,8.74530e-01,6.37951e-01,9.99999e-01
9.292325798e-01,5.79263e-01,9.99999e-01,8.99979e-01,6.43640e-01,9.99999e-01
9.338787427e-01,5.86599e-01,9.99999e-01,9.03478e-01,6.49267e-01,9.99999e-01
9.385481364e-01,6.07708e-01,9.99999e-01,9.28039e-01,6.54829e-01,9.99999e-01
9.432408771e-01,6.30843e-01,9.99999e-01,9.55347e-01,6.60328e-01,9.99999e-01
9.479570815e-01,6.50326e-01,9.99999e-01,9.76811e-01,6.65764e-01,9.99999e-01
9.526968669e-01,6.63596e-01,9.99999e-01,9.88766e-01,6.71135e-01,9.99999e-01
9.574603512e-01,6.73185e-01,9.99999e-01,9.95183e-01,6.76443e-01,9.99999e-01
9.622476530e-01,6.80661e-01,9.99999e-01,9.98496e-01,6.81686e-01,9.99999e-01
9.670588912e-01,6.86556e-01,9.99999e-01,9.99549e-01,6.86865e-01,9.99999e-01
9.718941857e-01,6.91958e-01,9.99999e-01,9.99968e-01,6.91980e-01,9.99999e-01
9.767536566e-01,6.97031e-01,9.99999e-01,9.99999e-01,6.97031e-01,9.99999e-01
9.816374249e-01,7.02018e-01,9.99999e-01,9.99999e-01,7.02018e-01,9.99999e-01
9.865456120e-01,7.06941e-01,9.99999e-01,9.99999e-01,7.06941e-01,9.99999e-01
9.914783401e-01,7.11801e-01,9.99999e-01,9.99999e-01,7.11801e-01,9.99999e-01
9.964357318e-01,7.16596e-01,9.99999e-01,9.99999e-01,7.16596e-01,9.99999e-01
1.001417910e+00,7.21329e-01,9.99999e-01,9.99999e-01,7.21329e-01,9.99999e-01
1.006425000e+00,7.25998e-01,9.99999e-01,9.99999e-01,7.25998e-01,9.99999e-01
1.011457125e+00,7.30605e-01,9.99999e-01,9.99999e-01,7.30605e-01,9.99999e-01
1.016514411e+00,7.35148e-01,9.99999e-01,9.99999e-01,7.35148e-01,9.99999e-01
1.021596983e+00,7.39579e-01,9.99999e-01,9.99931e-01,7.39630e-01,9.99999e-01
1.026704968e+00,7.40552e-01,9.99999e-01,9.95299e-01,7.44049e-01,9.99999e-01
1.031838492e+00,7.08723e-01,9.99999e-01,9.46975e-01,7.48407e-01,9.99999e-01
1.036997685e+00,9.37301e-02,9.99999e-01,1.24524e-01,7.52704e-01,9.99999e-01
1.042182673e+00,5.77788e-02,9.99999e-01,7.63320e-02,7.56939e-01,9.99999e-01
1.047393587e+00,7.62576e-02,9.99999e-01,1.00192e-01,7.61114e-01,9.99999e-01
1.052630555e+00,1.05194e-03,9.99999e-01,1.37468e-03,7.65229e-01,9.99999e-01
1.057893707e+00,3.00912e-03,9.99999e-01,3.91158e-03,7.69284e-01,9.99999e-01
1.063183176e+00,1.26887e-02,9.99999e-01,1.64089e-02,7.73280e-01,9.99999e-01
1.068499092e+00,4.27047e-02,9.99999e-01,5.49455e-02,7.77217e-01,9.99999e-01
1.073841587e+00,1.24669e-01,9.99999e-01,1.59608e-01,7.81096e-01,9.99999e-01
1.079210795e+00,2.45479e-01,9.99999e-01,3.12745e-01,7.84917e-01,9.99999e-01
1.084606849e+00,4.15054e-01,9.99999e-01,5.26263e-01,7.88681e-01,9.99999e-01
1.090029883e+00,5.67461e-01,9.99999e-01,7.16140e-01,7.92388e-01,9.99999e-01
1.095480033e+00,6.75317e-01,9.99999e-01,8.48346e-01,7.96038e-01,9.99999e-01
1.100957433e+00,7.38672e-01,9.99999e-01,9.23763e-01,7.99633e-01,9.99999e-01
1.106462220e+00,7.77278e-01,9.99999e-01,9.67759e-01,8.03173e-01,9.99999e-01
1.111994531e+00,7.96918e-01,9.99999e-01,9.87925e-01,8.06658e-01,9.99999e-01
1.117554504e+00,8.07696e-01,9.99999e-01,9.97046e-01,8.10088e-01,9.99999e-01
1.123142276e+00,8.13308e-01,9.99999e-01,9.99806e-01,8.13465e-01,9.99999e-01
1.128757988e+00,8.16789e-01,9.99999e-01,9.99999e-01,8.16789e-01,9.99999e-01
1.134401778e+00,8.20061e-01,9.99999e-01,9.99999e-01,8.20061e-01,9.99999e-01
1.140073787e+00,8.23280e-01,9.99999e-01,9.99999e-01,8.23280e-01,9.99999e-01
1.145774156e+00,8.26449e-01,9.99999e-01,9.99999e-01,8.26449e-01,9.99999e-01
1.151503026e+00,8.29566e-01,9.99999e-01,9.99999e-01,8.29566e-01,9.99999e-01
1.157260541e+00,8.32634e-01,9.99999e-01,9.99999e-01,8.32634e-01,9.99999e-01
1.163046844e+00,8.35652e-01,9.99999e-01,9.99999e-01,8.35652e-01,9.99999e-01
1.168862078e+00,8.38620e-01,9.99999e-01,9.99999e-01,8.38620e-01,9.99999e-01
1.174706389e+00,8.41541e-01,9.99999e-01,9.99999e-01,8.41541e-01,9.99999e-01
1.180579921e+00,8.44413e-01,9.99999e-01,9.99999e-01,8.44413e-01,9.99999e-01
1.186482820e+00,8.47231e-01,9.99999e-01,9.99989e-01,8.47239e-01,9.99999e-01
1.192415234e+00,8.35864e-01,9.99999e-01,9.83348e-01,8.50018e-01,9.99999e-01
1.198377311e+00,4.73360e-01,9.99999e-01,5.55097e-01,8.52750e-01,9.99999e-01
1.204369197e+00,2.22824e-13,9.99999e-01,2.60480e-13,8.55437e-01,9.99999e-01
1.210391043e+00,4.62297e-50,9.99999e-01,5.38757e-50,8.58080e-01,9.99999e-01
1.216442998e+00,1.67543e-43,9.99999e-01,1.94664e-43,8.60678e-01,9.99999e-01
1.222525213e+00,7.19795e-43,9.99999e-01,8.33837e-43,8.63232e-01,9.99999e-01
1.228637839e+00,3.31302e-33,9.99999e-01,3.82679e-33,8.65744e-01,9.99999e-01
1.234781029e+00,2.83356e-21,9.99999e-01,3.26367e-21,8.68213e-01,9.99999e-01
1.240954934e+00,2.56820e-14,9.99999e-01,2.94978e-14,8.70640e-01,9.99999e-01
1.247159708e+00,1.05227e-07,9.99999e-01,1.20532e-07,8.73025e-01,9.99999e-01
1.253395507e+00,4.82121e-05,9.99999e-01,5.50763e-05,8.75370e-01,9.99999e-01
1.259662485e+00,3.14970e-03,9.99999e-01,3.58868e-03,8.77674e-01,9.99999e-01
1.265960797e+00,3.45600e-02,9.99999e-01,3.92754e-02,8.79939e-01,9.99999e-01
1.272290601e+00,2.19268e-01,9.99999e-01,2.48557e-01,8.82165e-01,9.99999e-01
1.278652054e+00,1.85561e-01,9.99999e-01,2.09827e-01,8.84353e-01,9.99999e-01
1.285045314e+00,2.51886e-03,9.99999e-01,2.84135e-03,8.86502e-01,9.99999e-01
1.291470541e+00,1.60200e-06,9.99999e-01,1.80281e-06,8.88614e-01,9.99999e-01
1.297927893e+00,3.93659e-03,9.99999e-01,4.41970e-03,8.90689e-01,9.99999e-01
1.304417533e+00,7.03219e-02,9.99999e-01,7.87719e-02,8.92728e-01,9.99999e-01
1.310939621e+00,1.63390e-02,9.99999e-01,1.82614e-02,8.94731e-01,9.99999e-01
1.317494319e+00,1.24465e-17,9.99999e-01,1.38803e-17,8.96699e-01,9.99999e-01
1.324081790e+00,4.86518e-12,9.99999e-01,5.41398e-12,8.98632e-01,9.99999e-01
1.330702199e+00,3.95410e-07,9.99999e-01,4.39084e-07,9.00532e-01,9.99999e-01
1.337355710e+00,7.16326e-07,9.99999e-01,7.93803e-07,9.02397e-01,9.99999e-01
1.344042489e+00,2.30896e-07,9.99999e-01,2.55351e-07,9.04230e-01,9.99999e-01
1.350762701e+00,2.36265e-07,9.99999e-01,2.60769e-07,9.06029e-01,9.99999e-01
1.357516515e+00,6.28192e-05,9.99999e-01,6.91995e-05,9.07797e-01,9.99999e-01
1.364304097e+00,1.57004e-03,9.99999e-01,1.72620e-03,9.09533e-01,9.99999e-01
1.371125618e+00,3.37292e-02,9.99999e-01,3.70146e-02,9.11239e-01,9.99999e-01
1.377981246e+00,5.91064e-02,9.99999e-01,6.47447e-02,9.12913e-01,9.99999e-01
1.384871152e+00,1.86041e-01,9.99999e-01,2.03422e-01,9.14558e-01,9.99999e-01
1.391795508e+00,2.10429e-01,9.99999e-01,2.29682e-01,9.16172e-01,9.99999e-01
1.398754485e+00,3.69185e-01,9.99999e-01,4.02268e-01,9.17758e-01,9.99999e-01
1.405748258e+00,4.70928e-01,9.99999e-01,5.12259e-01,9.19315e-01,9.99999e-01
1.412776999e+00,6.03240e-01,9.99999e-01,6.55093e-01,9.20844e-01,9.99999e-01
1.419840884e+00,5.38691e-01,9.99999e-01,5.84044e-01,9.22345e-01,9.99999e-01
1.426940089e+00,4.22066e-02,9.99999e-01,4.56870e-02,9.23819e-01,9.99999e-01
1.434074789e+00,0.00000e+00,9.99999e-01,0.00000e+00,9.25266e-01,9.99999e-01
1.441245163e+00,0.00000e+00,9.99999e-01,0.00000e+00,9.26687e-01,9.99999e-01
1.448451389e+00,0.00000e+00,9.99999e-01,0.00000e+00,9.28082e-01,9.99999e-01
1.455693646e+00,0.00000e+00,9.99999e-01,0.00000e+00,9.29451e-01,9.99999e-01
1.462972114e+00,2.56286e-196,9.99999e-01,2.75341e-196,9.30795e-01,9.99999e-01
1.470286975e+00,4.19044e-82,9.99999e-01,4.49563e-82,9.32114e-01,9.99999e-01
