#,Wave/freq,Total,O2,CO2,Rayleigh,CIA
4.000000000e-01,5.66637e-15,9.99999e-01,9.99999e-01,5.66637e-15,9.99999e-01
4.020000000e-01,1.08391e-14,9.99999e-01,9.99999e-01,1.08391e-14,9.99999e-01
4.040100000e-01,2.04568e-14,9.99999e-01,9.99999e-01,2.04568e-14,9.99999e-01
4.060300500e-01,3.81270e-14,9.99999e-01,9.99999e-01,3.81270e-14,9.99999e-01
4.080602003e-01,7.01918e-14,9.99999e-01,9.99999e-01,7.01918e-14,9.99999e-01
4.101005013e-01,1.27675e-13,9.99999e-01,9.99999e-01,1.27675e-13,9.99999e-01
4.121510038e-01,2.29505e-13,9.99999e-01,9.99999e-01,2.29505e-13,9.99999e-01
4.142117588e-01,4.07800e-13,9.99999e-01,9.99999e-01,4.07800e-13,9.99999e-01
4.162828176e-01,7.16426e-13,9.99999e-01,9.99999e-01,7.16426e-13,9.99999e-01
4.183642317e-01,1.24469e-12,9.99999e-01,9.99999e-01,1.24469e-12,9.99999e-01
4.204560528e-01,2.13902e-12,9.99999e-01,9.99999e-01,2.13902e-12,9.99999e-01
4.225583331e-01,3.63681e-12,9.99999e-01,9.99999e-01,3.63681e-12,9.99999e-01
4.246711247e-01,6.11893e-12,9.99999e-01,9.99999e-01,6.11893e-12,9.99999e-01
4.267944804e-01,1.01898e-11,9.99999e-01,9.99999e-01,1.01898e-11,9.99999e-01
4.289284528e-01,1.67990e-11,9.99999e-01,9.99999e-01,1.67990e-11,9.99999e-01
4.310730950e-01,2.74227e-11,9.99999e-01,9.99999e-01,2.74227e-11,9.99999e-01
4.332284605e-01,4.43336e-11,9.99999e-01,9.99999e-01,4.43336e-11,9.99999e-01
4.353946028e-01,7.09963e-11,9.99999e-01,9.99999e-01,7.09963e-11,9.99999e-01
4.375715758e-01,1.12642e-10,9.99999e-01,9.99999e-01,1.12642e-10,9.99999e-01
4.397594337e-01,1.77093e-10,9.99999e-01,9.99999e-01,1.77093e-10,9.99999e-01
4.419582309e-01,2.75946e-10,9.99999e-01,9.99999e-01,2.75946e-10,9.99999e-01
4.441680220e-01,4.26228e-10,9.99999e-01,9.99999e-01,4.26228e-10,9.99999e-01
4.463888621e-01,6.52724e-10,9.99999e-01,9.99999e-01,6.52724e-10,9.99999e-01
4.486208064e-01,9.91201e-10,9.99999e-01,9.99999e-01,9.91201e-10,9.99999e-01
4.508639105e-01,1.49283e-09,9.99999e-01,9.99999e-01,1.49283e-09,9.99999e-01
4.531182300e-01,2.23021e-09,9.99999e-01,9.99999e-01,2.23021e-09,9.99999e-01
4.553838212e-01,3.30550e-09,9.99999e-01,9.99999e-01,3.30550e-09,9.99999e-01
4.576607403e-01,4.86130e-09,9.99999e-01,9.99999e-01,4.86130e-09,9.99999e-01
4.599490440e-01,7.09512e-09,9.99999e-01,9.99999e-01,7.09512e-09,9.99999e-01
4.622487892e-01,1.02784e-08,9.99999e-01,9.99999e-01,1.02784e-08,9.99999e-01
4.645600332e-01,1.47811e-08,9.99999e-01,9.99999e-01,1.47811e-08,9.99999e-01
4.668828333e-01,2.11045e-08,9.99999e-01,9.99999e-01,2.11045e-08,9.99999e-01
4.692172475e-01,2.99218e-08,9.99999e-01,9.99999e-01,2.99218e-08,9.99999e-01
4.715633337e-01,4.21314e-08,9.99999e-01,9.99999e-01,4.21314e-08,9.99999e-01
4.739211504e-01,5.89235e-08,9.99999e-01,9.99999e-01,5.89235e-08,9.99999e-01
4.762907561e-01,8.18640e-08,9.99999e-01,9.99999e-01,8.18640e-08,9.99999e-01
4.786722099e-01,1.13000e-07,9.99999e-01,9.99999e-01,1.13000e-07,9.99999e-01
4.810655710e-01,1.54987e-07,9.99999e-01,9.99999e-01,1.54987e-07,9.99999e-01
4.834708988e-01,2.11254e-07,9.99999e-01,9.99999e-01,2.11254e-07,9.99999e-01
4.858882533e-01,2.86191e-07,9.99999e-01,9.99999e-01,2.86191e-07,9.99999e-01
4.883176946e-01,3.85393e-07,9.99999e-01,9.99999e-01,3.85393e-07,9.99999e-01
4.907592831e-01,5.15938e-07,9.99999e-01,9.99999e-01,5.15938e-07,9.99999e-01
4.932130795e-01,6.86735e-07,9.99999e-01,9.99999e-01,6.86735e-07,9.99999e-01
4.956791449e-01,9.08925e-07,9.99999e-01,9.99999e-01,9.08925e-07,9.99999e-01
4.981575406e-01,1.19636e-06,9.99999e-01,9.99999e-01,1.19636e-06,9.99999e-01
5.006483283e-01,1.56617e-06,9.99999e-01,9.99999e-01,1.56617e-06,9.99999e-01
5.031515699e-01,2.03941e-06,9.99999e-01,9.99999e-01,2.03941e-06,9.99999e-01
5.056673278e-01,2.64184e-06,9.99999e-01,9.99999e-01,2.64184e-06,9.99999e-01
5.081956644e-01,3.40477e-06,9.99999e-01,9.99999e-01,3.40477e-06,9.99999e-01
5.107366428e-01,4.36609e-06,9.99999e-01,9.99999e-01,4.36609e-06,9.99999e-01
5.132903260e-01,5.57140e-06,9.99999e-01,9.99999e-01,5.57140e-06,9.99999e-01
5.158567776e-01,7.07529e-06,9.99999e-01,9.99999e-01,7.07529e-06,9.99999e-01
5.184360615e-01,8.94282e-06,9.99999e-01,9.99999e-01,8.94282e-06,9.99999e-01
5.210282418e-01,1.12511e-05,9.99999e-01,9.99999e-01,1.12511e-05,9.99999e-01
5.236333830e-01,1.40912e-05,9.99999e-01,9.99999e-01,1.40912e-05,9.99999e-01
5.262515499e-01,1.75698e-05,9.99999e-01,9.99999e-01,1.75698e-05,9.99999e-01
5.288828077e-01,2.18120e-05,9.99999e-01,9.99999e-01,2.18120e-05,9.99999e-01
5.315272217e-01,2.69629e-05,9.99999e-01,9.99999e-01,2.69629e-05,9.99999e-01
5.341848578e-01,3.31910e-05,9.99999e-01,9.99999e-01,3.31910e-05,9.99999e-01
5.368557821e-01,4.06904e-05,9.99999e-01,9.99999e-01,4.06904e-05,9.99999e-01
5.395400610e-01,4.96838e-05,9.99999e-01,9.99999e-01,4.96838e-05,9.99999e-01
5.422377613e-01,6.04262e-05,9.99999e-01,9.99999e-01,6.04262e-05,9.99999e-01
5.449489501e-01,7.32077e-05,9.99999e-01,9.99999e-01,7.32077e-05,9.99999e-01
5.476736949e-01,8.83572e-05,9.99999e-01,9.99999e-01,8.83572e-05,9.99999e-01
5.504120634e-01,1.06246e-04,9.99999e-01,9.99999e-01,1.06246e-04,9.99999e-01
5.531641237e-01,1.27293e-04,9.99999e-01,9.99999e-01,1.27293e-04,9.99999e-01
5.559299443e-01,1.51965e-04,9.99999e-01,9.99999e-01,1.51965e-04,9.99999e-01
5.587095940e-01,1.80785e-04,9.99999e-01,9.99999e-01,1.80785e-04,9.99999e-01
5.615031420e-01,2.14335e-04,9.99999e-01,9.99999e-01,2.14335e-04,9.99999e-01
5.643106577e-01,2.53258e-04,9.99999e-01,9.99999e-01,2.53258e-04,9.99999e-01
5.671322110e-01,2.98265e-04,9.99999e-01,9.99999e-01,2.98265e-04,9.99999e-01
5.699678720e-01,3.50137e-04,9.99999e-01,9.99999e-01,3.50137e-04,9.99999e-01
5.728177114e-01,4.09730e-04,9.99999e-01,9.99999e-01,4.09730e-04,9.99999e-01
5.756818000e-01,4.77979e-04,9.99999e-01,9.99999e-01,4.77979e-04,9.99999e-01
5.785602090e-01,5.55903e-04,9.99999e-01,9.99999e-01,5.55903e-04,9.99999e-01
5.814530100e-01,6.44605e-04,9.99999e-01,9.99999e-01,6.44605e-04,9.99999e-01
5.843602750e-01,7.45277e-04,9.99999e-01,9.99999e-01,7.45277e-04,9.99999e-01
5.872820764e-01,8.59206e-04,9.99999e-01,9.99999e-01,8.59206e-04,9.99999e-01
5.902184868e-01,9.87771e-04,9.99999e-01,9.99999e-01,9.87771e-04,9.99999e-01
5.931695792e-01,1.13245e-03,9.99999e-01,9.99999e-01,1.13245e-03,9.99999e-01
5.961354271e-01,1.29482e-03,9.99999e-01,9.99999e-01,1.29482e-03,9.99999e-01
5.991161043e-01,1.47656e-03,9.99999e-01,9.99999e-01,1.47656e-03,9.99999e-01
6.021116848e-01,1.67944e-03,9.99999e-01,9.99999e-01,1.67944e-03,9.99999e-01
6.051222432e-01,1.90535e-03,9.99999e-01,9.99999e-01,1.90535e-03,9.99999e-01
6.081478544e-01,2.15626e-03,9.99999e-01,9.99999e-01,2.15626e-03,9.99999e-01
6.111885937e-01,2.43427e-03,9.99999e-01,9.99999e-01,2.43427e-03,9.99999e-01
6.142445367e-01,2.74154e-03,9.99999e-01,9.99999e-01,2.74154e-03,9.99999e-01
6.173157594e-01,3.08035e-03,9.99999e-01,9.99999e-01,3.08035e-03,9.99999e-01
6.204023382e-01,3.45308e-03,9.99999e-01,9.99999e-01,3.45308e-03,9.99999e-01
6.235043498e-01,3.86218e-03,9.99999e-01,9.99999e-01,3.86218e-03,9.99999e-01
6.266218716e-01,4.31021e-03,9.99999e-01,9.99999e-01,4.31021e-03,9.99999e-01
6.297549810e-01,4.79980e-03,9.99999e-01,9.99999e-01,4.79980e-03,9.99999e-01
6.329037559e-01,5.33365e-03,9.99999e-01,9.99999e-01,5.33365e-03,9.99999e-01
6.360682746e-01,5.91455e-03,9.99999e-01,9.99999e-01,5.91455e-03,9.99999e-01
6.392486160e-01,6.54533e-03,9.99999e-01,9.99999e-01,6.54533e-03,9.99999e-01
6.424448591e-01,7.22890e-03,9.99999e-01,9.99999e-01,7.22890e-03,9.99999e-01
6.456570834e-01,7.96822e-03,9.99999e-01,9.99999e-01,7.96822e-03,9.99999e-01
6.488853688e-01,8.76626e-03,9.99999e-01,9.99999e-01,8.76626e-03,9.99999e-01
6.521297956e-01,9.62607e-03,9.99999e-01,9.99999e-01,9.62607e-03,9.99999e-01
6.553904446e-01,1.05507e-02,9.99999e-01,9.99999e-01,1.05507e-02,9.99999e-01
6.586673968e-01,1.15432e-02,9.99999e-01,9.99999e-01,1.15432e-02,9.99999e-01
6.619607338e-01,1.26067e-02,9.99999e-01,9.99999e-01,1.26067e-02,9.99999e-01
6.652705375e-01,1.37441e-02,9.99999e-01,9.99999e-01,1.37441e-02,9.99999e-01
6.685968902e-01,1.49587e-02,9.99999e-01,9.99999e-01,1.49587e-02,9.99999e-01
6.719398746e-01,1.62534e-02,9.99999e-01,9.99999e-01,1.62534e-02,9.99999e-01
6.752995740e-01,1.76312e-02,9.99999e-01,9.99999e-01,1.76312e-02,9.99999e-01
6.786760719e-01,1.90952e-02,9.99999e-01,9.99999e-01,1.90952e-02,9.99999e-01
6.820694522e-01,2.06481e-02,9.99999e-01,9.99999e-01,2.06481e-02,9.99999e-01
6.854797995e-01,2.22928e-02,9.99999e-01,9.99999e-01,2.22928e-02,9.99999e-01
6.889071985e-01,2.40321e-02,9.99999e-01,9.99999e-01,2.40321e-02,9.99999e-01
6.923517345e-01,2.58688e-02,9.99999e-01,9.99999e-01,2.58688e-02,9.99999e-01
6.958134932e-01,2.78053e-02,9.99999e-01,9.99999e-01,2.78053e-02,9.99999e-01
6.992925606e-01,2.98442e-02,9.99999e-01,9.99999e-01,2.98442e-02,9.99999e-01
7.027890234e-01,3.19878e-02,9.99999e-01,9.99999e-01,3.19878e-02,9.99999e-01
7.063029686e-01,3.42385e-02,9.99999e-01,9.99999e-01,3.42385e-02,9.99999e-01
7.098344834e-01,3.65984e-02,9.99999e-01,9.99999e-01,3.65984e-02,9.99999e-01
7.133836558e-01,3.90695e-02,9.99999e-01,9.99999e-01,3.90695e-02,9.99999e-01
7.169505741e-01,4.16536e-02,9.99999e-01,9.99999e-01,4.16536e-02,9.99999e-01
7.205353270e-01,4.43524e-02,9.99999e-01,9.99999e-01,4.43524e-02,9.99999e-01
7.241380036e-01,4.71676e-02,9.99999e-01,9.99999e-01,4.71676e-02,9.99999e-01
7.277586936e-01,5.01006e-02,9.99999e-01,9.99999e-01,5.01006e-02,9.99999e-01
7.313974871e-01,5.31526e-02,9.99999e-01,9.99999e-01,5.31526e-02,9.99999e-01
7.350544745e-01,5.63246e-02,9.99999e-01,9.99999e-01,5.63246e-02,9.99999e-01
7.387297469e-01,5.96177e-02,9.99999e-01,9.99999e-01,5.96177e-02,9.99999e-01
7.424233956e-01,6.30325e-02,9.99999e-01,9.99999e-01,6.30325e-02,9.99999e-01
7.461355126e-01,6.65696e-02,9.99999e-01,9.99999e-01,6.65696e-02,9.99999e-01
7.498661902e-01,7.02294e-02,9.99999e-01,9.99999e-01,7.02294e-02,9.99999e-01
7.536155211e-01,7.40122e-02,9.99999e-01,9.99999e-01,7.40122e-02,9.99999e-01
7.573835987e-01,7.79179e-02,9.99999e-01,9.99999e-01,7.79179e-02,9.99999e-01
7.611705167e-01,8.19465e-02,9.99999e-01,9.99999e-01,8.19465e-02,9.99999e-01
7.649763693e-01,8.60975e-02,9.99999e-01,9.99999e-01,8.60975e-02,9.99999e-01
7.688012511e-01,9.03706e-02,9.99999e-01,9.99999e-01,9.03706e-02,9.99999e-01
7.726452574e-01,9.47651e-02,9.99999e-01,9.99999e-01,9.47651e-02,9.99999e-01
7.765084837e-01,9.92801e-02,9.99999e-01,9.99999e-01,9.92801e-02,9.99999e-01
7.803910261e-01,9.44106e-02,9.99999e-01,9.08540e-01,1.03915e-01,9.99999e-01
7.842929812e-01,6.93521e-02,9.99999e-01,6.38204e-01,1.08667e-01,9.99999e-01
7.882144461e-01,7.04254e-02,9.99999e-01,6.20283e-01,1.13537e-01,9.99999e-01
7.921555184e-01,8.83250e-02,9.99999e-01,7.45214e-01,1.18523e-01,9.99999e-01
7.961162960e-01,1.01467e-01,9.99999e-01,8.20784e-01,1.23622e-01,9.99999e-01
8.000968774e-01,1.15708e-01,9.99999e-01,8.98120e-01,1.28834e-01,9.99999e-01
8.040973618e-01,1.26912e-01,9.99999e-01,9.46005e-01,1.34156e-01,9.99999e-01
8.081178486e-01,1.36055e-01,9.99999e-01,9.74701e-01,1.39586e-01,9.99999e-01
8.121584379e-01,1.43992e-01,9.99999e-01,9.92215e-01,1.45122e-01,9.99999e-01
8.162192301e-01,1.50501e-01,9.99999e-01,9.98274e-01,1.50762e-01,9.99999e-01
8.203003262e-01,1.56499e-01,9.99999e-01,9.99976e-01,1.56503e-01,9.99999e-01
8.244018279e-01,1.62342e-01,9.99999e-01,9.99999e-01,1.62342e-01,9.99999e-01
8.285238370e-01,1.68278e-01,9.99999e-01,9.99999e-01,1.68278e-01,9.99999e-01
8.326664562e-01,1.74307e-01,9.99999e-01,9.99999e-01,1.74307e-01,9.99999e-01
8.368297885e-01,1.80427e-01,9.99999e-01,9.99999e-01,1.80427e-01,9.99999e-01
8.410139374e-01,1.86634e-01,9.99999e-01,9.99999e-01,1.86634e-01,9.99999e-01
8.452190071e-01,1.92926e-01,9.99999e-01,9.99999e-01,1.92926e-01,9.99999e-01
8.494451021e-01,1.99299e-01,9.99999e-01,9.99999e-01,1.99299e-01,9.99999e-01
8.536923276e-01,2.05751e-01,9.99999e-01,9.99999e-01,2.05751e-01,9.99999e-01
8.579607893e-01,2.12278e-01,9.99999e-01,9.99999e-01,2.12278e-01,9.99999e-01
8.622505932e-01,2.18877e-01,9.99999e-01,9.99999e-01,2.18877e-01,9.99999e-01
8.665618462e-01,1.94563e-01,9.99999e-01,8.62632e-01,2.25545e-01,9.99999e-01
8.708946554e-01,7.64937e-02,9.99999e-01,3.29319e-01,2.32278e-01,9.99999e-01
8.752491287e-01,9.50688e-02,9.99999e-01,3.97654e-01,2.39074e-01,9.99999e-01
8.796253743e-01,1.46458e-01,9.99999e-01,5.95533e-01,2.45928e-01,9.99999e-01
8.840235012e-01,1.92276e-01,9.99999e-01,7.60475e-01,2.52837e-01,9.99999e-01
8.884436187e-01,2.33160e-01,9.99999e-01,8.97465e-01,2.59798e-01,9.99999e-01
8.928858368e-01,2.55317e-01,9.99999e-01,9.56932e-01,2.66808e-01,9.99999e-01
8.973502660e-01,2.70967e-01,9.99999e-01,9.89428e-01,2.73862e-01,9.99999e-01
9.018370173e-01,2.80631e-01,9.99999e-01,9.98834e-01,2.80959e-01,9.99999e-01
9.063462024e-01,2.79397e-01,9.99999e-01,9.69812e-01,2.88093e-01,9.99999e-01
9.108779334e-01,2.75430e-01,9.99999e-01,9.32829e-01,2.95263e-01,9.99999e-01
9.154323231e-01,2.97627e-01,9.99999e-01,9.84007e-01,3.02464e-01,9.99999e-01
9.200094847e-01,2.50597e-01,9.99999e-01,8.09179e-01,3.09693e-01,9.99999e-01
9.246095321e-01,2.25878e-01,9.99999e-01,7.12666e-01,3.16947e-01,9.99999e-01
9.292325798e-01,2.49071e-01,9.99999e-01,7.68209e-01,3.24223e-01,9.99999e-01
9.338787427e-01,2.56842e-01,9.99999e-01,7.74749e-01,3.31517e-01,9.99999e-01
9.385481364e-01,2.80430e-01,9.99999e-01,8.27652e-01,3.38826e-01,9.99999e-01
9.432408771e-01,3.08200e-01,9.99999e-01,8.90373e-01,3.46147e-01,9.99999e-01
9.479570815e-01,3.32968e-01,9.99999e-01,9.41978e-01,3.53477e-01,9.99999e-01
9.526968669e-01,3.50599e-01,9.99999e-01,9.71689e-01,3.60813e-01,9.99999e-01
9.574603512e-01,3.63659e-01,9.99999e-01,9.87796e-01,3.68152e-01,9.99999e-01
9.622476530e-01,3.74058e-01,9.99999e-01,9.96182e-01,3.75491e-01,9.99999e-01
9.670588912e-01,3.82389e-01,9.99999e-01,9.98857e-01,3.82826e-01,9.99999e-01
9.718941857e-01,3.90126e-01,9.99999e-01,9.99921e-01,3.90156e-01,9.99999e-01
9.767536566e-01,3.97478e-01,9.99999e-01,9.99999e-01,3.97478e-01,9.99999e-01
9.816374249e-01,4.04788e-01,9.99999e-01,9.99999e-01,4.04788e-01,9.99999e-01
9.865456120e-01,4.12084e-01,9.99999e-01,9.99999e-01,4.12084e-01,9.99999e-01
9.914783401e-01,4.19363e-01,9.99999e-01,9.99999e-01,4.19363e-01,9.99999e-01
9.964357318e-01,4.26624e-01,9.99999e-01,9.99999e-01,4.26624e-01,9.99999e-01
1.001417910e+00,4.33863e-01,9.99999e-01,9.99999e-01,4.33863e-01,9.99999e-01
1.006425000e+00,4.41079e-01,9.99999e-01,9.99999e-01,4.41079e-01,9.99999e-01
1.011457125e+00,4.48268e-01,9.99999e-01,9.99999e-01,4.48268e-01,9.99999e-01
1.016514411e+00,4.55429e-01,9.99999e-01,9.99999e-01,4.55429e-01,9.99999e-01
1.021596983e+00,4.62472e-01,9.99999e-01,9.99809e-01,4.62560e-01,9.99999e-01
1.026704968e+00,4.63976e-01,9.99999e-01,9.87902e-01,4.69658e-01,9.99999e-01
1.031838492e+00,4.28677e-01,9.99999e-01,8.99219e-01,4.76721e-01,9.99999e-01
1.036997685e+00,2.37256e-02,9.99999e-01,4.90453e-02,4.83748e-01,9.99999e-01
1.042182673e+00,1.64216e-03,9.99999e-01,3.34630e-03,4.90737e-01,9.99999e-01
1.047393587e+00,4.17113e-03,9.99999e-01,8.38103e-03,4.97686e-01,9.99999e-01
1.052630555e+00,4.61324e-07,9.99999e-01,9.14248e-07,5.04593e-01,9.99999e-01
1.057893707e+00,1.78444e-06,9.99999e-01,3.48894e-06,5.11457e-01,9.99999e-01
1.063183176e+00,4.73960e-05,9.99999e-01,9.14492e-05,5.18276e-01,9.99999e-01
1.068499092e+00,4.77161e-04,9.99999e-01,9.08795e-04,5.25048e-01,9.99999e-01
1.073841587e+00,5.86743e-03,9.99999e-01,1.10337e-02,5.31772e-01,9.99999e-01
1.079210795e+00,3.18554e-02,9.99999e-01,5.91616e-02,5.38447e-01,9.99999e-01
1.084606849e+00,1.09679e-01,9.99999e-01,2.01220e-01,5.45072e-01,9.99999e-01
1.090029883e+00,2.37918e-01,9.99999e-01,4.31288e-01,5.51645e-01,9.99999e-01
1.095480033e+00,3.68417e-01,9.99999e-01,6.60049e-01,5.58165e-01,9.99999e-01
1.100957433e+00,4.61656e-01,9.99999e-01,8.17624e-01,5.64631e-01,9.99999e-01
1.106462220e+00,5.25424e-01,9.99999e-01,9.20115e-01,5.71042e-01,9.99999e-01
1.111994531e+00,5.59827e-01,9.99999e-01,9.69569e-01,5.77396e-01,9.99999e-01
1.117554504e+00,5.79335e-01,9.99999e-01,9.92531e-01,5.83694e-01,9.99999e-01
1.123142276e+00,5.89647e-01,9.99999e-01,9.99512e-01,5.89935e-01,9.99999e-01
1.128757988e+00,5.96116e-01,9.99999e-01,9.99999e-01,5.96117e-01,9.99999e-01
1.134401778e+00,6.02239e-01,9.99999e-01,9.99999e-01,6.02239e-01,9.99999e-01
1.140073787e+00,6.08302e-01,9.99999e-01,9.99999e-01,6.08302e-01,9.99999e-01
1.145774156e+00,6.14304e-01,9.99999e-01,9.99999e-01,6.14304e-01,9.99999e-01
1.151503026e+00,6.20245e-01,9.99999e-01,9.99999e-01,6.20245e-01,9.99999e-01
1.157260541e+00,6.26124e-01,9.99999e-01,9.99999e-01,6.26124e-01,9.99999e-01
1.163046844e+00,6.31942e-01,9.99999e-01,9.99999e-01,6.31942e-01,9.99999e-01
1.168862078e+00,6.37697e-01,9.99999e-01,9.99999e-01,6.37697e-01,9.99999e-01
1.174706389e+00,6.43389e-01,9.99999e-01,9.99999e-01,6.43389e-01,9.99999e-01
1.180579921e+00,6.49018e-01,9.99999e-01,9.99999e-01,6.49018e-01,9.99999e-01
1.186482820e+00,6.54564e-01,9.99999e-01,9.99970e-01,6.54583e-01,9.99999e-01
1.192415234e+00,6.32804e-01,9.99999e-01,9.58670e-01,6.60085e-01,9.99999e-01
1.198377311e+00,3.41953e-01,9.99999e-01,5.13810e-01,6.65524e-01,9.99999e-01
1.204369197e+00,1.06269e-30,9.99999e-01,1.58398e-30,6.70898e-01,9.99999e-01
1.210391043e+00,1.76485e-124,9.99999e-01,2.60992e-124,6.76208e-01,9.99999e-01
1.216442998e+00,1.03643e-107,9.99999e-01,1.52091e-107,6.81454e-01,9.99999e-01
1.222525213e+00,4.30170e-106,9.99999e-01,6.26488e-106,6.86636e-01,9.99999e-01
1.228637839e+00,7.88296e-82,9.99999e-01,1.13956e-81,6.91754e-01,9.99999e-01
1.234781029e+00,6.93542e-51,9.99999e-01,9.95312e-51,6.96808e-01,9.99999e-01
1.240954934e+00,9.95845e-34,9.99999e-01,1.41899e-33,7.01798e-01,9.99999e-01
1.247159708e+00,3.18143e-16,9.99999e-01,4.50165e-16,7.06724e-01,9.99999e-01
1.253395507e+00,5.09781e-11,9.99999e-01,7.16401e-11,7.11586e-01,9.99999e-01
1.259662485e+00,1.37873e-06,9.99999e-01,1.92456e-06,7.16385e-01,9.99999e-01
1.265960797e+00,5.39092e-04,9.99999e-01,7.47575e-04,7.21120e-01,9.99999e-01
1.272290601e+00,2.42835e-02,9.99999e-01,3.34579e-02,7.25792e-01,9.99999e-01
1.278652054e+00,2.19067e-02,9.99999e-01,2.99927e-02,7.30401e-01,9.99999e-01
1.285045314e+00,2.15175e-05,9.99999e-01,2.92776e-05,7.34948e-01,9.99999e-01
1.291470541e+00,1.14996e-14,9.99999e-01,1.55519e-14,7.39432e-01,9.99999e-01
1.297927893e+00,2.57268e-05,9.99999e-01,3.45857e-05,7.43854e-01,9.99999e-01
1.304417533e+00,1.41205e-03,9.99999e-01,1.88722e-03,7.48215e-01,9.99999e-01
1.310939621e+00,2.64076e-04,9.99999e-01,3.50925e-04,7.52514e-01,9.99999e-01
1.317494319e+00,6.03741e-43,9.99999e-01,7.97805e-43,7.56752e-01,9.99999e-01
1.324081790e+00,1.05254e-19,9.99999e-01,1.38323e-19,7.60930e-01,9.99999e-01
1.330702199e+00,1.68493e-16,9.99999e-01,2.20238e-16,7.65047e-01,9.99999e-01
1.337355710e+00,5.92635e-15,9.99999e-01,7.70551e-15,7.69105e-01,9.99999e-01
1.344042489e+00,5.59527e-18,9.99999e-01,7.23740e-18,7.73104e-01,9.99999e-01
1.350762701e+00,8.59770e-17,9.99999e-01,1.10646e-16,7.77044e-01,9.99999e-01
1.357516515e+00,3.01959e-10,9.99999e-01,3.86668e-10,7.80925e-01,9.99999e-01
1.364304097e+00,1.47998e-07,9.99999e-01,1.88593e-07,7.84749e-01,9.99999e-01
1.371125618e+00,3.00901e-04,9.99999e-01,3.81605e-04,7.88515e-01,9.99999e-01
1.377981246e+00,8.64478e-04,9.99999e-01,1.09120e-03,7.92224e-01,9.99999e-01
1.384871152e+00,1.47755e-02,9.99999e-01,1.85651e-02,7.95877e-01,9.99999e-01
1.391795508e+00,2.05657e-02,9.99999e-01,2.57240e-02,7.99475e-01,9.99999e-01
1.398754485e+00,7.92578e-02,9.99999e-01,9.87000e-02,8.03017e-01,9.99999e-01
1.405748258e+00,1.50080e-01,9.99999e-01,1.86086e-01,8.06504e-01,9.99999e-01
1.412776999e+00,2.77614e-01,9.99999e-01,3.42759e-01,8.09937e-01,9.99999e-01
1.419840884e+00,2.58105e-01,9.99999e-01,3.17349e-01,8.13316e-01,9.99999e-01
1.426940089e+00,9.19040e-03,9.99999e-01,1.12539e-02,8.16643e-01,9.99999e-01
1.434074789e+00,0.00000e+00,9.99999e-01,0.00000e+00,8.19916e-01,9.99999e-01
1.441245163e+00,0.00000e+00,9.99999e-01,0.00000e+00,8.23138e-01,9.99999e-01
1.448451389e+00,0.00000e+00,9.99999e-01,0.00000e+00,8.26309e-01,9.99999e-01
1.455693646e+00,0.00000e+00,9.99999e-01,0.00000e+00,8.29429e-01,9.99999e-01
1.462972114e+00,0.00000e+00,9.99999e-01,0.00000e+00,8.32498e-01,9.99999e-01
1.470286975e+00,2.16729e-206,9.99999e-01,2.59394e-206,8.35518e-01,9.99999e-01
