#,Wave/freq,Total,O2,CO2,Rayleigh,CIA
4.000000000e-01,1.50007e-18,9.99999e-01,9.99999e-01,1.50007e-18,9.99999e-01
4.020000000e-01,3.37700e-18,9.99999e-01,9.99999e-01,3.37700e-18,9.99999e-01
4.040100000e-01,7.47543e-18,9.99999e-01,9.99999e-01,7.47543e-18,9.99999e-01
4.060300500e-01,1.62901e-17,9.99999e-01,9.99999e-01,1.62901e-17,9.99999e-01
4.080602003e-01,3.49567e-17,9.99999e-01,9.99999e-01,3.49567e-17,9.99999e-01
4.101005013e-01,7.38901e-17,9.99999e-01,9.99999e-01,7.38901e-17,9.99999e-01
4.121510038e-01,1.53894e-16,9.99999e-01,9.99999e-01,1.53894e-16,9.99999e-01
4.142117588e-01,3.15910e-16,9.99999e-01,9.99999e-01,3.15910e-16,9.99999e-01
4.162828176e-01,6.39345e-16,9.99999e-01,9.99999e-01,6.39345e-16,9.99999e-01
4.183642317e-01,1.27603e-15,9.99999e-01,9.99999e-01,1.27603e-15,9.99999e-01
4.204560528e-01,2.51221e-15,9.99999e-01,9.99999e-01,2.51221e-15,9.99999e-01
4.225583331e-01,4.88024e-15,9.99999e-01,9.99999e-01,4.88024e-15,9.99999e-01
4.246711247e-01,9.35685e-15,9.99999e-01,9.99999e-01,9.35685e-15,9.99999e-01
4.267944804e-01,1.77107e-14,9.99999e-01,9.99999e-01,1.77107e-14,9.99999e-01
4.289284528e-01,3.31029e-14,9.99999e-01,9.99999e-01,3.31029e-14,9.99999e-01
4.310730950e-01,6.11128e-14,9.99999e-01,9.99999e-01,6.11128e-14,9.99999e-01
4.332284605e-01,1.11465e-13,9.99999e-01,9.99999e-01,1.11465e-13,9.99999e-01
4.353946028e-01,2.00905e-13,9.99999e-01,9.99999e-01,2.00905e-13,9.99999e-01
4.375715758e-01,3.57921e-13,9.99999e-01,9.99999e-01,3.57921e-13,9.99999e-01
4.397594337e-01,6.30421e-13,9.99999e-01,9.99999e-01,6.30421e-13,9.99999e-01
4.419582309e-01,1.09804e-12,9.99999e-01,9.99999e-01,1.09804e-12,9.99999e-01
4.441680220e-01,1.89167e-12,9.99999e-01,9.99999e-01,1.89167e-12,9.99999e-01
4.463888621e-01,3.22409e-12,9.99999e-01,9.99999e-01,3.22409e-12,9.99999e-01
4.486208064e-01,5.43744e-12,9.99999e-01,9.99999e-01,5.43744e-12,9.99999e-01
4.508639105e-01,9.07608e-12,9.99999e-01,9.99999e-01,9.07608e-12,9.99999e-01
4.531182300e-01,1.49971e-11,9.99999e-01,9.99999e-01,1.49971e-11,9.99999e-01
4.553838212e-01,2.45362e-11,9.99999e-01,9.99999e-01,2.45362e-11,9.99999e-01
4.576607403e-01,3.97544e-11,9.99999e-01,9.99999e-01,3.97544e-11,9.99999e-01
4.599490440e-01,6.38004e-11,9.99999e-01,9.99999e-01,6.38004e-11,9.99999e-01
4.622487892e-01,1.01439e-10,9.99999e-01,9.99999e-01,1.01439e-10,9.99999e-01
4.645600332e-01,1.59811e-10,9.99999e-01,9.99999e-01,1.59811e-10,9.99999e-01
4.668828333e-01,2.49522e-10,9.99999e-01,9.99999e-01,2.49522e-10,9.99999e-01
4.692172475e-01,3.86180e-10,9.99999e-01,9.99999e-01,3.86180e-10,9.99999e-01
4.715633337e-01,5.92548e-10,9.99999e-01,9.99999e-01,5.92548e-10,9.99999e-01
4.739211504e-01,9.01541e-10,9.99999e-01,9.99999e-01,9.01541e-10,9.99999e-01
4.762907561e-01,1.36034e-09,9.99999e-01,9.99999e-01,1.36034e-09,9.99999e-01
4.786722099e-01,2.03601e-09,9.99999e-01,9.99999e-01,2.03601e-09,9.99999e-01
4.810655710e-01,3.02310e-09,9.99999e-01,9.99999e-01,3.02310e-09,9.99999e-01
4.834708988e-01,4.45384e-09,9.99999e-01,9.99999e-01,4.45384e-09,9.99999e-01
4.858882533e-01,6.51167e-09,9.99999e-01,9.99999e-01,6.51167e-09,9.99999e-01
4.883176946e-01,9.44915e-09,9.99999e-01,9.99999e-01,9.44915e-09,9.99999e-01
4.907592831e-01,1.36113e-08,9.99999e-01,9.99999e-01,1.36113e-08,9.99999e-01
4.932130795e-01,1.94659e-08,9.99999e-01,9.99999e-01,1.94659e-08,9.99999e-01
4.956791449e-01,2.76426e-08,9.99999e-01,9.99999e-01,2.76426e-08,9.99999e-01
4.981575406e-01,3.89831e-08,9.99999e-01,9.99999e-01,3.89831e-08,9.99999e-01
5.006483283e-01,5.46041e-08,9.99999e-01,9.99999e-01,5.46041e-08,9.99999e-01
5.031515699e-01,7.59772e-08,9.99999e-01,9.99999e-01,7.59772e-08,9.99999e-01
5.056673278e-01,1.05029e-07,9.99999e-01,9.99999e-01,1.05029e-07,9.99999e-01
5.081956644e-01,1.44263e-07,9.99999e-01,9.99999e-01,1.44263e-07,9.99999e-01
5.107366428e-01,1.96914e-07,9.99999e-01,9.99999e-01,1.96914e-07,9.99999e-01
5.132903260e-01,2.67136e-07,9.99999e-01,9.99999e-01,2.67136e-07,9.99999e-01
5.158567776e-01,3.60222e-07,9.99999e-01,9.99999e-01,3.60222e-07,9.99999e-01
5.184360615e-01,4.82885e-07,9.99999e-01,9.99999e-01,4.82885e-07,9.99999e-01
5.210282418e-01,6.43582e-07,9.99999e-01,9.99999e-01,6.43582e-07,9.99999e-01
5.236333830e-01,8.52902e-07,9.99999e-01,9.99999e-01,8.52902e-07,9.99999e-01
5.262515499e-01,1.12403e-06,9.99999e-01,9.99999e-01,1.12403e-06,9.99999e-01
5.288828077e-01,1.47330e-06,9.99999e-01,9.99999e-01,1.47330e-06,9.99999e-01
5.315272217e-01,1.92080e-06,9.99999e-01,9.99999e-01,1.92080e-06,9.99999e-01
5.341848578e-01,2.49113e-06,9.99999e-01,9.99999e-01,2.49113e-06,9.99999e-01
5.368557821e-01,3.21427e-06,9.99999e-01,9.99999e-01,3.21427e-06,9.99999e-01
5.395400610e-01,4.12649e-06,9.99999e-01,9.99999e-01,4.12649e-06,9.99999e-01
5.422377613e-01,5.27153e-06,9.99999e-01,9.99999e-01,5.27153e-06,9.99999e-01
5.449489501e-01,6.70180e-06,9.99999e-01,9.99999e-01,6.70180e-06,9.99999e-01
5.476736949e-01,8.47982e-06,9.99999e-01,9.99999e-01,8.47982e-06,9.99999e-01
5.504120634e-01,1.06798e-05,9.99999e-01,9.99999e-01,1.06798e-05,9.99999e-01
5.531641237e-01,1.33894e-05,9.99999e-01,9.99999e-01,1.33894e-05,9.99999e-01
5.559299443e-01,1.67117e-05,9.99999e-01,9.99999e-01,1.67117e-05,9.99999e-01
5.587095940e-01,2.07672e-05,9.99999e-01,9.99999e-01,2.07672e-05,9.99999e-01
5.615031420e-01,2.56963e-05,9.99999e-01,9.99999e-01,2.56963e-05,9.99999e-01
5.643106577e-01,3.16619e-05,9.99999e-01,9.99999e-01,3.16619e-05,9.99999e-01
5.671322110e-01,3.88520e-05,9.99999e-01,9.99999e-01,3.88520e-05,9.99999e-01
5.699678720e-01,4.74824e-05,9.99999e-01,9.99999e-01,4.74824e-05,9.99999e-01
5.728177114e-01,5.78006e-05,9.99999e-01,9.99999e-01,5.78006e-05,9.99999e-01
5.756818000e-01,7.00881e-05,9.99999e-01,9.99999e-01,7.00881e-05,9.99999e-01
5.785602090e-01,8.46649e-05,9.99999e-01,9.99999e-01,8.46649e-05,9.99999e-01
5.814530100e-01,1.01892e-04,9.99999e-01,9.99999e-01,1.01892e-04,9.99999e-01
5.843602750e-01,1.22177e-04,9.99999e-01,9.99999e-01,1.22177e-04,9.99999e-01
5.872820764e-01,1.45976e-04,9.99999e-01,9.99999e-01,1.45976e-04,9.99999e-01
5.902184868e-01,1.73799e-04,9.99999e-01,9.99999e-01,1.73799e-04,9.99999e-01
5.931695792e-01,2.06213e-04,9.99999e-01,9.99999e-01,2.06213e-04,9.99999e-01
5.961354271e-01,2.43847e-04,9.99999e-01,9.99999e-01,2.43847e-04,9.99999e-01
5.991161043e-01,2.87396e-04,9.99999e-01,9.99999e-01,2.87396e-04,9.99999e-01
6.021116848e-01,3.37624e-04,9.99999e-01,9.99999e-01,3.37624e-04,9.99999e-01
6.051222432e-01,3.95372e-04,9.99999e-01,9.99999e-01,3.95372e-04,9.99999e-01
6.081478544e-01,4.61555e-04,9.99999e-01,9.99999e-01,4.61555e-04,9.99999e-01
6.111885937e-01,5.37172e-04,9.99999e-01,9.99999e-01,5.37172e-04,9.99999e-01
6.142445367e-01,6.23306e-04,9.99999e-01,9.99999e-01,6.23306e-04,9.99999e-01
6.173157594e-01,7.21131e-04,9.99999e-01,9.99999e-01,7.21131e-04,9.99999e-01
6.204023382e-01,8.31910e-04,9.99999e-01,9.99999e-01,8.31910e-04,9.99999e-01
6.235043498e-01,9.57001e-04,9.99999e-01,9.99999e-01,9.57001e-04,9.99999e-01
6.266218716e-01,1.09786e-03,9.99999e-01,9.99999e-01,1.09786e-03,9.99999e-01
6.297549810e-01,1.25604e-03,9.99999e-01,9.99999e-01,1.25604e-03,9.99999e-01
6.329037559e-01,1.43319e-03,9.99999e-01,9.99999e-01,1.43319e-03,9.99999e-01
6.360682746e-01,1.63108e-03,9.99999e-01,9.99999e-01,1.63108e-03,9.99999e-01
6.392486160e-01,1.85155e-03,9.99999e-01,9.99999e-01,1.85155e-03,9.99999e-01
6.424448591e-01,2.09657e-03,9.99999e-01,9.99999e-01,2.09657e-03,9.99999e-01
6.456570834e-01,2.36818e-03,9.99999e-01,9.99999e-01,2.36818e-03,9.99999e-01
6.488853688e-01,2.66856e-03,9.99999e-01,9.99999e-01,2.66856e-03,9.99999e-01
6.521297956e-01,2.99995e-03,9.99999e-01,9.99999e-01,2.99995e-03,9.99999e-01
6.553904446e-01,3.36471e-03,9.99999e-01,9.99999e-01,3.36471e-03,9.99999e-01
6.586673968e-01,3.76528e-03,9.99999e-01,9.99999e-01,3.76528e-03,9.99999e-01
6.619607338e-01,4.20417e-03,9.99999e-01,9.99999e-01,4.20417e-03,9.99999e-01
6.652705375e-01,4.68402e-03,9.99999e-01,9.99999e-01,4.68402e-03,9.99999e-01
6.685968902e-01,5.20751e-03,9.99999e-01,9.99999e-01,5.20751e-03,9.99999e-01
6.719398746e-01,5.77740e-03,9.99999e-01,9.99999e-01,5.77740e-03,9.99999e-01
6.752995740e-01,6.39652e-03,9.99999e-01,9.99999e-01,6.39652e-03,9.99999e-01
6.786760719e-01,7.06776e-03,9.99999e-01,9.99999e-01,7.06776e-03,9.99999e-01
6.820694522e-01,7.79406e-03,9.99999e-01,9.99999e-01,7.79406e-03,9.99999e-01
6.854797995e-01,8.57840e-03,9.99999e-01,9.99999e-01,8.57840e-03,9.99999e-01
6.889071985e-01,9.42382e-03,9.99999e-01,9.99999e-01,9.42382e-03,9.99999e-01
6.923517345e-01,1.03333e-02,9.99999e-01,9.99999e-01,1.03333e-02,9.99999e-01
6.958134932e-01,1.13100e-02,9.99999e-01,9.99999e-01,1.13100e-02,9.99999e-01
6.992925606e-01,1.23570e-02,9.99999e-01,9.99999e-01,1.23570e-02,9.99999e-01
7.027890234e-01,1.34773e-02,9.99999e-01,9.99999e-01,1.34773e-02,9.99999e-01
7.063029686e-01,1.46740e-02,9.99999e-01,9.99999e-01,1.46740e-02,9.99999e-01
7.098344834e-01,1.59501e-02,9.99999e-01,9.99999e-01,1.59501e-02,9.99999e-01
7.133836558e-01,1.73086e-02,9.99999e-01,9.99999e-01,1.73086e-02,9.99999e-01
7.169505741e-01,1.87526e-02,9.99999e-01,9.99999e-01,1.87526e-02,9.99999e-01
7.205353270e-01,2.02849e-02,9.99999e-01,9.99999e-01,2.02849e-02,9.99999e-01
7.241380036e-01,2.19084e-02,9.99999e-01,9.99999e-01,2.19084e-02,9.99999e-01
7.277586936e-01,2.36258e-02,9.99999e-01,9.99999e-01,2.36258e-02,9.99999e-01
7.313974871e-01,2.54400e-02,9.99999e-01,9.99999e-01,2.54400e-02,9.99999e-01
7.350544745e-01,2.73534e-02,9.99999e-01,9.99999e-01,2.73534e-02,9.99999e-01
7.387297469e-01,2.93687e-02,9.99999e-01,9.99999e-01,2.93687e-02,9.99999e-01
7.424233956e-01,3.14882e-02,9.99999e-01,9.99999e-01,3.14882e-02,9.99999e-01
7.461355126e-01,3.37142e-02,9.99999e-01,9.99999e-01,3.37142e-02,9.99999e-01
7.498661902e-01,3.60489e-02,9.99999e-01,9.99999e-01,3.60489e-02,9.99999e-01
7.536155211e-01,3.84944e-02,9.99999e-01,9.99999e-01,3.84944e-02,9.99999e-01
7.573835987e-01,4.10525e-02,9.99999e-01,9.99999e-01,4.10525e-02,9.99999e-01
7.611705167e-01,4.37250e-02,9.99999e-01,9.99999e-01,4.37250e-02,9.99999e-01
7.649763693e-01,4.65134e-02,9.99999e-01,9.99999e-01,4.65134e-02,9.99999e-01
7.688012511e-01,4.94193e-02,9.99999e-01,9.99999e-01,4.94193e-02,9.99999e-01
7.726452574e-01,5.24440e-02,9.99999e-01,9.99999e-01,5.24440e-02,9.99999e-01
7.765084837e-01,5.55885e-02,9.99999e-01,9.99999e-01,5.55885e-02,9.99999e-01
7.803910261e-01,5.25803e-02,9.99999e-01,8.93405e-01,5.88538e-02,9.99999e-01
7.842929812e-01,3.58006e-02,9.99999e-01,5.75195e-01,6.22407e-02,9.99999e-01
7.882144461e-01,3.66586e-02,9.99999e-01,5.57546e-01,6.57498e-02,9.99999e-01
7.921555184e-01,4.81421e-02,9.99999e-01,6.93874e-01,6.93816e-02,9.99999e-01
7.961162960e-01,5.71346e-02,9.99999e-01,7.81208e-01,7.31362e-02,9.99999e-01
8.000968774e-01,6.73334e-02,9.99999e-01,8.74302e-01,7.70138e-02,9.99999e-01
8.040973618e-01,7.55747e-02,9.99999e-01,9.32856e-01,8.10143e-02,9.99999e-01
8.081178486e-01,8.24503e-02,9.99999e-01,9.68437e-01,8.51374e-02,9.99999e-01
8.121584379e-01,8.85100e-02,9.99999e-01,9.90237e-01,8.93826e-02,9.99999e-01
8.162192301e-01,9.35464e-02,9.99999e-01,9.97834e-01,9.37494e-02,9.99999e-01
8.203003262e-01,9.82340e-02,9.99999e-01,9.99970e-01,9.82369e-02,9.99999e-01
8.244018279e-01,1.02844e-01,9.99999e-01,9.99999e-01,1.02844e-01,9.99999e-01
8.285238370e-01,1.07570e-01,9.99999e-01,9.99999e-01,1.07570e-01,9.99999e-01
8.326664562e-01,1.12413e-01,9.99999e-01,9.99999e-01,1.12413e-01,9.99999e-01
8.368297885e-01,1.17373e-01,9.99999e-01,9.99999e-01,1.17373e-01,9.99999e-01
8.410139374e-01,1.22446e-01,9.99999e-01,9.99999e-01,1.22446e-01,9.99999e-01
8.452190071e-01,1.27632e-01,9.99999e-01,9.99999e-01,1.27632e-01,9.99999e-01
8.494451021e-01,1.32929e-01,9.99999e-01,9.99999e-01,1.32929e-01,9.99999e-01
8.536923276e-01,1.38334e-01,9.99999e-01,9.99999e-01,1.38334e-01,9.99999e-01
8.579607893e-01,1.43846e-01,9.99999e-01,9.99999e-01,1.43846e-01,9.99999e-01
8.622505932e-01,1.49463e-01,9.99999e-01,9.99999e-01,1.49463e-01,9.99999e-01
8.665618462e-01,1.32052e-01,9.99999e-01,8.50956e-01,1.55181e-01,9.99999e-01
8.708946554e-01,4.15772e-02,9.99999e-01,2.58246e-01,1.60998e-01,9.99999e-01
8.752491287e-01,5.34839e-02,9.99999e-01,3.20431e-01,1.66912e-01,9.99999e-01
8.796253743e-01,9.09439e-02,9.99999e-01,5.25929e-01,1.72920e-01,9.99999e-01
8.840235012e-01,1.27234e-01,9.99999e-01,7.10728e-01,1.79019e-01,9.99999e-01
8.884436187e-01,1.61766e-01,9.99999e-01,8.73434e-01,1.85207e-01,9.99999e-01
8.928858368e-01,1.81208e-01,9.99999e-01,9.46357e-01,1.91480e-01,9.99999e-01
8.973502660e-01,1.95216e-01,9.99999e-01,9.86760e-01,1.97835e-01,9.99999e-01
9.018370173e-01,2.03970e-01,9.99999e-01,9.98536e-01,2.04269e-01,9.99999e-01
9.063462024e-01,2.02946e-01,9.99999e-01,9.62838e-01,2.10779e-01,9.99999e-01
9.108779334e-01,1.99257e-01,9.99999e-01,9.16703e-01,2.17362e-01,9.99999e-01
9.154323231e-01,2.19528e-01,9.99999e-01,9.79970e-01,2.24014e-01,9.99999e-01
9.200094847e-01,1.79379e-01,9.99999e-01,7.77432e-01,2.30733e-01,9.99999e-01
9.246095321e-01,1.55645e-01,9.99999e-01,6.55306e-01,2.37514e-01,9.99999e-01
9.292325798e-01,1.76340e-01,9.99999e-01,7.21652e-01,2.44355e-01,9.99999e-01
9.338787427e-01,1.82851e-01,9.99999e-01,7.27759e-01,2.51252e-01,9.99999e-01
9.385481364e-01,2.03902e-01,9.99999e-01,7.89700e-01,2.58202e-01,9.99999e-01
9.432408771e-01,2.29337e-01,9.99999e-01,8.64768e-01,2.65200e-01,9.99999e-01
9.479570815e-01,2.52626e-01,9.99999e-01,9.27934e-01,2.72245e-01,9.99999e-01
9.526968669e-01,2.69470e-01,9.99999e-01,9.64693e-01,2.79332e-01,9.99999e-01
9.574603512e-01,2.82087e-01,9.99999e-01,9.84738e-01,2.86458e-01,9.99999e-01
9.622476530e-01,2.92216e-01,9.99999e-01,9.95218e-01,2.93620e-01,9.99999e-01
9.670588912e-01,3.00383e-01,9.99999e-01,9.98567e-01,3.00814e-01,9.99999e-01
9.718941857e-01,3.08007e-01,9.99999e-01,9.99900e-01,3.08037e-01,9.99999e-01
9.767536566e-01,3.15286e-01,9.99999e-01,9.99999e-01,3.15286e-01,9.99999e-01
9.816374249e-01,3.22557e-01,9.99999e-01,9.99999e-01,3.22557e-01,9.99999e-01
9.865456120e-01,3.29847e-01,9.99999e-01,9.99999e-01,3.29847e-01,9.99999e-01
9.914783401e-01,3.37153e-01,9.99999e-01,9.99999e-01,3.37153e-01,9.99999e-01
9.964357318e-01,3.44472e-01,9.99999e-01,9.99999e-01,3.44472e-01,9.99999e-01
1.001417910e+00,3.51800e-01,9.99999e-01,9.99999e-01,3.51800e-01,9.99999e-01
1.006425000e+00,3.59135e-01,9.99999e-01,9.99999e-01,3.59135e-01,9.99999e-01
1.011457125e+00,3.66473e-01,9.99999e-01,9.99999e-01,3.66473e-01,9.99999e-01
1.016514411e+00,3.73812e-01,9.99999e-01,9.99999e-01,3.73812e-01,9.99999e-01
1.021596983e+00,3.81061e-01,9.99999e-01,9.99769e-01,3.81149e-01,9.99999e-01
1.026704968e+00,3.82661e-01,9.99999e-01,9.85018e-01,3.88481e-01,9.99999e-01
1.031838492e+00,3.50482e-01,9.99999e-01,8.85492e-01,3.95804e-01,9.99999e-01
1.036997685e+00,1.52732e-02,9.99999e-01,3.78877e-02,4.03117e-01,9.99999e-01
1.042182673e+00,4.84798e-04,9.99999e-01,1.18123e-03,4.10416e-01,9.99999e-01
1.047393587e+00,1.37588e-03,9.99999e-01,3.29394e-03,4.17700e-01,9.99999e-01
1.052630555e+00,2.49979e-08,9.99999e-01,5.88233e-08,4.24965e-01,9.99999e-01
1.057893707e+00,9.56747e-08,9.99999e-01,2.21362e-07,4.32209e-01,9.99999e-01
1.063183176e+00,5.84614e-06,9.99999e-01,1.33039e-05,4.39431e-01,9.99999e-01
1.068499092e+00,8.34585e-05,9.99999e-01,1.86864e-04,4.46626e-01,9.99999e-01
1.073841587e+00,1.72429e-03,9.99999e-01,3.79973e-03,4.53794e-01,9.99999e-01
1.079210795e+00,1.42009e-02,9.99999e-01,3.08092e-02,4.60931e-01,9.99999e-01
1.084606849e+00,6.38341e-02,9.99999e-01,1.36387e-01,4.68037e-01,9.99999e-01
1.090029883e+00,1.66710e-01,9.99999e-01,3.50887e-01,4.75109e-01,9.99999e-01
1.095480033e+00,2.87118e-01,9.99999e-01,5.95501e-01,4.82145e-01,9.99999e-01
1.100957433e+00,3.80315e-01,9.99999e-01,7.77512e-01,4.89142e-01,9.99999e-01
1.106462220e+00,4.47021e-01,9.99999e-01,9.01069e-01,4.96101e-01,9.99999e-01
1.111994531e+00,4.83930e-01,9.99999e-01,9.62054e-01,5.03017e-01,9.99999e-01
1.117554504e+00,5.05122e-01,9.99999e-01,9.90646e-01,5.09891e-01,9.99999e-01
1.123142276e+00,5.16404e-01,9.99999e-01,9.99387e-01,5.16720e-01,9.99999e-01
1.128757988e+00,5.23503e-01,9.99999e-01,9.99999e-01,5.23503e-01,9.99999e-01
1.134401778e+00,5.30239e-01,9.99999e-01,9.99999e-01,5.30239e-01,9.99999e-01
1.140073787e+00,5.36925e-01,9.99999e-01,9.99999e-01,5.36925e-01,9.99999e-01
1.145774156e+00,5.43561e-01,9.99999e-01,9.99999e-01,5.43561e-01,9.99999e-01
1.151503026e+00,5.50146e-01,9.99999e-01,9.99999e-01,5.50146e-01,9.99999e-01
1.157260541e+00,5.56678e-01,9.99999e-01,9.99999e-01,5.56678e-01,9.99999e-01
1.163046844e+00,5.63157e-01,9.99999e-01,9.99999e-01,5.63157e-01,9.99999e-01
1.168862078e+00,5.69580e-01,9.99999e-01,9.99999e-01,5.69580e-01,9.99999e-01
1.174706389e+00,5.75948e-01,9.99999e-01,9.99999e-01,5.75948e-01,9.99999e-01
1.180579921e+00,5.82259e-01,9.99999e-01,9.99999e-01,5.82259e-01,9.99999e-01
1.186482820e+00,5.88492e-01,9.99999e-01,9.99965e-01,5.88513e-01,9.99999e-01
1.192415234e+00,5.64781e-01,9.99999e-01,9.49677e-01,5.94708e-01,9.99999e-01
1.198377311e+00,3.00075e-01,9.99999e-01,4.99422e-01,6.00844e-01,9.99999e-01
1.204369197e+00,7.85210e-38,9.99999e-01,1.29376e-37,6.06920e-01,9.99999e-01
1.210391043e+00,3.93106e-155,9.99999e-01,6.41348e-155,6.12936e-01,9.99999e-01
1.216442998e+00,3.72142e-134,9.99999e-01,6.01304e-134,6.18891e-01,9.99999e-01
1.222525213e+00,3.91961e-132,9.99999e-01,6.27353e-132,6.24785e-01,9.99999e-01
1.228637839e+00,8.44835e-102,9.99999e-01,1.33970e-101,6.30617e-01,9.99999e-01
1.234781029e+00,4.42438e-63,9.99999e-01,6.95234e-63,6.36386e-01,9.99999e-01
1.240954934e+00,1.12563e-41,9.99999e-01,1.75307e-41,6.42092e-01,9.99999e-01
1.247159708e+00,9.99094e-20,9.99999e-01,1.54244e-19,6.47736e-01,9.99999e-01
1.253395507e+00,1.96581e-13,9.99999e-01,3.00897e-13,6.53316e-01,9.99999e-01
1.259662485e+00,6.90156e-08,9.99999e-01,1.04754e-07,6.58833e-01,9.99999e-01
1.265960797e+00,1.12762e-04,9.99999e-01,1.69750e-04,6.64285e-01,9.99999e-01
1.272290601e+00,1.01026e-02,9.99999e-01,1.50858e-02,6.69674e-01,9.99999e-01
1.278652054e+00,9.71583e-03,9.99999e-01,1.43938e-02,6.74999e-01,9.99999e-01
1.285045314e+00,3.41925e-06,9.99999e-01,5.02638e-06,6.80260e-01,9.99999e-01
1.291470541e+00,6.23419e-18,9.99999e-01,9.09494e-18,6.85457e-01,9.99999e-01
1.297927893e+00,4.10031e-06,9.99999e-01,5.93740e-06,6.90589e-01,9.99999e-01
1.304417533e+00,2.97764e-04,9.99999e-01,4.28032e-04,6.95658e-01,9.99999e-01
1.310939621e+00,6.08412e-05,9.99999e-01,8.68337e-05,7.00662e-01,9.99999e-01
1.317494319e+00,3.17769e-53,9.99999e-01,4.50351e-53,7.05603e-01,9.99999e-01
1.324081790e+00,4.42645e-24,9.99999e-01,6.23023e-24,7.10480e-01,9.99999e-01
1.330702199e+00,2.61131e-20,9.99999e-01,3.65069e-20,7.15293e-01,9.99999e-01
1.337355710e+00,1.99131e-18,9.99999e-01,2.76554e-18,7.20042e-01,9.99999e-01
1.344042489e+00,1.17645e-18,9.99999e-01,1.62330e-18,7.24729e-01,9.99999e-01
1.350762701e+00,1.24862e-20,9.99999e-01,1.71195e-20,7.29352e-01,9.99999e-01
1.357516515e+00,2.43238e-12,9.99999e-01,3.31426e-12,7.33913e-01,9.99999e-01
1.364304097e+00,3.73714e-09,9.99999e-01,5.06105e-09,7.38412e-01,9.99999e-01
1.371125618e+00,4.57284e-05,9.99999e-01,6.15582e-05,7.42848e-01,9.99999e-01
1.377981246e+00,1.60315e-04,9.99999e-01,2.14548e-04,7.47223e-01,9.99999e-01
1.384871152e+00,5.31266e-03,9.99999e-01,7.06906e-03,7.51536e-01,9.99999e-01
1.391795508e+00,8.13495e-03,9.99999e-01,1.07635e-02,7.55788e-01,9.99999e-01
1.398754485e+00,4.20994e-02,9.99999e-01,5.53954e-02,7.59980e-01,9.99999e-01
1.405748258e+00,9.41629e-02,9.99999e-01,1.23232e-01,7.64111e-01,9.99999e-01
1.412776999e+00,2.01794e-01,9.99999e-01,2.62690e-01,7.68182e-01,9.99999e-01
1.419840884e+00,1.95125e-01,9.99999e-01,2.52688e-01,7.72194e-01,9.99999e-01
1.426940089e+00,5.95470e-03,9.99999e-01,7.67211e-03,7.76148e-01,9.99999e-01
1.434074789e+00,0.00000e+00,9.99999e-01,0.00000e+00,7.80042e-01,9.99999e-01
1.441245163e+00,0.00000e+00,9.99999e-01,0.00000e+00,7.83879e-01,9.99999e-01
1.448451389e+00,0.00000e+00,9.99999e-01,0.00000e+00,7.87658e-01,9.99999e-01
1.455693646e+00,0.00000e+00,9.99999e-01,0.00000e+00,7.91381e-01,9.99999e-01
1.462972114e+00,0.00000e+00,9.99999e-01,0.00000e+00,7.95047e-01,9.99999e-01
1.470286975e+00,1.47681e-257,9.99999e-01,1.84912e-257,7.98657e-01,9.99999e-01
