#,Wave/freq,Total,O2,CO2,Rayleigh,CIA
4.000000000e-01,1.03363e-08,9.99999e-01,9.99999e-01,1.03363e-08,9.99999e-01
4.020000000e-01,1.48684e-08,9.99999e-01,9.99999e-01,1.48684e-08,9.99999e-01
4.040100000e-01,2.12267e-08,9.99999e-01,9.99999e-01,2.12267e-08,9.99999e-01
4.060300500e-01,3.00916e-08,9.99999e-01,9.99999e-01,3.00916e-08,9.99999e-01
4.080602003e-01,4.23657e-08,9.99999e-01,9.99999e-01,4.23657e-08,9.99999e-01
4.101005013e-01,5.92447e-08,9.99999e-01,9.99999e-01,5.92447e-08,9.99999e-01
4.121510038e-01,8.23014e-08,9.99999e-01,9.99999e-01,8.23014e-08,9.99999e-01
4.142117588e-01,1.13591e-07,9.99999e-01,9.99999e-01,1.13591e-07,9.99999e-01
4.162828176e-01,1.55783e-07,9.99999e-01,9.99999e-01,1.55783e-07,9.99999e-01
4.183642317e-01,2.12317e-07,9.99999e-01,9.99999e-01,2.12317e-07,9.99999e-01
4.204560528e-01,2.87603e-07,9.99999e-01,9.99999e-01,2.87603e-07,9.99999e-01
4.225583331e-01,3.87256e-07,9.99999e-01,9.99999e-01,3.87256e-07,9.99999e-01
4.246711247e-01,5.18383e-07,9.99999e-01,9.99999e-01,5.18383e-07,9.99999e-01
4.267944804e-01,6.89925e-07,9.99999e-01,9.99999e-01,6.89925e-07,9.99999e-01
4.289284528e-01,9.13063e-07,9.99999e-01,9.99999e-01,9.13063e-07,9.99999e-01
4.310730950e-01,1.20170e-06,9.99999e-01,9.99999e-01,1.20170e-06,9.99999e-01
4.332284605e-01,1.57302e-06,9.99999e-01,9.99999e-01,1.57302e-06,9.99999e-01
4.353946028e-01,2.04816e-06,9.99999e-01,9.99999e-01,2.04816e-06,9.99999e-01
4.375715758e-01,2.65294e-06,9.99999e-01,9.99999e-01,2.65294e-06,9.99999e-01
4.397594337e-01,3.41880e-06,9.99999e-01,9.99999e-01,3.41880e-06,9.99999e-01
4.419582309e-01,4.38372e-06,9.99999e-01,9.99999e-01,4.38372e-06,9.99999e-01
4.441680220e-01,5.59345e-06,9.99999e-01,9.99999e-01,5.59345e-06,9.99999e-01
4.463888621e-01,7.10274e-06,9.99999e-01,9.99999e-01,7.10274e-06,9.99999e-01
4.486208064e-01,8.97683e-06,9.99999e-01,9.99999e-01,8.97683e-06,9.99999e-01
4.508639105e-01,1.12931e-05,9.99999e-01,9.99999e-01,1.12931e-05,9.99999e-01
4.531182300e-01,1.41426e-05,9.99999e-01,9.99999e-01,1.41426e-05,9.99999e-01
4.553838212e-01,1.76327e-05,9.99999e-01,9.99999e-01,1.76327e-05,9.99999e-01
4.576607403e-01,2.18885e-05,9.99999e-01,9.99999e-01,2.18885e-05,9.99999e-01
4.599490440e-01,2.70557e-05,9.99999e-01,9.99999e-01,2.70557e-05,9.99999e-01
4.622487892e-01,3.33030e-05,9.99999e-01,9.99999e-01,3.33030e-05,9.99999e-01
4.645600332e-01,4.08249e-05,9.99999e-01,9.99999e-01,4.08249e-05,9.99999e-01
4.668828333e-01,4.98449e-05,9.99999e-01,9.99999e-01,4.98449e-05,9.99999e-01
4.692172475e-01,6.06182e-05,9.99999e-01,9.99999e-01,6.06182e-05,9.99999e-01
4.715633337e-01,7.34357e-05,9.99999e-01,9.99999e-01,7.34357e-05,9.99999e-01
4.739211504e-01,8.86269e-05,9.99999e-01,9.99999e-01,8.86269e-05,9.99999e-01
4.762907561e-01,1.06564e-04,9.99999e-01,9.99999e-01,1.06564e-04,9.99999e-01
4.786722099e-01,1.27666e-04,9.99999e-01,9.99999e-01,1.27666e-04,9.99999e-01
4.810655710e-01,1.52402e-04,9.99999e-01,9.99999e-01,1.52402e-04,9.99999e-01
4.834708988e-01,1.81295e-04,9.99999e-01,9.99999e-01,1.81295e-04,9.99999e-01
4.858882533e-01,2.14927e-04,9.99999e-01,9.99999e-01,2.14927e-04,9.99999e-01
4.883176946e-01,2.53944e-04,9.99999e-01,9.99999e-01,2.53944e-04,9.99999e-01
4.907592831e-01,2.99057e-04,9.99999e-01,9.99999e-01,2.99057e-04,9.99999e-01
4.932130795e-01,3.51048e-04,9.99999e-01,9.99999e-01,3.51048e-04,9.99999e-01
4.956791449e-01,4.10775e-04,9.99999e-01,9.99999e-01,4.10775e-04,9.99999e-01
4.981575406e-01,4.79174e-04,9.99999e-01,9.99999e-01,4.79174e-04,9.99999e-01
5.006483283e-01,5.57265e-04,9.99999e-01,9.99999e-01,5.57265e-04,9.99999e-01
5.031515699e-01,6.46153e-04,9.99999e-01,9.99999e-01,6.46153e-04,9.99999e-01
5.056673278e-01,7.47032e-04,9.99999e-01,9.99999e-01,7.47032e-04,9.99999e-01
5.081956644e-01,8.61189e-04,9.99999e-01,9.99999e-01,8.61189e-04,9.99999e-01
5.107366428e-01,9.90006e-04,9.99999e-01,9.99999e-01,9.90006e-04,9.99999e-01
5.132903260e-01,1.13496e-03,9.99999e-01,9.99999e-01,1.13496e-03,9.99999e-01
5.158567776e-01,1.29764e-03,9.99999e-01,9.99999e-01,1.29764e-03,9.99999e-01
5.184360615e-01,1.47970e-03,9.99999e-01,9.99999e-01,1.47970e-03,9.99999e-01
5.210282418e-01,1.68295e-03,9.99999e-01,9.99999e-01,1.68295e-03,9.99999e-01
5.236333830e-01,1.90925e-03,9.99999e-01,9.99999e-01,1.90925e-03,9.99999e-01
5.262515499e-01,2.16059e-03,9.99999e-01,9.99999e-01,2.16059e-03,9.99999e-01
5.288828077e-01,2.43905e-03,9.99999e-01,9.99999e-01,2.43905e-03,9.99999e-01
5.315272217e-01,2.74682e-03,9.99999e-01,9.99999e-01,2.74682e-03,9.99999e-01
5.341848578e-01,3.08617e-03,9.99999e-01,9.99999e-01,3.08617e-03,9.99999e-01
5.368557821e-01,3.45947e-03,9.99999e-01,9.99999e-01,3.45947e-03,9.99999e-01
5.395400610e-01,3.86920e-03,9.99999e-01,9.99999e-01,3.86920e-03,9.99999e-01
5.422377613e-01,4.31789e-03,9.99999e-01,9.99999e-01,4.31789e-03,9.99999e-01
5.449489501e-01,4.80818e-03,9.99999e-01,9.99999e-01,4.80818e-03,9.99999e-01
5.476736949e-01,5.34278e-03,9.99999e-01,9.99999e-01,5.34278e-03,9.99999e-01
5.504120634e-01,5.92447e-03,9.99999e-01,9.99999e-01,5.92447e-03,9.99999e-01
5.531641237e-01,6.55609e-03,9.99999e-01,9.99999e-01,6.55609e-03,9.99999e-01
5.559299443e-01,7.24055e-03,9.99999e-01,9.99999e-01,7.24055e-03,9.99999e-01
5.587095940e-01,7.98080e-03,9.99999e-01,9.99999e-01,7.98080e-03,9.99999e-01
5.615031420e-01,8.77983e-03,9.99999e-01,9.99999e-01,8.77983e-03,9.99999e-01
5.643106577e-01,9.64067e-03,9.99999e-01,9.99999e-01,9.64067e-03,9.99999e-01
5.671322110e-01,1.05664e-02,9.99999e-01,9.99999e-01,1.05664e-02,9.99999e-01
5.699678720e-01,1.15600e-02,9.99999e-01,9.99999e-01,1.15600e-02,9.99999e-01
5.728177114e-01,1.26247e-02,9.99999e-01,9.99999e-01,1.26247e-02,9.99999e-01
5.756818000e-01,1.37634e-02,9.99999e-01,9.99999e-01,1.37634e-02,9.99999e-01
5.785602090e-01,1.49793e-02,9.99999e-01,9.99999e-01,1.49793e-02,9.99999e-01
5.814530100e-01,1.62753e-02,9.99999e-01,9.99999e-01,1.62753e-02,9.99999e-01
5.843602750e-01,1.76545e-02,9.99999e-01,9.99999e-01,1.76545e-02,9.99999e-01
5.872820764e-01,1.91199e-02,9.99999e-01,9.99999e-01,1.91199e-02,9.99999e-01
5.902184868e-01,2.06742e-02,9.99999e-01,9.99999e-01,2.06742e-02,9.99999e-01
5.931695792e-01,2.23205e-02,9.99999e-01,9.99999e-01,2.23205e-02,9.99999e-01
5.961354271e-01,2.40614e-02,9.99999e-01,9.99999e-01,2.40614e-02,9.99999e-01
5.991161043e-01,2.58997e-02,9.99999e-01,9.99999e-01,2.58997e-02,9.99999e-01
6.021116848e-01,2.78378e-02,9.99999e-01,9.99999e-01,2.78378e-02,9.99999e-01
6.051222432e-01,2.98784e-02,9.99999e-01,9.99999e-01,2.98784e-02,9.99999e-01
6.081478544e-01,3.20238e-02,9.99999e-01,9.99999e-01,3.20238e-02,9.99999e-01
6.111885937e-01,3.42763e-02,9.99999e-01,9.99999e-01,3.42763e-02,9.99999e-01
6.142445367e-01,3.66380e-02,9.99999e-01,9.99999e-01,3.66380e-02,9.99999e-01
6.173157594e-01,3.91108e-02,9.99999e-01,9.99999e-01,3.91108e-02,9.99999e-01
6.204023382e-01,4.16968e-02,9.99999e-01,9.99999e-01,4.16968e-02,9.99999e-01
6.235043498e-01,4.43976e-02,9.99999e-01,9.99999e-01,4.43976e-02,9.99999e-01
6.266218716e-01,4.72147e-02,9.99999e-01,9.99999e-01,4.72147e-02,9.99999e-01
6.297549810e-01,5.01496e-02,9.99999e-01,9.99999e-01,5.01496e-02,9.99999e-01
6.329037559e-01,5.32035e-02,9.99999e-01,9.99999e-01,5.32035e-02,9.99999e-01
6.360682746e-01,5.63775e-02,9.99999e-01,9.99999e-01,5.63775e-02,9.99999e-01
6.392486160e-01,5.96726e-02,9.99999e-01,9.99999e-01,5.96726e-02,9.99999e-01
6.424448591e-01,6.30894e-02,9.99999e-01,9.99999e-01,6.30894e-02,9.99999e-01
6.456570834e-01,6.66285e-02,9.99999e-01,9.99999e-01,6.66285e-02,9.99999e-01
6.488853688e-01,7.02904e-02,9.99999e-01,9.99999e-01,7.02904e-02,9.99999e-01
6.521297956e-01,7.40751e-02,9.99999e-01,9.99999e-01,7.40751e-02,9.99999e-01
6.553904446e-01,7.79829e-02,9.99999e-01,9.99999e-01,7.79829e-02,9.99999e-01
6.586673968e-01,8.20134e-02,9.99999e-01,9.99999e-01,8.20134e-02,9.99999e-01
6.619607338e-01,8.61665e-02,9.99999e-01,9.99999e-01,8.61665e-02,9.99999e-01
6.652705375e-01,9.04416e-02,9.99999e-01,9.99999e-01,9.04416e-02,9.99999e-01
6.685968902e-01,9.48380e-02,9.99999e-01,9.99999e-01,9.48380e-02,9.99999e-01
6.719398746e-01,9.93550e-02,9.99999e-01,9.99999e-01,9.93550e-02,9.99999e-01
6.752995740e-01,1.03991e-01,9.99999e-01,9.99999e-01,1.03991e-01,9.99999e-01
6.786760719e-01,1.08746e-01,9.99999e-01,9.99999e-01,1.08746e-01,9.99999e-01
6.820694522e-01,1.13618e-01,9.99999e-01,9.99999e-01,1.13618e-01,9.99999e-01
6.854797995e-01,1.18605e-01,9.99999e-01,9.99999e-01,1.18605e-01,9.99999e-01
6.889071985e-01,1.23707e-01,9.99999e-01,9.99999e-01,1.23707e-01,9.99999e-01
6.923517345e-01,1.28920e-01,9.99999e-01,9.99999e-01,1.28920e-01,9.99999e-01
6.958134932e-01,1.34244e-01,9.99999e-01,9.99999e-01,1.34244e-01,9.99999e-01
6.992925606e-01,1.39676e-01,9.99999e-01,9.99999e-01,1.39676e-01,9.99999e-01
7.027890234e-01,1.45213e-01,9.99999e-01,9.99999e-01,1.45213e-01,9.99999e-01
7.063029686e-01,1.50855e-01,9.99999e-01,9.99999e-01,1.50855e-01,9.99999e-01
7.098344834e-01,1.56597e-01,9.99999e-01,9.99999e-01,1.56597e-01,9.99999e-01
7.133836558e-01,1.62439e-01,9.99999e-01,9.99999e-01,1.62439e-01,9.99999e-01
7.169505741e-01,1.68376e-01,9.99999e-01,9.99999e-01,1.68376e-01,9.99999e-01
7.205353270e-01,1.74407e-01,9.99999e-01,9.99999e-01,1.74407e-01,9.99999e-01
7.241380036e-01,1.80528e-01,9.99999e-01,9.99999e-01,1.80528e-01,9.99999e-01
7.277586936e-01,1.86736e-01,9.99999e-01,9.99999e-01,1.86736e-01,9.99999e-01
7.313974871e-01,1.93030e-01,9.99999e-01,9.99999e-01,1.93030e-01,9.99999e-01
7.350544745e-01,1.99404e-01,9.99999e-01,9.99999e-01,1.99404e-01,9.99999e-01
7.387297469e-01,2.05858e-01,9.99999e-01,9.99999e-01,2.05858e-01,9.99999e-01
7.424233956e-01,2.12386e-01,9.99999e-01,9.99999e-01,2.12386e-01,9.99999e-01
7.461355126e-01,2.18986e-01,9.99999e-01,9.99999e-01,2.18986e-01,9.99999e-01
7.498661902e-01,2.25655e-01,9.99999e-01,9.99999e-01,2.25655e-01,9.99999e-01
7.536155211e-01,2.32389e-01,9.99999e-01,9.99999e-01,2.32389e-01,9.99999e-01
7.573835987e-01,2.39185e-01,9.99999e-01,9.99999e-01,2.39185e-01,9.99999e-01
7.611705167e-01,2.46040e-01,9.99999e-01,9.99999e-01,2.46040e-01,9.99999e-01
7.649763693e-01,2.52950e-01,9.99999e-01,9.99999e-01,2.52950e-01,9.99999e-01
7.688012511e-01,2.59912e-01,9.99999e-01,9.99999e-01,2.59912e-01,9.99999e-01
7.726452574e-01,2.66923e-01,9.99999e-01,9.99999e-01,2.66923e-01,9.99999e-01
7.765084837e-01,2.73978e-01,9.99999e-01,9.99999e-01,2.73978e-01,9.99999e-01
7.803910261e-01,2.65576e-01,9.99999e-01,9.44858e-01,2.81075e-01,9.99999e-01
7.842929812e-01,2.21714e-01,9.99999e-01,7.69278e-01,2.88210e-01,9.99999e-01
7.882144461e-01,2.23409e-01,9.99999e-01,7.56342e-01,2.95380e-01,9.99999e-01
7.921555184e-01,2.56209e-01,9.99999e-01,8.46743e-01,3.02582e-01,9.99999e-01
7.961162960e-01,2.77009e-01,9.99999e-01,8.94121e-01,3.09811e-01,9.99999e-01
8.000968774e-01,2.98397e-01,9.99999e-01,9.41119e-01,3.17066e-01,9.99999e-01
8.040973618e-01,3.14295e-01,9.99999e-01,9.69024e-01,3.24342e-01,9.99999e-01
8.081178486e-01,3.26881e-01,9.99999e-01,9.85660e-01,3.31636e-01,9.99999e-01
8.121584379e-01,3.37437e-01,9.99999e-01,9.95547e-01,3.38946e-01,9.99999e-01
8.162192301e-01,3.45926e-01,9.99999e-01,9.99015e-01,3.46267e-01,9.99999e-01
8.203003262e-01,3.53592e-01,9.99999e-01,9.99984e-01,3.53597e-01,9.99999e-01
8.244018279e-01,3.60933e-01,9.99999e-01,9.99999e-01,3.60933e-01,9.99999e-01
8.285238370e-01,3.68272e-01,9.99999e-01,9.99999e-01,3.68272e-01,9.99999e-01
8.326664562e-01,3.75611e-01,9.99999e-01,9.99999e-01,3.75611e-01,9.99999e-01
8.368297885e-01,3.82946e-01,9.99999e-01,9.99999e-01,3.82946e-01,9.99999e-01
8.410139374e-01,3.90276e-01,9.99999e-01,9.99999e-01,3.90276e-01,9.99999e-01
8.452190071e-01,3.97597e-01,9.99999e-01,9.99999e-01,3.97597e-01,9.99999e-01
8.494451021e-01,4.04907e-01,9.99999e-01,9.99999e-01,4.04907e-01,9.99999e-01
8.536923276e-01,4.12203e-01,9.99999e-01,9.99999e-01,4.12203e-01,9.99999e-01
8.579607893e-01,4.19482e-01,9.99999e-01,9.99999e-01,4.19482e-01,9.99999e-01
8.622505932e-01,4.26743e-01,9.99999e-01,9.99999e-01,4.26743e-01,9.99999e-01
8.665618462e-01,3.89961e-01,9.99999e-01,8.98566e-01,4.33981e-01,9.99999e-01
8.708946554e-01,2.28967e-01,9.99999e-01,5.18968e-01,4.41196e-01,9.99999e-01
8.752491287e-01,2.62275e-01,9.99999e-01,5.84931e-01,4.48385e-01,9.99999e-01
8.796253743e-01,3.38098e-01,9.99999e-01,7.42182e-01,4.55546e-01,9.99999e-01
8.840235012e-01,3.95959e-01,9.99999e-01,8.55800e-01,4.62676e-01,9.99999e-01
8.884436187e-01,4.41738e-01,9.99999e-01,9.40321e-01,4.69774e-01,9.99999e-01
8.928858368e-01,4.65091e-01,9.99999e-01,9.75368e-01,4.76837e-01,9.99999e-01
8.973502660e-01,4.80941e-01,9.99999e-01,9.93959e-01,4.83863e-01,9.99999e-01
9.018370173e-01,4.90524e-01,9.99999e-01,9.99332e-01,4.90851e-01,9.99999e-01
9.063462024e-01,4.89413e-01,9.99999e-01,9.83151e-01,4.97800e-01,9.99999e-01
9.108779334e-01,4.85250e-01,9.99999e-01,9.61449e-01,5.04706e-01,9.99999e-01
9.154323231e-01,5.06867e-01,9.99999e-01,9.90807e-01,5.11569e-01,9.99999e-01
9.200094847e-01,4.56393e-01,9.99999e-01,8.80408e-01,5.18387e-01,9.99999e-01
9.246095321e-01,4.33431e-01,9.99999e-01,8.25334e-01,5.25158e-01,9.99999e-01
9.292325798e-01,4.58128e-01,9.99999e-01,8.61333e-01,5.31882e-01,9.99999e-01
9.338787427e-01,4.65828e-01,9.99999e-01,8.64957e-01,5.38556e-01,9.99999e-01
9.385481364e-01,4.89885e-01,9.99999e-01,8.98574e-01,5.45180e-01,9.99999e-01
9.432408771e-01,5.16711e-01,9.99999e-01,9.36490e-01,5.51752e-01,9.99999e-01
9.479570815e-01,5.39789e-01,9.99999e-01,9.66893e-01,5.58271e-01,9.99999e-01
9.526968669e-01,5.55646e-01,9.99999e-01,9.83903e-01,5.64736e-01,9.99999e-01
9.574603512e-01,5.67196e-01,9.99999e-01,9.93083e-01,5.71146e-01,9.99999e-01
9.622476530e-01,5.76252e-01,9.99999e-01,9.97837e-01,5.77500e-01,9.99999e-01
9.670588912e-01,5.83419e-01,9.99999e-01,9.99351e-01,5.83797e-01,9.99999e-01
9.718941857e-01,5.90009e-01,9.99999e-01,9.99953e-01,5.90036e-01,9.99999e-01
9.767536566e-01,5.96217e-01,9.99999e-01,9.99999e-01,5.96217e-01,9.99999e-01
9.816374249e-01,6.02339e-01,9.99999e-01,9.99999e-01,6.02339e-01,9.99999e-01
9.865456120e-01,6.08400e-01,9.99999e-01,9.99999e-01,6.08400e-01,9.99999e-01
9.914783401e-01,6.14402e-01,9.99999e-01,9.99999e-01,6.14402e-01,9.99999e-01
9.964357318e-01,6.20342e-01,9.99999e-01,9.99999e-01,6.20342e-01,9.99999e-01
1.001417910e+00,6.26220e-01,9.99999e-01,9.99999e-01,6.26220e-01,9.99999e-01
1.006425000e+00,6.32036e-01,9.99999e-01,9.99999e-01,6.32036e-01,9.99999e-01
1.011457125e+00,6.37790e-01,9.99999e-01,9.99999e-01,6.37790e-01,9.99999e-01
1.016514411e+00,6.43481e-01,9.99999e-01,9.99999e-01,6.43481e-01,9.99999e-01
1.021596983e+00,6.49051e-01,9.99999e-01,9.99910e-01,6.49109e-01,9.99999e-01
1.026704968e+00,6.50335e-01,9.99999e-01,9.93371e-01,6.54674e-01,9.99999e-01
1.031838492e+00,6.17303e-01,9.99999e-01,9.35059e-01,6.60175e-01,9.99999e-01
1.036997685e+00,6.00526e-02,9.99999e-01,9.02215e-02,6.65612e-01,9.99999e-01
1.042182673e+00,1.94163e-02,9.99999e-01,2.89370e-02,6.70985e-01,9.99999e-01
1.047393587e+00,3.30314e-02,9.99999e-01,4.88417e-02,6.76294e-01,9.99999e-01
1.052630555e+00,1.04654e-04,9.99999e-01,1.53555e-04,6.81540e-01,9.99999e-01
1.057893707e+00,3.48063e-04,9.99999e-01,5.06848e-04,6.86721e-01,9.99999e-01
1.063183176e+00,2.43024e-03,9.99999e-01,3.51273e-03,6.91837e-01,9.99999e-01
1.068499092e+00,1.17596e-02,9.99999e-01,1.68744e-02,6.96890e-01,9.99999e-01
1.073841587e+00,5.22641e-02,9.99999e-01,7.44630e-02,7.01879e-01,9.99999e-01
1.079210795e+00,1.36668e-01,9.99999e-01,1.93360e-01,7.06804e-01,9.99999e-01
1.084606849e+00,2.84735e-01,9.99999e-01,4.00096e-01,7.11665e-01,9.99999e-01
1.090029883e+00,4.44491e-01,9.99999e-01,6.20396e-01,7.16463e-01,9.99999e-01
1.095480033e+00,5.69809e-01,9.99999e-01,7.90087e-01,7.21197e-01,9.99999e-01
1.100957433e+00,6.47831e-01,9.99999e-01,8.92490e-01,7.25868e-01,9.99999e-01
1.106462220e+00,6.96891e-01,9.99999e-01,9.54023e-01,7.30476e-01,9.99999e-01
1.111994531e+00,7.22305e-01,9.99999e-01,9.82698e-01,7.35022e-01,9.99999e-01
1.117554504e+00,7.36361e-01,9.99999e-01,9.95747e-01,7.39505e-01,9.99999e-01
1.123142276e+00,7.43718e-01,9.99999e-01,9.99720e-01,7.43926e-01,9.99999e-01
1.128757988e+00,7.48285e-01,9.99999e-01,9.99999e-01,7.48285e-01,9.99999e-01
1.134401778e+00,7.52584e-01,9.99999e-01,9.99999e-01,7.52584e-01,9.99999e-01
1.140073787e+00,7.56821e-01,9.99999e-01,9.99999e-01,7.56821e-01,9.99999e-01
1.145774156e+00,7.60998e-01,9.99999e-01,9.99999e-01,7.60998e-01,9.99999e-01
1.151503026e+00,7.65114e-01,9.99999e-01,9.99999e-01,7.65114e-01,9.99999e-01
1.157260541e+00,7.69171e-01,9.99999e-01,9.99999e-01,7.69171e-01,9.99999e-01
1.163046844e+00,7.73169e-01,9.99999e-01,9.99999e-01,7.73169e-01,9.99999e-01
1.168862078e+00,7.77108e-01,9.99999e-01,9.99999e-01,7.77108e-01,9.99999e-01
1.174706389e+00,7.80988e-01,9.99999e-01,9.99999e-01,7.80988e-01,9.99999e-01
1.180579921e+00,7.84811e-01,9.99999e-01,9.99999e-01,7.84811e-01,9.99999e-01
1.186482820e+00,7.88567e-01,9.99999e-01,9.99987e-01,7.88576e-01,9.99999e-01
1.192415234e+00,7.73927e-01,9.99999e-01,9.76829e-01,7.92284e-01,9.99999e-01
1.198377311e+00,4.33126e-01,9.99999e-01,5.44171e-01,7.95937e-01,9.99999e-01
1.204369197e+00,3.41399e-18,9.99999e-01,4.26998e-18,7.99533e-01,9.99999e-01
1.210391043e+00,9.53603e-71,9.99999e-01,1.18744e-70,8.03074e-01,9.99999e-01
1.216442998e+00,2.37972e-61,9.99999e-01,2.95045e-61,8.06560e-01,9.99999e-01
1.222525213e+00,1.92022e-60,9.99999e-01,2.37066e-60,8.09993e-01,9.99999e-01
1.228637839e+00,9.16850e-47,9.99999e-01,1.12722e-46,8.13371e-01,9.99999e-01
1.234781029e+00,1.66531e-29,9.99999e-01,2.03908e-29,8.16697e-01,9.99999e-01
1.240954934e+00,9.44956e-20,9.99999e-01,1.15243e-19,8.19970e-01,9.99999e-01
1.247159708e+00,4.43207e-10,9.99999e-01,5.38401e-10,8.23191e-01,9.99999e-01
1.253395507e+00,9.63990e-07,9.99999e-01,1.16655e-06,8.26360e-01,9.99999e-01
1.259662485e+00,3.31041e-04,9.99999e-01,3.99095e-04,8.29479e-01,9.99999e-01
1.265960797e+00,9.72186e-03,9.99999e-01,1.16772e-02,8.32548e-01,9.99999e-01
1.272290601e+00,1.16580e-01,9.99999e-01,1.39521e-01,8.35567e-01,9.99999e-01
1.278652054e+00,1.00298e-01,9.99999e-01,1.19610e-01,8.38538e-01,9.99999e-01
1.285045314e+00,6.26158e-04,9.99999e-01,7.44133e-04,8.41459e-01,9.99999e-01
1.291470541e+00,7.87656e-09,9.99999e-01,9.32872e-09,8.44333e-01,9.99999e-01
1.297927893e+00,2.49870e-04,9.99999e-01,2.94950e-04,8.47160e-01,9.99999e-01
1.304417533e+00,2.30908e-02,9.99999e-01,2.71675e-02,8.49940e-01,9.99999e-01
1.310939621e+00,5.45970e-03,9.99999e-01,6.40303e-03,8.52674e-01,9.99999e-01
1.317494319e+00,1.46961e-24,9.99999e-01,1.71811e-24,8.55363e-01,9.99999e-01
1.324081790e+00,1.90012e-16,9.99999e-01,2.21457e-16,8.58006e-01,9.99999e-01
1.330702199e+00,9.24863e-10,9.99999e-01,1.07466e-09,8.60606e-01,9.99999e-01
1.337355710e+00,3.43852e-09,9.99999e-01,3.98364e-09,8.63161e-01,9.99999e-01
1.344042489e+00,1.34645e-09,9.99999e-01,1.55537e-09,8.65674e-01,9.99999e-01
1.350762701e+00,5.07946e-10,9.99999e-01,5.85094e-10,8.68144e-01,9.99999e-01
1.357516515e+00,1.74620e-06,9.99999e-01,2.00580e-06,8.70572e-01,9.99999e-01
1.364304097e+00,1.10017e-04,9.99999e-01,1.26028e-04,8.72959e-01,9.99999e-01
1.371125618e+00,8.65421e-03,9.99999e-01,9.88707e-03,8.75304e-01,9.99999e-01
1.377981246e+00,1.77828e-02,9.99999e-01,2.02627e-02,8.77610e-01,9.99999e-01
1.384871152e+00,9.09455e-02,9.99999e-01,1.03362e-01,8.79876e-01,9.99999e-01
1.391795508e+00,1.08328e-01,9.99999e-01,1.22806e-01,8.82103e-01,9.99999e-01
1.398754485e+00,2.39903e-01,9.99999e-01,2.71293e-01,8.84292e-01,9.99999e-01
1.405748258e+00,3.40689e-01,9.99999e-01,3.84333e-01,8.86442e-01,9.99999e-01
1.412776999e+00,4.84627e-01,9.99999e-01,5.45410e-01,8.88555e-01,9.99999e-01
1.419840884e+00,4.37050e-01,9.99999e-01,4.90719e-01,8.90631e-01,9.99999e-01
1.426940089e+00,2.55799e-02,9.99999e-01,2.86554e-02,8.92671e-01,9.99999e-01
1.434074789e+00,0.00000e+00,9.99999e-01,0.00000e+00,8.94675e-01,9.99999e-01
1.441245163e+00,0.00000e+00,9.99999e-01,0.00000e+00,8.96644e-01,9.99999e-01
1.448451389e+00,0.00000e+00,9.99999e-01,0.00000e+00,8.98579e-01,9.99999e-01
1.455693646e+00,0.00000e+00,9.99999e-01,0.00000e+00,9.00479e-01,9.99999e-01
1.462972114e+00,2.82761e-280,9.99999e-01,3.13362e-280,9.02345e-01,9.99999e-01
1.470286975e+00,1.19073e-116,9.99999e-01,1.31692e-116,9.04179e-01,9.99999e-01
