#,Wave/freq,Total,O2,CO2,Rayleigh,CIA
4.000000000e-01,8.69137e-03,9.99999e-01,9.99999e-01,8.69137e-03,9.99999e-01
4.020000000e-01,9.54636e-03,9.99999e-01,9.99999e-01,9.54636e-03,9.99999e-01
4.040100000e-01,1.04650e-02,9.99999e-01,9.99999e-01,1.04650e-02,9.99999e-01
4.060300500e-01,1.14513e-02,9.99999e-01,9.99999e-01,1.14513e-02,9.99999e-01
4.080602003e-01,1.25083e-02,9.99999e-01,9.99999e-01,1.25083e-02,9.99999e-01
4.101005013e-01,1.36390e-02,9.99999e-01,9.99999e-01,1.36390e-02,9.99999e-01
4.121510038e-01,1.48466e-02,9.99999e-01,9.99999e-01,1.48466e-02,9.99999e-01
4.142117588e-01,1.61340e-02,9.99999e-01,9.99999e-01,1.61340e-02,9.99999e-01
4.162828176e-01,1.75042e-02,9.99999e-01,9.99999e-01,1.75042e-02,9.99999e-01
4.183642317e-01,1.89603e-02,9.99999e-01,9.99999e-01,1.89603e-02,9.99999e-01
4.204560528e-01,2.05051e-02,9.99999e-01,9.99999e-01,2.05051e-02,9.99999e-01
4.225583331e-01,2.21415e-02,9.99999e-01,9.99999e-01,2.21415e-02,9.99999e-01
4.246711247e-01,2.38722e-02,9.99999e-01,9.99999e-01,2.38722e-02,9.99999e-01
4.267944804e-01,2.57000e-02,9.99999e-01,9.99999e-01,2.57000e-02,9.99999e-01
4.289284528e-01,2.76275e-02,9.99999e-01,9.99999e-01,2.76275e-02,9.99999e-01
4.310730950e-01,2.96571e-02,9.99999e-01,9.99999e-01,2.96571e-02,9.99999e-01
4.332284605e-01,3.17913e-02,9.99999e-01,9.99999e-01,3.17913e-02,9.99999e-01
4.353946028e-01,3.40323e-02,9.99999e-01,9.99999e-01,3.40323e-02,9.99999e-01
4.375715758e-01,3.63823e-02,9.99999e-01,9.99999e-01,3.63823e-02,9.99999e-01
4.397594337e-01,3.88433e-02,9.99999e-01,9.99999e-01,3.88433e-02,9.99999e-01
4.419582309e-01,4.14171e-02,9.99999e-01,9.99999e-01,4.14171e-02,9.99999e-01
4.441680220e-01,4.41057e-02,9.99999e-01,9.99999e-01,4.41057e-02,9.99999e-01
4.463888621e-01,4.69104e-02,9.99999e-01,9.99999e-01,4.69104e-02,9.99999e-01
4.486208064e-01,4.98327e-02,9.99999e-01,9.99999e-01,4.98327e-02,9.99999e-01
4.508639105e-01,5.28740e-02,9.99999e-01,9.99999e-01,5.28740e-02,9.99999e-01
4.531182300e-01,5.60352e-02,9.99999e-01,9.99999e-01,5.60352e-02,9.99999e-01
4.553838212e-01,5.93174e-02,9.99999e-01,9.99999e-01,5.93174e-02,9.99999e-01
4.576607403e-01,6.27212e-02,9.99999e-01,9.99999e-01,6.27212e-02,9.99999e-01
4.599490440e-01,6.62474e-02,9.99999e-01,9.99999e-01,6.62474e-02,9.99999e-01
4.622487892e-01,6.98962e-02,9.99999e-01,9.99999e-01,6.98962e-02,9.99999e-01
4.645600332e-01,7.36679e-02,9.99999e-01,9.99999e-01,7.36679e-02,9.99999e-01
4.668828333e-01,7.75626e-02,9.99999e-01,9.99999e-01,7.75626e-02,9.99999e-01
4.692172475e-01,8.15802e-02,9.99999e-01,9.99999e-01,8.15802e-02,9.99999e-01
4.715633337e-01,8.57203e-02,9.99999e-01,9.99999e-01,8.57203e-02,9.99999e-01
4.739211504e-01,8.99824e-02,9.99999e-01,9.99999e-01,8.99824e-02,9.99999e-01
4.762907561e-01,9.43660e-02,9.99999e-01,9.99999e-01,9.43660e-02,9.99999e-01
4.786722099e-01,9.88702e-02,9.99999e-01,9.99999e-01,9.88702e-02,9.99999e-01
4.810655710e-01,1.03494e-01,9.99999e-01,9.99999e-01,1.03494e-01,9.99999e-01
4.834708988e-01,1.08236e-01,9.99999e-01,9.99999e-01,1.08236e-01,9.99999e-01
4.858882533e-01,1.13096e-01,9.99999e-01,9.99999e-01,1.13096e-01,9.99999e-01
4.883176946e-01,1.18071e-01,9.99999e-01,9.99999e-01,1.18071e-01,9.99999e-01
4.907592831e-01,1.23160e-01,9.99999e-01,9.99999e-01,1.23160e-01,9.99999e-01
4.932130795e-01,1.28362e-01,9.99999e-01,9.99999e-01,1.28362e-01,9.99999e-01
4.956791449e-01,1.33674e-01,9.99999e-01,9.99999e-01,1.33674e-01,9.99999e-01
4.981575406e-01,1.39094e-01,9.99999e-01,9.99999e-01,1.39094e-01,9.99999e-01
5.006483283e-01,1.44621e-01,9.99999e-01,9.99999e-01,1.44621e-01,9.99999e-01
5.031515699e-01,1.50252e-01,9.99999e-01,9.99999e-01,1.50252e-01,9.99999e-01
5.056673278e-01,1.55984e-01,9.99999e-01,9.99999e-01,1.55984e-01,9.99999e-01
5.081956644e-01,1.61815e-01,9.99999e-01,9.99999e-01,1.61815e-01,9.99999e-01
5.107366428e-01,1.67742e-01,9.99999e-01,9.99999e-01,1.67742e-01,9.99999e-01
5.132903260e-01,1.73763e-01,9.99999e-01,9.99999e-01,1.73763e-01,9.99999e-01
5.158567776e-01,1.79874e-01,9.99999e-01,9.99999e-01,1.79874e-01,9.99999e-01
5.184360615e-01,1.86074e-01,9.99999e-01,9.99999e-01,1.86074e-01,9.99999e-01
5.210282418e-01,1.92358e-01,9.99999e-01,9.99999e-01,1.92358e-01,9.99999e-01
5.236333830e-01,1.98725e-01,9.99999e-01,9.99999e-01,1.98725e-01,9.99999e-01
5.262515499e-01,2.05170e-01,9.99999e-01,9.99999e-01,2.05170e-01,9.99999e-01
5.288828077e-01,2.11690e-01,9.99999e-01,9.99999e-01,2.11690e-01,9.99999e-01
5.315272217e-01,2.18283e-01,9.99999e-01,9.99999e-01,2.18283e-01,9.99999e-01
5.341848578e-01,2.24945e-01,9.99999e-01,9.99999e-01,2.24945e-01,9.99999e-01
5.368557821e-01,2.31672e-01,9.99999e-01,9.99999e-01,2.31672e-01,9.99999e-01
5.395400610e-01,2.38462e-01,9.99999e-01,9.99999e-01,2.38462e-01,9.99999e-01
5.422377613e-01,2.45311e-01,9.99999e-01,9.99999e-01,2.45311e-01,9.99999e-01
5.449489501e-01,2.52215e-01,9.99999e-01,9.99999e-01,2.52215e-01,9.99999e-01
5.476736949e-01,2.59172e-01,9.99999e-01,9.99999e-01,2.59172e-01,9.99999e-01
5.504120634e-01,2.66177e-01,9.99999e-01,9.99999e-01,2.66177e-01,9.99999e-01
5.531641237e-01,2.73228e-01,9.99999e-01,9.99999e-01,2.73228e-01,9.99999e-01
5.559299443e-01,2.80321e-01,9.99999e-01,9.99999e-01,2.80321e-01,9.99999e-01
5.587095940e-01,2.87452e-01,9.99999e-01,9.99999e-01,2.87452e-01,9.99999e-01
5.615031420e-01,2.94618e-01,9.99999e-01,9.99999e-01,2.94618e-01,9.99999e-01
5.643106577e-01,3.01817e-01,9.99999e-01,9.99999e-01,3.01817e-01,9.99999e-01
5.671322110e-01,3.09043e-01,9.99999e-01,9.99999e-01,3.09043e-01,9.99999e-01
5.699678720e-01,3.16295e-01,9.99999e-01,9.99999e-01,3.16295e-01,9.99999e-01
5.728177114e-01,3.23569e-01,9.99999e-01,9.99999e-01,3.23569e-01,9.99999e-01
5.756818000e-01,3.30862e-01,9.99999e-01,9.99999e-01,3.30862e-01,9.99999e-01
5.785602090e-01,3.38170e-01,9.99999e-01,9.99999e-01,3.38170e-01,9.99999e-01
5.814530100e-01,3.45490e-01,9.99999e-01,9.99999e-01,3.45490e-01,9.99999e-01
5.843602750e-01,3.52820e-01,9.99999e-01,9.99999e-01,3.52820e-01,9.99999e-01
5.872820764e-01,3.60155e-01,9.99999e-01,9.99999e-01,3.60155e-01,9.99999e-01
5.902184868e-01,3.67494e-01,9.99999e-01,9.99999e-01,3.67494e-01,9.99999e-01
5.931695792e-01,3.74833e-01,9.99999e-01,9.99999e-01,3.74833e-01,9.99999e-01
5.961354271e-01,3.82169e-01,9.99999e-01,9.99999e-01,3.82169e-01,9.99999e-01
5.991161043e-01,3.89499e-01,9.99999e-01,9.99999e-01,3.89499e-01,9.99999e-01
6.021116848e-01,3.96821e-01,9.99999e-01,9.99999e-01,3.96821e-01,9.99999e-01
6.051222432e-01,4.04133e-01,9.99999e-01,9.99999e-01,4.04133e-01,9.99999e-01
6.081478544e-01,4.11430e-01,9.99999e-01,9.99999e-01,4.11430e-01,9.99999e-01
6.111885937e-01,4.18711e-01,9.99999e-01,9.99999e-01,4.18711e-01,9.99999e-01
6.142445367e-01,4.25974e-01,9.99999e-01,9.99999e-01,4.25974e-01,9.99999e-01
6.173157594e-01,4.33215e-01,9.99999e-01,9.99999e-01,4.33215e-01,9.99999e-01
6.204023382e-01,4.40432e-01,9.99999e-01,9.99999e-01,4.40432e-01,9.99999e-01
6.235043498e-01,4.47624e-01,9.99999e-01,9.99999e-01,4.47624e-01,9.99999e-01
6.266218716e-01,4.54788e-01,9.99999e-01,9.99999e-01,4.54788e-01,9.99999e-01
6.297549810e-01,4.61921e-01,9.99999e-01,9.99999e-01,4.61921e-01,9.99999e-01
6.329037559e-01,4.69022e-01,9.99999e-01,9.99999e-01,4.69022e-01,9.99999e-01
6.360682746e-01,4.76089e-01,9.99999e-01,9.99999e-01,4.76089e-01,9.99999e-01
6.392486160e-01,4.83120e-01,9.99999e-01,9.99999e-01,4.83120e-01,9.99999e-01
6.424448591e-01,4.90112e-01,9.99999e-01,9.99999e-01,4.90112e-01,9.99999e-01
6.456570834e-01,4.97065e-01,9.99999e-01,9.99999e-01,4.97065e-01,9.99999e-01
6.488853688e-01,5.03976e-01,9.99999e-01,9.99999e-01,5.03976e-01,9.99999e-01
6.521297956e-01,5.10843e-01,9.99999e-01,9.99999e-01,5.10843e-01,9.99999e-01
6.553904446e-01,5.17666e-01,9.99999e-01,9.99999e-01,5.17666e-01,9.99999e-01
6.586673968e-01,5.24443e-01,9.99999e-01,9.99999e-01,5.24443e-01,9.99999e-01
6.619607338e-01,5.31171e-01,9.99999e-01,9.99999e-01,5.31171e-01,9.99999e-01
6.652705375e-01,5.37851e-01,9.99999e-01,9.99999e-01,5.37851e-01,9.99999e-01
6.685968902e-01,5.44480e-01,9.99999e-01,9.99999e-01,5.44480e-01,9.99999e-01
6.719398746e-01,5.51057e-01,9.99999e-01,9.99999e-01,5.51057e-01,9.99999e-01
6.752995740e-01,5.57582e-01,9.99999e-01,9.99999e-01,5.57582e-01,9.99999e-01
6.786760719e-01,5.64053e-01,9.99999e-01,9.99999e-01,5.64053e-01,9.99999e-01
6.820694522e-01,5.70469e-01,9.99999e-01,9.99999e-01,5.70469e-01,9.99999e-01
6.854797995e-01,5.76829e-01,9.99999e-01,9.99999e-01,5.76829e-01,9.99999e-01
6.889071985e-01,5.83132e-01,9.99999e-01,9.99999e-01,5.83132e-01,9.99999e-01
6.923517345e-01,5.89378e-01,9.99999e-01,9.99999e-01,5.89378e-01,9.99999e-01
6.958134932e-01,5.95565e-01,9.99999e-01,9.99999e-01,5.95565e-01,9.99999e-01
6.992925606e-01,6.01692e-01,9.99999e-01,9.99999e-01,6.01692e-01,9.99999e-01
7.027890234e-01,6.07760e-01,9.99999e-01,9.99999e-01,6.07760e-01,9.99999e-01
7.063029686e-01,6.13768e-01,9.99999e-01,9.99999e-01,6.13768e-01,9.99999e-01
7.098344834e-01,6.19715e-01,9.99999e-01,9.99999e-01,6.19715e-01,9.99999e-01
7.133836558e-01,6.25600e-01,9.99999e-01,9.99999e-01,6.25600e-01,9.99999e-01
7.169505741e-01,6.31423e-01,9.99999e-01,9.99999e-01,6.31423e-01,9.99999e-01
7.205353270e-01,6.37183e-01,9.99999e-01,9.99999e-01,6.37183e-01,9.99999e-01
7.241380036e-01,6.42881e-01,9.99999e-01,9.99999e-01,6.42881e-01,9.99999e-01
7.277586936e-01,6.48516e-01,9.99999e-01,9.99999e-01,6.48516e-01,9.99999e-01
7.313974871e-01,6.54087e-01,9.99999e-01,9.99999e-01,6.54087e-01,9.99999e-01
7.350544745e-01,6.59595e-01,9.99999e-01,9.99999e-01,6.59595e-01,9.99999e-01
7.387297469e-01,6.65038e-01,9.99999e-01,9.99999e-01,6.65038e-01,9.99999e-01
7.424233956e-01,6.70418e-01,9.99999e-01,9.99999e-01,6.70418e-01,9.99999e-01
7.461355126e-01,6.75734e-01,9.99999e-01,9.99999e-01,6.75734e-01,9.99999e-01
7.498661902e-01,6.80986e-01,9.99999e-01,9.99999e-01,6.80986e-01,9.99999e-01
7.536155211e-01,6.86174e-01,9.99999e-01,9.99999e-01,6.86174e-01,9.99999e-01
7.573835987e-01,6.91298e-01,9.99999e-01,9.99999e-01,6.91298e-01,9.99999e-01
7.611705167e-01,6.96357e-01,9.99999e-01,9.99999e-01,6.96357e-01,9.99999e-01
7.649763693e-01,7.01353e-01,9.99999e-01,9.99999e-01,7.01353e-01,9.99999e-01
7.688012511e-01,7.06285e-01,9.99999e-01,9.99999e-01,7.06285e-01,9.99999e-01
7.726452574e-01,7.11152e-01,9.99999e-01,9.99999e-01,7.11152e-01,9.99999e-01
7.765084837e-01,7.15957e-01,9.99999e-01,9.99999e-01,7.15957e-01,9.99999e-01
7.803910261e-01,7.08509e-01,9.99999e-01,9.83086e-01,7.20698e-01,9.99999e-01
7.842929812e-01,6.76237e-01,9.99999e-01,9.32257e-01,7.25375e-01,9.99999e-01
7.882144461e-01,6.76701e-01,9.99999e-01,9.26999e-01,7.29990e-01,9.99999e-01
7.921555184e-01,7.03275e-01,9.99999e-01,9.57432e-01,7.34542e-01,9.99999e-01
7.961162960e-01,7.18014e-01,9.99999e-01,9.71559e-01,7.39032e-01,9.99999e-01
8.000968774e-01,7.31912e-01,9.99999e-01,9.84466e-01,7.43460e-01,9.99999e-01
8.040973618e-01,7.41809e-01,9.99999e-01,9.91953e-01,7.47826e-01,9.99999e-01
8.081178486e-01,7.49339e-01,9.99999e-01,9.96288e-01,7.52131e-01,9.99999e-01
8.121584379e-01,7.55513e-01,9.99999e-01,9.98860e-01,7.56374e-01,9.99999e-01
8.162192301e-01,7.60366e-01,9.99999e-01,9.99748e-01,7.60558e-01,9.99999e-01
8.203003262e-01,7.64678e-01,9.99999e-01,9.99996e-01,7.64680e-01,9.99999e-01
8.244018279e-01,7.68744e-01,9.99999e-01,9.99999e-01,7.68744e-01,9.99999e-01
8.285238370e-01,7.72748e-01,9.99999e-01,9.99999e-01,7.72748e-01,9.99999e-01
8.326664562e-01,7.76693e-01,9.99999e-01,9.99999e-01,7.76693e-01,9.99999e-01
8.368297885e-01,7.80579e-01,9.99999e-01,9.99999e-01,7.80579e-01,9.99999e-01
8.410139374e-01,7.84408e-01,9.99999e-01,9.99999e-01,7.84408e-01,9.99999e-01
8.452190071e-01,7.88179e-01,9.99999e-01,9.99999e-01,7.88179e-01,9.99999e-01
8.494451021e-01,7.91894e-01,9.99999e-01,9.99999e-01,7.91894e-01,9.99999e-01
8.536923276e-01,7.95552e-01,9.99999e-01,9.99999e-01,7.95552e-01,9.99999e-01
8.579607893e-01,7.99154e-01,9.99999e-01,9.99999e-01,7.99154e-01,9.99999e-01
8.622505932e-01,8.02701e-01,9.99999e-01,9.99999e-01,8.02701e-01,9.99999e-01
8.665618462e-01,7.69869e-01,9.99999e-01,9.54942e-01,8.06193e-01,9.99999e-01
8.708946554e-01,6.75062e-01,9.99999e-01,8.33788e-01,8.09631e-01,9.99999e-01
8.752491287e-01,7.03961e-01,9.99999e-01,8.65864e-01,8.13015e-01,9.99999e-01
8.796253743e-01,7.54968e-01,9.99999e-01,9.24813e-01,8.16346e-01,9.99999e-01
8.840235012e-01,7.87240e-01,9.99999e-01,9.60487e-01,8.19625e-01,9.99999e-01
8.884436187e-01,8.09954e-01,9.99999e-01,9.84324e-01,8.22852e-01,9.99999e-01
8.928858368e-01,8.20753e-01,9.99999e-01,9.93614e-01,8.26027e-01,9.99999e-01
8.973502660e-01,8.27869e-01,9.99999e-01,9.98452e-01,8.29151e-01,9.99999e-01
9.018370173e-01,8.32084e-01,9.99999e-01,9.99829e-01,8.32225e-01,9.99999e-01
9.063462024e-01,8.31490e-01,9.99999e-01,9.95498e-01,8.35250e-01,9.99999e-01
9.108779334e-01,8.29775e-01,9.99999e-01,9.89918e-01,8.38225e-01,9.99999e-01
9.154323231e-01,8.39171e-01,9.99999e-01,9.97644e-01,8.41152e-01,9.99999e-01
9.200094847e-01,8.13910e-01,9.99999e-01,9.64312e-01,8.44031e-01,9.99999e-01
9.246095321e-01,8.05779e-01,9.99999e-01,9.51487e-01,8.46863e-01,9.99999e-01
9.292325798e-01,8.16740e-01,9.99999e-01,9.61268e-01,8.49647e-01,9.99999e-01
9.338787427e-01,8.20812e-01,9.99999e-01,9.62956e-01,8.52386e-01,9.99999e-01
9.385481364e-01,8.31735e-01,9.99999e-01,9.72697e-01,8.55080e-01,9.99999e-01
9.432408771e-01,8.43367e-01,9.99999e-01,9.83256e-01,8.57728e-01,9.99999e-01
9.479570815e-01,8.52903e-01,9.99999e-01,9.91364e-01,8.60332e-01,9.99999e-01
9.526968669e-01,8.59297e-01,9.99999e-01,9.95833e-01,8.62892e-01,9.99999e-01
9.574603512e-01,8.63868e-01,9.99999e-01,9.98218e-01,8.65409e-01,9.99999e-01
9.622476530e-01,8.67402e-01,9.99999e-01,9.99444e-01,8.67884e-01,9.99999e-01
9.670588912e-01,8.70172e-01,9.99999e-01,9.99833e-01,8.70316e-01,9.99999e-01
9.718941857e-01,8.72697e-01,9.99999e-01,9.99987e-01,8.72707e-01,9.99999e-01
9.767536566e-01,8.75058e-01,9.99999e-01,9.99999e-01,8.75058e-01,9.99999e-01
9.816374249e-01,8.77368e-01,9.99999e-01,9.99999e-01,8.77368e-01,9.99999e-01
9.865456120e-01,8.79638e-01,9.99999e-01,9.99999e-01,8.79638e-01,9.99999e-01
9.914783401e-01,8.81869e-01,9.99999e-01,9.99999e-01,8.81869e-01,9.99999e-01
9.964357318e-01,8.84061e-01,9.99999e-01,9.99999e-01,8.84061e-01,9.99999e-01
1.001417910e+00,8.86216e-01,9.99999e-01,9.99999e-01,8.86216e-01,9.99999e-01
1.006425000e+00,8.88333e-01,9.99999e-01,9.99999e-01,8.88333e-01,9.99999e-01
1.011457125e+00,8.90413e-01,9.99999e-01,9.99999e-01,8.90413e-01,9.99999e-01
1.016514411e+00,8.92457e-01,9.99999e-01,9.99999e-01,8.92457e-01,9.99999e-01
1.021596983e+00,8.94441e-01,9.99999e-01,9.99973e-01,8.94465e-01,9.99999e-01
1.026704968e+00,8.94864e-01,9.99999e-01,9.98244e-01,8.96437e-01,9.99999e-01
1.031838492e+00,8.73674e-01,9.99999e-01,9.72504e-01,8.98375e-01,9.99999e-01
1.036997685e+00,2.68844e-01,9.99999e-01,2.98623e-01,9.00279e-01,9.99999e-01
1.042182673e+00,3.25989e-01,9.99999e-01,3.61347e-01,9.02149e-01,9.99999e-01
1.047393587e+00,2.97382e-01,9.99999e-01,3.28968e-01,9.03986e-01,9.99999e-01
1.052630555e+00,4.92011e-02,9.99999e-01,5.43184e-02,9.05790e-01,9.99999e-01
1.057893707e+00,9.15995e-02,9.99999e-01,1.00929e-01,9.07562e-01,9.99999e-01
1.063183176e+00,1.72733e-01,9.99999e-01,1.89961e-01,9.09302e-01,9.99999e-01
1.068499092e+00,3.00699e-01,9.99999e-01,3.30071e-01,9.11012e-01,9.99999e-01
1.073841587e+00,4.54693e-01,9.99999e-01,4.98189e-01,9.12690e-01,9.99999e-01
1.079210795e+00,5.89151e-01,9.99999e-01,6.44346e-01,9.14339e-01,9.99999e-01
1.084606849e+00,7.20912e-01,9.99999e-01,7.87057e-01,9.15958e-01,9.99999e-01
1.090029883e+00,8.10507e-01,9.99999e-01,8.83340e-01,9.17547e-01,9.99999e-01
1.095480033e+00,8.64735e-01,9.99999e-01,9.40841e-01,9.19108e-01,9.99999e-01
1.100957433e+00,8.94017e-01,9.99999e-01,9.71080e-01,9.20641e-01,9.99999e-01
1.106462220e+00,9.11042e-01,9.99999e-01,9.87958e-01,9.22146e-01,9.99999e-01
1.111994531e+00,9.19487e-01,9.99999e-01,9.95521e-01,9.23623e-01,9.99999e-01
1.117554504e+00,9.24065e-01,9.99999e-01,9.98909e-01,9.25074e-01,9.99999e-01
1.123142276e+00,9.26432e-01,9.99999e-01,9.99928e-01,9.26498e-01,9.99999e-01
1.128757988e+00,9.27896e-01,9.99999e-01,9.99999e-01,9.27896e-01,9.99999e-01
1.134401778e+00,9.29269e-01,9.99999e-01,9.99999e-01,9.29269e-01,9.99999e-01
1.140073787e+00,9.30616e-01,9.99999e-01,9.99999e-01,9.30616e-01,9.99999e-01
1.145774156e+00,9.31939e-01,9.99999e-01,9.99999e-01,9.31939e-01,9.99999e-01
1.151503026e+00,9.33237e-01,9.99999e-01,9.99999e-01,9.33237e-01,9.99999e-01
1.157260541e+00,9.34512e-01,9.99999e-01,9.99999e-01,9.34512e-01,9.99999e-01
1.163046844e+00,9.35763e-01,9.99999e-01,9.99999e-01,9.35763e-01,9.99999e-01
1.168862078e+00,9.36991e-01,9.99999e-01,9.99999e-01,9.36991e-01,9.99999e-01
1.174706389e+00,9.38196e-01,9.99999e-01,9.99999e-01,9.38196e-01,9.99999e-01
1.180579921e+00,9.39379e-01,9.99999e-01,9.99999e-01,9.39379e-01,9.99999e-01
1.186482820e+00,9.40537e-01,9.99999e-01,9.99995e-01,9.40540e-01,9.99999e-01
1.192415234e+00,9.35717e-01,9.99999e-01,9.93667e-01,9.41680e-01,9.99999e-01
1.198377311e+00,5.53428e-01,9.99999e-01,5.87006e-01,9.42798e-01,9.99999e-01
1.204369197e+00,2.30882e-06,9.99999e-01,2.44605e-06,9.43896e-01,9.99999e-01
1.210391043e+00,6.24264e-20,9.99999e-01,6.60615e-20,9.44973e-01,9.99999e-01
1.216442998e+00,1.69027e-17,9.99999e-01,1.78670e-17,9.46030e-01,9.99999e-01
1.222525213e+00,3.04703e-17,9.99999e-01,3.21733e-17,9.47067e-01,9.99999e-01
1.228637839e+00,2.97814e-13,9.99999e-01,3.14121e-13,9.48085e-01,9.99999e-01
1.234781029e+00,2.95237e-09,9.99999e-01,3.11075e-09,9.49084e-01,9.99999e-01
1.240954934e+00,2.83591e-06,9.99999e-01,2.98496e-06,9.50064e-01,9.99999e-01
1.247159708e+00,7.49439e-04,9.99999e-01,7.88031e-04,9.51026e-01,9.99999e-01
1.253395507e+00,1.88706e-02,9.99999e-01,1.98226e-02,9.51969e-01,9.99999e-01
1.259662485e+00,1.03193e-01,9.99999e-01,1.08294e-01,9.52895e-01,9.99999e-01
1.265960797e+00,2.63504e-01,9.99999e-01,2.76266e-01,9.53804e-01,9.99999e-01
1.272290601e+00,5.63610e-01,9.99999e-01,5.90355e-01,9.54695e-01,9.99999e-01
1.278652054e+00,4.98158e-01,9.99999e-01,5.21319e-01,9.55570e-01,9.99999e-01
1.285045314e+00,3.22912e-02,9.99999e-01,3.37622e-02,9.56428e-01,9.99999e-01
1.291470541e+00,5.08737e-03,9.99999e-01,5.31445e-03,9.57270e-01,9.99999e-01
1.297927893e+00,7.47186e-02,9.99999e-01,7.79864e-02,9.58096e-01,9.99999e-01
1.304417533e+00,3.68788e-01,9.99999e-01,3.84592e-01,9.58907e-01,9.99999e-01
1.310939621e+00,7.10862e-02,9.99999e-01,7.40711e-02,9.59702e-01,9.99999e-01
1.317494319e+00,2.69556e-07,9.99999e-01,2.80646e-07,9.60482e-01,9.99999e-01
1.324081790e+00,2.07027e-05,9.99999e-01,2.15373e-05,9.61247e-01,9.99999e-01
1.330702199e+00,3.29494e-03,9.99999e-01,3.42509e-03,9.61998e-01,9.99999e-01
1.337355710e+00,2.33556e-03,9.99999e-01,2.42596e-03,9.62734e-01,9.99999e-01
1.344042489e+00,8.12558e-04,9.99999e-01,8.43376e-04,9.63457e-01,9.99999e-01
1.350762701e+00,2.59922e-03,9.99999e-01,2.69582e-03,9.64165e-01,9.99999e-01
1.357516515e+00,1.95924e-02,9.99999e-01,2.03059e-02,9.64861e-01,9.99999e-01
1.364304097e+00,8.58137e-02,9.99999e-01,8.88761e-02,9.65543e-01,9.99999e-01
1.371125618e+00,2.68919e-01,9.99999e-01,2.78322e-01,9.66212e-01,9.99999e-01
1.377981246e+00,3.48097e-01,9.99999e-01,3.60026e-01,9.66868e-01,9.99999e-01
1.384871152e+00,5.34068e-01,9.99999e-01,5.52001e-01,9.67512e-01,9.99999e-01
1.391795508e+00,5.59347e-01,9.99999e-01,5.77752e-01,9.68143e-01,9.99999e-01
1.398754485e+00,6.91504e-01,9.99999e-01,7.13801e-01,9.68762e-01,9.99999e-01
1.405748258e+00,7.55915e-01,9.99999e-01,7.79799e-01,9.69370e-01,9.99999e-01
1.412776999e+00,8.29284e-01,9.99999e-01,8.54962e-01,9.69965e-01,9.99999e-01
1.419840884e+00,7.68466e-01,9.99999e-01,7.91783e-01,9.70550e-01,9.99999e-01
1.426940089e+00,1.04740e-01,9.99999e-01,1.07855e-01,9.71123e-01,9.99999e-01
1.434074789e+00,6.41146e-279,9.99999e-01,6.59828e-279,9.71685e-01,9.99999e-01
1.441245163e+00,0.00000e+00,9.99999e-01,0.00000e+00,9.72237e-01,9.99999e-01
1.448451389e+00,0.00000e+00,9.99999e-01,0.00000e+00,9.72778e-01,9.99999e-01
1.455693646e+00,1.79728e-151,9.99999e-01,1.84657e-151,9.73308e-01,9.99999e-01
1.462972114e+00,5.08411e-74,9.99999e-01,5.22074e-74,9.73828e-01,9.99999e-01
1.470286975e+00,8.89696e-32,9.99999e-01,9.13127e-32,9.74339e-01,9.99999e-01
