#,Wave/freq,Total,O2,CO2,Rayleigh,CIA
4.000000000e-01,4.81708e-06,9.99999e-01,9.99999e-01,4.81708e-06,9.99999e-01
4.020000000e-01,6.13652e-06,9.99999e-01,9.99999e-01,6.13652e-06,9.99999e-01
4.040100000e-01,7.77810e-06,9.99999e-01,9.99999e-01,7.77810e-06,9.99999e-01
4.060300500e-01,9.81277e-06,9.99999e-01,9.99999e-01,9.81277e-06,9.99999e-01
4.080602003e-01,1.23230e-05,9.99999e-01,9.99999e-01,1.23230e-05,9.99999e-01
4.101005013e-01,1.54059e-05,9.99999e-01,9.99999e-01,1.54059e-05,9.99999e-01
4.121510038e-01,1.91753e-05,9.99999e-01,9.99999e-01,1.91753e-05,9.99999e-01
4.142117588e-01,2.37640e-05,9.99999e-01,9.99999e-01,2.37640e-05,9.99999e-01
4.162828176e-01,2.93262e-05,9.99999e-01,9.99999e-01,2.93262e-05,9.99999e-01
4.183642317e-01,3.60404e-05,9.99999e-01,9.99999e-01,3.60404e-05,9.99999e-01
4.204560528e-01,4.41117e-05,9.99999e-01,9.99999e-01,4.41117e-05,9.99999e-01
4.225583331e-01,5.37755e-05,9.99999e-01,9.99999e-01,5.37755e-05,9.99999e-01
4.246711247e-01,6.53004e-05,9.99999e-01,9.99999e-01,6.53004e-05,9.99999e-01
4.267944804e-01,7.89918e-05,9.99999e-01,9.99999e-01,7.89918e-05,9.99999e-01
4.289284528e-01,9.51951e-05,9.99999e-01,9.99999e-01,9.51951e-05,9.99999e-01
4.310730950e-01,1.14300e-04,9.99999e-01,9.99999e-01,1.14300e-04,9.99999e-01
4.332284605e-01,1.36745e-04,9.99999e-01,9.99999e-01,1.36745e-04,9.99999e-01
4.353946028e-01,1.63018e-04,9.99999e-01,9.99999e-01,1.63018e-04,9.99999e-01
4.375715758e-01,1.93666e-04,9.99999e-01,9.99999e-01,1.93666e-04,9.99999e-01
4.397594337e-01,2.29294e-04,9.99999e-01,9.99999e-01,2.29294e-04,9.99999e-01
4.419582309e-01,2.70573e-04,9.99999e-01,9.99999e-01,2.70573e-04,9.99999e-01
4.441680220e-01,3.18241e-04,9.99999e-01,9.99999e-01,3.18241e-04,9.99999e-01
4.463888621e-01,3.73108e-04,9.99999e-01,9.99999e-01,3.73108e-04,9.99999e-01
4.486208064e-01,4.36063e-04,9.99999e-01,9.99999e-01,4.36063e-04,9.99999e-01
4.508639105e-01,5.08074e-04,9.99999e-01,9.99999e-01,5.08074e-04,9.99999e-01
4.531182300e-01,5.90192e-04,9.99999e-01,9.99999e-01,5.90192e-04,9.99999e-01
4.553838212e-01,6.83556e-04,9.99999e-01,9.99999e-01,6.83556e-04,9.99999e-01
4.576607403e-01,7.89396e-04,9.99999e-01,9.99999e-01,7.89396e-04,9.99999e-01
4.599490440e-01,9.09036e-04,9.99999e-01,9.99999e-01,9.09036e-04,9.99999e-01
4.622487892e-01,1.04389e-03,9.99999e-01,9.99999e-01,1.04389e-03,9.99999e-01
4.645600332e-01,1.19549e-03,9.99999e-01,9.99999e-01,1.19549e-03,9.99999e-01
4.668828333e-01,1.36544e-03,9.99999e-01,9.99999e-01,1.36544e-03,9.99999e-01
4.692172475e-01,1.55545e-03,9.99999e-01,9.99999e-01,1.55545e-03,9.99999e-01
4.715633337e-01,1.76736e-03,9.99999e-01,9.99999e-01,1.76736e-03,9.99999e-01
4.739211504e-01,2.00307e-03,9.99999e-01,9.99999e-01,2.00307e-03,9.99999e-01
4.762907561e-01,2.26462e-03,9.99999e-01,9.99999e-01,2.26462e-03,9.99999e-01
4.786722099e-01,2.55411e-03,9.99999e-01,9.99999e-01,2.55411e-03,9.99999e-01
4.810655710e-01,2.87378e-03,9.99999e-01,9.99999e-01,2.87378e-03,9.99999e-01
4.834708988e-01,3.22593e-03,9.99999e-01,9.99999e-01,3.22593e-03,9.99999e-01
4.858882533e-01,3.61298e-03,9.99999e-01,9.99999e-01,3.61298e-03,9.99999e-01
4.883176946e-01,4.03742e-03,9.99999e-01,9.99999e-01,4.03742e-03,9.99999e-01
4.907592831e-01,4.50183e-03,9.99999e-01,9.99999e-01,4.50183e-03,9.99999e-01
4.932130795e-01,5.00888e-03,9.99999e-01,9.99999e-01,5.00888e-03,9.99999e-01
4.956791449e-01,5.56130e-03,9.99999e-01,9.99999e-01,5.56130e-03,9.99999e-01
4.981575406e-01,6.16190e-03,9.99999e-01,9.99999e-01,6.16190e-03,9.99999e-01
5.006483283e-01,6.81355e-03,9.99999e-01,9.99999e-01,6.81355e-03,9.99999e-01
5.031515699e-01,7.51917e-03,9.99999e-01,9.99999e-01,7.51917e-03,9.99999e-01
5.056673278e-01,8.28172e-03,9.99999e-01,9.99999e-01,8.28172e-03,9.99999e-01
5.081956644e-01,9.10422e-03,9.99999e-01,9.99999e-01,9.10422e-03,9.99999e-01
5.107366428e-01,9.98971e-03,9.99999e-01,9.99999e-01,9.98971e-03,9.99999e-01
5.132903260e-01,1.09412e-02,9.99999e-01,9.99999e-01,1.09412e-02,9.99999e-01
5.158567776e-01,1.19619e-02,9.99999e-01,9.99999e-01,1.19619e-02,9.99999e-01
5.184360615e-01,1.30547e-02,9.99999e-01,9.99999e-01,1.30547e-02,9.99999e-01
5.210282418e-01,1.42228e-02,9.99999e-01,9.99999e-01,1.42228e-02,9.99999e-01
5.236333830e-01,1.54693e-02,9.99999e-01,9.99999e-01,1.54693e-02,9.99999e-01
5.262515499e-01,1.67970e-02,9.99999e-01,9.99999e-01,1.67970e-02,9.99999e-01
5.288828077e-01,1.82091e-02,9.99999e-01,9.99999e-01,1.82091e-02,9.99999e-01
5.315272217e-01,1.97084e-02,9.99999e-01,9.99999e-01,1.97084e-02,9.99999e-01
5.341848578e-01,2.12979e-02,9.99999e-01,9.99999e-01,2.12979e-02,9.99999e-01
5.368557821e-01,2.29803e-02,9.99999e-01,9.99999e-01,2.29803e-02,9.99999e-01
5.395400610e-01,2.47584e-02,9.99999e-01,9.99999e-01,2.47584e-02,9.99999e-01
5.422377613e-01,2.66349e-02,9.99999e-01,9.99999e-01,2.66349e-02,9.99999e-01
5.449489501e-01,2.86123e-02,9.99999e-01,9.99999e-01,2.86123e-02,9.99999e-01
5.476736949e-01,3.06930e-02,9.99999e-01,9.99999e-01,3.06930e-02,9.99999e-01
5.504120634e-01,3.28794e-02,9.99999e-01,9.99999e-01,3.28794e-02,9.99999e-01
5.531641237e-01,3.51737e-02,9.99999e-01,9.99999e-01,3.51737e-02,9.99999e-01
5.559299443e-01,3.75780e-02,9.99999e-01,9.99999e-01,3.75780e-02,9.99999e-01
5.587095940e-01,4.00943e-02,9.99999e-01,9.99999e-01,4.00943e-02,9.99999e-01
5.615031420e-01,4.27243e-02,9.99999e-01,9.99999e-01,4.27243e-02,9.99999e-01
5.643106577e-01,4.54698e-02,9.99999e-01,9.99999e-01,4.54698e-02,9.99999e-01
5.671322110e-01,4.83322e-02,9.99999e-01,9.99999e-01,4.83322e-02,9.99999e-01
5.699678720e-01,5.13128e-02,9.99999e-01,9.99999e-01,5.13128e-02,9.99999e-01
5.728177114e-01,5.44129e-02,9.99999e-01,9.99999e-01,5.44129e-02,9.99999e-01
5.756818000e-01,5.76335e-02,9.99999e-01,9.99999e-01,5.76335e-02,9.99999e-01
5.785602090e-01,6.09754e-02,9.99999e-01,9.99999e-01,6.09754e-02,9.99999e-01
5.814530100e-01,6.44393e-02,9.99999e-01,9.99999e-01,6.44393e-02,9.99999e-01
5.843602750e-01,6.80257e-02,9.99999e-01,9.99999e-01,6.80257e-02,9.99999e-01
5.872820764e-01,7.17349e-02,9.99999e-01,9.99999e-01,7.17349e-02,9.99999e-01
5.902184868e-01,7.55671e-02,9.99999e-01,9.99999e-01,7.55671e-02,9.99999e-01
5.931695792e-01,7.95222e-02,9.99999e-01,9.99999e-01,7.95222e-02,9.99999e-01
5.961354271e-01,8.36001e-02,9.99999e-01,9.99999e-01,8.36001e-02,9.99999e-01
5.991161043e-01,8.78002e-02,9.99999e-01,9.99999e-01,8.78002e-02,9.99999e-01
6.021116848e-01,9.21222e-02,9.99999e-01,9.99999e-01,9.21222e-02,9.99999e-01
6.051222432e-01,9.65652e-02,9.99999e-01,9.99999e-01,9.65652e-02,9.99999e-01
6.081478544e-01,1.01128e-01,9.99999e-01,9.99999e-01,1.01128e-01,9.99999e-01
6.111885937e-01,1.05811e-01,9.99999e-01,9.99999e-01,1.05811e-01,9.99999e-01
6.142445367e-01,1.10611e-01,9.99999e-01,9.99999e-01,1.10611e-01,9.99999e-01
6.173157594e-01,1.15527e-01,9.99999e-01,9.99999e-01,1.15527e-01,9.99999e-01
6.204023382e-01,1.20559e-01,9.99999e-01,9.99999e-01,1.20559e-01,9.99999e-01
6.235043498e-01,1.25703e-01,9.99999e-01,9.99999e-01,1.25703e-01,9.99999e-01
6.266218716e-01,1.30960e-01,9.99999e-01,9.99999e-01,1.30960e-01,9.99999e-01
6.297549810e-01,1.36325e-01,9.99999e-01,9.99999e-01,1.36325e-01,9.99999e-01
6.329037559e-01,1.41798e-01,9.99999e-01,9.99999e-01,1.41798e-01,9.99999e-01
6.360682746e-01,1.47376e-01,9.99999e-01,9.99999e-01,1.47376e-01,9.99999e-01
6.392486160e-01,1.53057e-01,9.99999e-01,9.99999e-01,1.53057e-01,9.99999e-01
6.424448591e-01,1.58838e-01,9.99999e-01,9.99999e-01,1.58838e-01,9.99999e-01
6.456570834e-01,1.64716e-01,9.99999e-01,9.99999e-01,1.64716e-01,9.99999e-01
6.488853688e-01,1.70690e-01,9.99999e-01,9.99999e-01,1.70690e-01,9.99999e-01
6.521297956e-01,1.76756e-01,9.99999e-01,9.99999e-01,1.76756e-01,9.99999e-01
6.553904446e-01,1.82911e-01,9.99999e-01,9.99999e-01,1.82911e-01,9.99999e-01
6.586673968e-01,1.89153e-01,9.99999e-01,9.99999e-01,1.89153e-01,9.99999e-01
6.619607338e-01,1.95478e-01,9.99999e-01,9.99999e-01,1.95478e-01,9.99999e-01
6.652705375e-01,2.01883e-01,9.99999e-01,9.99999e-01,2.01883e-01,9.99999e-01
6.685968902e-01,2.08366e-01,9.99999e-01,9.99999e-01,2.08366e-01,9.99999e-01
6.719398746e-01,2.14922e-01,9.99999e-01,9.99999e-01,2.14922e-01,9.99999e-01
6.752995740e-01,2.21549e-01,9.99999e-01,9.99999e-01,2.21549e-01,9.99999e-01
6.786760719e-01,2.28244e-01,9.99999e-01,9.99999e-01,2.28244e-01,9.99999e-01
6.820694522e-01,2.35002e-01,9.99999e-01,9.99999e-01,2.35002e-01,9.99999e-01
6.854797995e-01,2.41821e-01,9.99999e-01,9.99999e-01,2.41821e-01,9.99999e-01
6.889071985e-01,2.48698e-01,9.99999e-01,9.99999e-01,2.48698e-01,9.99999e-01
6.923517345e-01,2.55629e-01,9.99999e-01,9.99999e-01,2.55629e-01,9.99999e-01
6.958134932e-01,2.62610e-01,9.99999e-01,9.99999e-01,2.62610e-01,9.99999e-01
6.992925606e-01,2.69638e-01,9.99999e-01,9.99999e-01,2.69638e-01,9.99999e-01
7.027890234e-01,2.76709e-01,9.99999e-01,9.99999e-01,2.76709e-01,9.99999e-01
7.063029686e-01,2.83822e-01,9.99999e-01,9.99999e-01,2.83822e-01,9.99999e-01
7.098344834e-01,2.90971e-01,9.99999e-01,9.99999e-01,2.90971e-01,9.99999e-01
7.133836558e-01,2.98153e-01,9.99999e-01,9.99999e-01,2.98153e-01,9.99999e-01
7.169505741e-01,3.05366e-01,9.99999e-01,9.99999e-01,3.05366e-01,9.99999e-01
7.205353270e-01,3.12605e-01,9.99999e-01,9.99999e-01,3.12605e-01,9.99999e-01
7.241380036e-01,3.19869e-01,9.99999e-01,9.99999e-01,3.19869e-01,9.99999e-01
7.277586936e-01,3.27152e-01,9.99999e-01,9.99999e-01,3.27152e-01,9.99999e-01
7.313974871e-01,3.34453e-01,9.99999e-01,9.99999e-01,3.34453e-01,9.99999e-01
7.350544745e-01,3.41767e-01,9.99999e-01,9.99999e-01,3.41767e-01,9.99999e-01
7.387297469e-01,3.49092e-01,9.99999e-01,9.99999e-01,3.49092e-01,9.99999e-01
7.424233956e-01,3.56425e-01,9.99999e-01,9.99999e-01,3.56425e-01,9.99999e-01
7.461355126e-01,3.63762e-01,9.99999e-01,9.99999e-01,3.63762e-01,9.99999e-01
7.498661902e-01,3.71102e-01,9.99999e-01,9.99999e-01,3.71102e-01,9.99999e-01
7.536155211e-01,3.78439e-01,9.99999e-01,9.99999e-01,3.78439e-01,9.99999e-01
7.573835987e-01,3.85773e-01,9.99999e-01,9.99999e-01,3.85773e-01,9.99999e-01
7.611705167e-01,3.93100e-01,9.99999e-01,9.99999e-01,3.93100e-01,9.99999e-01
7.649763693e-01,4.00417e-01,9.99999e-01,9.99999e-01,4.00417e-01,9.99999e-01
7.688012511e-01,4.07722e-01,9.99999e-01,9.99999e-01,4.07722e-01,9.99999e-01
7.726452574e-01,4.15012e-01,9.99999e-01,9.99999e-01,4.15012e-01,9.99999e-01
7.765084837e-01,4.22284e-01,9.99999e-01,9.99999e-01,4.22284e-01,9.99999e-01
7.803910261e-01,4.13244e-01,9.99999e-01,9.62070e-01,4.29536e-01,9.99999e-01
7.842929812e-01,3.65448e-01,9.99999e-01,8.36713e-01,4.36766e-01,9.99999e-01
7.882144461e-01,3.67230e-01,9.99999e-01,8.27147e-01,4.43971e-01,9.99999e-01
7.921555184e-01,4.03672e-01,9.99999e-01,8.94762e-01,4.51149e-01,9.99999e-01
7.961162960e-01,4.25217e-01,9.99999e-01,9.27817e-01,4.58298e-01,9.99999e-01
8.000968774e-01,4.46915e-01,9.99999e-01,9.60248e-01,4.65416e-01,9.99999e-01
8.040973618e-01,4.62647e-01,9.99999e-01,9.79144e-01,4.72501e-01,9.99999e-01
8.081178486e-01,4.74948e-01,9.99999e-01,9.90402e-01,4.79550e-01,9.99999e-01
8.121584379e-01,4.85106e-01,9.99999e-01,9.97008e-01,4.86562e-01,9.99999e-01
8.162192301e-01,4.93209e-01,9.99999e-01,9.99338e-01,4.93535e-01,9.99999e-01
8.203003262e-01,5.00462e-01,9.99999e-01,9.99988e-01,5.00467e-01,9.99999e-01
8.244018279e-01,5.07357e-01,9.99999e-01,9.99999e-01,5.07357e-01,9.99999e-01
8.285238370e-01,5.14203e-01,9.99999e-01,9.99999e-01,5.14203e-01,9.99999e-01
8.326664562e-01,5.21003e-01,9.99999e-01,9.99999e-01,5.21003e-01,9.99999e-01
8.368297885e-01,5.27756e-01,9.99999e-01,9.99999e-01,5.27756e-01,9.99999e-01
8.410139374e-01,5.34461e-01,9.99999e-01,9.99999e-01,5.34461e-01,9.99999e-01
8.452190071e-01,5.41116e-01,9.99999e-01,9.99999e-01,5.41116e-01,9.99999e-01
8.494451021e-01,5.47720e-01,9.99999e-01,9.99999e-01,5.47720e-01,9.99999e-01
8.536923276e-01,5.54272e-01,9.99999e-01,9.99999e-01,5.54272e-01,9.99999e-01
8.579607893e-01,5.60770e-01,9.99999e-01,9.99999e-01,5.60770e-01,9.99999e-01
8.622505932e-01,5.67214e-01,9.99999e-01,9.99999e-01,5.67214e-01,9.99999e-01
8.665618462e-01,5.27648e-01,9.99999e-01,9.19884e-01,5.73602e-01,9.99999e-01
8.708946554e-01,3.70059e-01,9.99999e-01,6.38105e-01,5.79935e-01,9.99999e-01
8.752491287e-01,4.07201e-01,9.99999e-01,6.94634e-01,5.86209e-01,9.99999e-01
8.796253743e-01,4.84563e-01,9.99999e-01,8.17928e-01,5.92426e-01,9.99999e-01
8.840235012e-01,5.39267e-01,9.99999e-01,9.00903e-01,5.98584e-01,9.99999e-01
8.884436187e-01,5.80239e-01,9.99999e-01,9.59575e-01,6.04683e-01,9.99999e-01
8.928858368e-01,6.00618e-01,9.99999e-01,9.83456e-01,6.10721e-01,9.99999e-01
8.973502660e-01,6.14195e-01,9.99999e-01,9.95938e-01,6.16699e-01,9.99999e-01
9.018370173e-01,6.22336e-01,9.99999e-01,9.99550e-01,6.22615e-01,9.99999e-01
9.063462024e-01,6.21447e-01,9.99999e-01,9.88824e-01,6.28470e-01,9.99999e-01
9.108779334e-01,6.17808e-01,9.99999e-01,9.74058e-01,6.34262e-01,9.99999e-01
9.154323231e-01,6.36030e-01,9.99999e-01,9.93808e-01,6.39992e-01,9.99999e-01
9.200094847e-01,5.91533e-01,9.99999e-01,9.16169e-01,6.45659e-01,9.99999e-01
9.246095321e-01,5.72735e-01,9.99999e-01,8.79423e-01,6.51262e-01,9.99999e-01
9.292325798e-01,5.94432e-01,9.99999e-01,9.05038e-01,6.56802e-01,9.99999e-01
9.338787427e-01,6.00905e-01,9.99999e-01,9.07329e-01,6.62279e-01,9.99999e-01
9.385481364e-01,6.21618e-01,9.99999e-01,9.30996e-01,6.67691e-01,9.99999e-01
9.432408771e-01,6.44137e-01,9.99999e-01,9.57056e-01,6.73040e-01,9.99999e-01
9.479570815e-01,6.63251e-01,9.99999e-01,9.77779e-01,6.78324e-01,9.99999e-01
9.526968669e-01,6.76170e-01,9.99999e-01,9.89211e-01,6.83545e-01,9.99999e-01
9.574603512e-01,6.85513e-01,9.99999e-01,9.95370e-01,6.88701e-01,9.99999e-01
9.622476530e-01,6.92789e-01,9.99999e-01,9.98552e-01,6.93793e-01,9.99999e-01
9.670588912e-01,6.98518e-01,9.99999e-01,9.99565e-01,6.98821e-01,9.99999e-01
9.718941857e-01,7.03763e-01,9.99999e-01,9.99968e-01,7.03785e-01,9.99999e-01
9.767536566e-01,7.08685e-01,9.99999e-01,9.99999e-01,7.08685e-01,9.99999e-01
9.816374249e-01,7.13522e-01,9.99999e-01,9.99999e-01,7.13522e-01,9.99999e-01
9.865456120e-01,7.18295e-01,9.99999e-01,9.99999e-01,7.18295e-01,9.99999e-01
9.914783401e-01,7.23005e-01,9.99999e-01,9.99999e-01,7.23005e-01,9.99999e-01
9.964357318e-01,7.27652e-01,9.99999e-01,9.99999e-01,7.27652e-01,9.99999e-01
1.001417910e+00,7.32236e-01,9.99999e-01,9.99999e-01,7.32236e-01,9.99999e-01
1.006425000e+00,7.36757e-01,9.99999e-01,9.99999e-01,7.36757e-01,9.99999e-01
1.011457125e+00,7.41217e-01,9.99999e-01,9.99999e-01,7.41217e-01,9.99999e-01
1.016514411e+00,7.45614e-01,9.99999e-01,9.99999e-01,7.45614e-01,9.99999e-01
1.021596983e+00,7.49908e-01,9.99999e-01,9.99944e-01,7.49950e-01,9.99999e-01
1.026704968e+00,7.50934e-01,9.99999e-01,9.95636e-01,7.54224e-01,9.99999e-01
1.031838492e+00,7.22727e-01,9.99999e-01,9.52914e-01,7.58438e-01,9.99999e-01
1.036997685e+00,1.00983e-01,9.99999e-01,1.32420e-01,7.62592e-01,9.99999e-01
1.042182673e+00,6.45419e-02,9.99999e-01,8.41830e-02,7.66685e-01,9.99999e-01
1.047393587e+00,8.48791e-02,9.99999e-01,1.10130e-01,7.70719e-01,9.99999e-01
1.052630555e+00,1.37107e-03,9.99999e-01,1.76982e-03,7.74694e-01,9.99999e-01
1.057893707e+00,3.73936e-03,9.99999e-01,4.80260e-03,7.78610e-01,9.99999e-01
1.063183176e+00,1.50512e-02,9.99999e-01,1.92354e-02,7.82469e-01,9.99999e-01
1.068499092e+00,4.91413e-02,9.99999e-01,6.24992e-02,7.86269e-01,9.99999e-01
1.073841587e+00,1.36140e-01,9.99999e-01,1.72326e-01,7.90012e-01,9.99999e-01
1.079210795e+00,2.60626e-01,9.99999e-01,3.28368e-01,7.93699e-01,9.99999e-01
1.084606849e+00,4.30780e-01,9.99999e-01,5.40277e-01,7.97330e-01,9.99999e-01
1.090029883e+00,5.81740e-01,9.99999e-01,7.26353e-01,8.00905e-01,9.99999e-01
1.095480033e+00,6.87028e-01,9.99999e-01,8.54061e-01,8.04425e-01,9.99999e-01
1.100957433e+00,7.48750e-01,9.99999e-01,9.26796e-01,8.07890e-01,9.99999e-01
1.106462220e+00,7.86170e-01,9.99999e-01,9.69022e-01,8.11301e-01,9.99999e-01
1.111994531e+00,8.05213e-01,9.99999e-01,9.88404e-01,8.14659e-01,9.99999e-01
1.117554504e+00,8.15632e-01,9.99999e-01,9.97147e-01,8.17965e-01,9.99999e-01
1.123142276e+00,8.21063e-01,9.99999e-01,9.99811e-01,8.21218e-01,9.99999e-01
1.128757988e+00,8.24419e-01,9.99999e-01,9.99999e-01,8.24419e-01,9.99999e-01
1.134401778e+00,8.27569e-01,9.99999e-01,9.99999e-01,8.27569e-01,9.99999e-01
1.140073787e+00,8.30668e-01,9.99999e-01,9.99999e-01,8.30668e-01,9.99999e-01
1.145774156e+00,8.33718e-01,9.99999e-01,9.99999e-01,8.33718e-01,9.99999e-01
1.151503026e+00,8.36718e-01,9.99999e-01,9.99999e-01,8.36718e-01,9.99999e-01
1.157260541e+00,8.39670e-01,9.99999e-01,9.99999e-01,8.39670e-01,9.99999e-01
1.163046844e+00,8.42573e-01,9.99999e-01,9.99999e-01,8.42573e-01,9.99999e-01
1.168862078e+00,8.45429e-01,9.99999e-01,9.99999e-01,8.45429e-01,9.99999e-01
1.174706389e+00,8.48237e-01,9.99999e-01,9.99999e-01,8.48237e-01,9.99999e-01
1.180579921e+00,8.51000e-01,9.99999e-01,9.99999e-01,8.51000e-01,9.99999e-01
1.186482820e+00,8.53711e-01,9.99999e-01,9.99993e-01,8.53716e-01,9.99999e-01
1.192415234e+00,8.43211e-01,9.99999e-01,9.84614e-01,8.56387e-01,9.99999e-01
1.198377311e+00,4.79025e-01,9.99999e-01,5.57645e-01,8.59014e-01,9.99999e-01
1.204369197e+00,7.27241e-13,9.99999e-01,8.44062e-13,8.61596e-01,9.99999e-01
1.210391043e+00,7.44642e-48,9.99999e-01,8.61719e-48,8.64135e-01,9.99999e-01
1.216442998e+00,1.34393e-41,9.99999e-01,1.55075e-41,8.66631e-01,9.99999e-01
1.222525213e+00,5.39839e-41,9.99999e-01,6.21157e-41,8.69085e-01,9.99999e-01
1.228637839e+00,9.38937e-32,9.99999e-01,1.07738e-31,8.71497e-01,9.99999e-01
1.234781029e+00,2.14055e-20,9.99999e-01,2.44951e-20,8.73868e-01,9.99999e-01
1.240954934e+00,9.32662e-14,9.99999e-01,1.06444e-13,8.76198e-01,9.99999e-01
1.247159708e+00,1.89435e-07,9.99999e-01,2.15637e-07,8.78488e-01,9.99999e-01
1.253395507e+00,7.16433e-05,9.99999e-01,8.13445e-05,8.80739e-01,9.99999e-01
1.259662485e+00,3.96233e-03,9.99999e-01,4.48759e-03,8.82951e-01,9.99999e-01
1.265960797e+00,3.88439e-02,9.99999e-01,4.38852e-02,8.85125e-01,9.99999e-01
1.272290601e+00,2.10289e-01,9.99999e-01,2.37009e-01,8.87261e-01,9.99999e-01
1.278652054e+00,2.01074e-01,9.99999e-01,2.26088e-01,8.89360e-01,9.99999e-01
1.285045314e+00,4.04756e-03,9.99999e-01,4.54056e-03,8.91422e-01,9.99999e-01
1.291470541e+00,2.83103e-06,9.99999e-01,3.16866e-06,8.93448e-01,9.99999e-01
1.297927893e+00,2.12090e-03,9.99999e-01,2.36855e-03,8.95439e-01,9.99999e-01
1.304417533e+00,7.86368e-02,9.99999e-01,8.76279e-02,8.97394e-01,9.99999e-01
1.310939621e+00,1.92488e-02,9.99999e-01,2.14038e-02,8.99315e-01,9.99999e-01
1.317494319e+00,6.93699e-17,9.99999e-01,7.69748e-17,9.01202e-01,9.99999e-01
1.324081790e+00,1.41754e-11,9.99999e-01,1.56971e-11,9.03056e-01,9.99999e-01
1.330702199e+00,7.56068e-07,9.99999e-01,8.35547e-07,9.04877e-01,9.99999e-01
1.337355710e+00,1.24082e-06,9.99999e-01,1.36855e-06,9.06665e-01,9.99999e-01
1.344042489e+00,4.04714e-07,9.99999e-01,4.45513e-07,9.08421e-01,9.99999e-01
1.350762701e+00,4.44292e-07,9.99999e-01,4.88154e-07,9.10146e-01,9.99999e-01
1.357516515e+00,8.97270e-05,9.99999e-01,9.84020e-05,9.11841e-01,9.99999e-01
1.364304097e+00,2.05864e-03,9.99999e-01,2.25356e-03,9.13504e-01,9.99999e-01
1.371125618e+00,3.85234e-02,9.99999e-01,4.20956e-02,9.15138e-01,9.99999e-01
1.377981246e+00,6.68938e-02,9.99999e-01,7.29690e-02,9.16743e-01,9.99999e-01
1.384871152e+00,2.00125e-01,9.99999e-01,2.17925e-01,9.18318e-01,9.99999e-01
1.391795508e+00,2.24806e-01,9.99999e-01,2.44390e-01,9.19865e-01,9.99999e-01
1.398754485e+00,3.85586e-01,9.99999e-01,4.18486e-01,9.21384e-01,9.99999e-01
1.405748258e+00,4.86108e-01,9.99999e-01,5.26732e-01,9.22875e-01,9.99999e-01
1.412776999e+00,6.16186e-01,9.99999e-01,6.66622e-01,9.24339e-01,9.99999e-01
1.419840884e+00,5.56470e-01,9.99999e-01,6.01084e-01,9.25777e-01,9.99999e-01
1.426940089e+00,4.59176e-02,9.99999e-01,4.95234e-02,9.27188e-01,9.99999e-01
1.434074789e+00,0.00000e+00,9.99999e-01,0.00000e+00,9.28574e-01,9.99999e-01
1.441245163e+00,0.00000e+00,9.99999e-01,0.00000e+00,9.29934e-01,9.99999e-01
1.448451389e+00,0.00000e+00,9.99999e-01,0.00000e+00,9.31269e-01,9.99999e-01
1.455693646e+00,0.00000e+00,9.99999e-01,0.00000e+00,9.32580e-01,9.99999e-01
1.462972114e+00,2.32835e-187,9.99999e-01,2.49323e-187,9.33867e-01,9.99999e-01
1.470286975e+00,2.03427e-78,9.99999e-01,2.17539e-78,9.35130e-01,9.99999e-01
