#,Wave/freq,Total,O2,CO2,Rayleigh,CIA
4.000000000e-01,4.83000e-04,9.99999e-01,9.99999e-01,4.83000e-04,9.99999e-01
4.020000000e-01,5.61712e-04,9.99999e-01,9.99999e-01,5.61712e-04,9.99999e-01
4.040100000e-01,6.51207e-04,9.99999e-01,9.99999e-01,6.51207e-04,9.99999e-01
4.060300500e-01,7.52759e-04,9.99999e-01,9.99999e-01,7.52759e-04,9.99999e-01
4.080602003e-01,8.67661e-04,9.99999e-01,9.99999e-01,8.67661e-04,9.99999e-01
4.101005013e-01,9.97298e-04,9.99999e-01,9.99999e-01,9.97298e-04,9.99999e-01
4.121510038e-01,1.14316e-03,9.99999e-01,9.99999e-01,1.14316e-03,9.99999e-01
4.142117588e-01,1.30682e-03,9.99999e-01,9.99999e-01,1.30682e-03,9.99999e-01
4.162828176e-01,1.48997e-03,9.99999e-01,9.99999e-01,1.48997e-03,9.99999e-01
4.183642317e-01,1.69439e-03,9.99999e-01,9.99999e-01,1.69439e-03,9.99999e-01
4.204560528e-01,1.92198e-03,9.99999e-01,9.99999e-01,1.92198e-03,9.99999e-01
4.225583331e-01,2.17471e-03,9.99999e-01,9.99999e-01,2.17471e-03,9.99999e-01
4.246711247e-01,2.45467e-03,9.99999e-01,9.99999e-01,2.45467e-03,9.99999e-01
4.267944804e-01,2.76406e-03,9.99999e-01,9.99999e-01,2.76406e-03,9.99999e-01
4.289284528e-01,3.10516e-03,9.99999e-01,9.99999e-01,3.10516e-03,9.99999e-01
4.310730950e-01,3.48033e-03,9.99999e-01,9.99999e-01,3.48033e-03,9.99999e-01
4.332284605e-01,3.89206e-03,9.99999e-01,9.99999e-01,3.89206e-03,9.99999e-01
4.353946028e-01,4.34290e-03,9.99999e-01,9.99999e-01,4.34290e-03,9.99999e-01
4.375715758e-01,4.83548e-03,9.99999e-01,9.99999e-01,4.83548e-03,9.99999e-01
4.397594337e-01,5.37251e-03,9.99999e-01,9.99999e-01,5.37251e-03,9.99999e-01
4.419582309e-01,5.95679e-03,9.99999e-01,9.99999e-01,5.95679e-03,9.99999e-01
4.441680220e-01,6.59115e-03,9.99999e-01,9.99999e-01,6.59115e-03,9.99999e-01
4.463888621e-01,7.27850e-03,9.99999e-01,9.99999e-01,7.27850e-03,9.99999e-01
4.486208064e-01,8.02181e-03,9.99999e-01,9.99999e-01,8.02181e-03,9.99999e-01
4.508639105e-01,8.82405e-03,9.99999e-01,9.99999e-01,8.82405e-03,9.99999e-01
4.531182300e-01,9.68827e-03,9.99999e-01,9.99999e-01,9.68827e-03,9.99999e-01
4.553838212e-01,1.06175e-02,9.99999e-01,9.99999e-01,1.06175e-02,9.99999e-01
4.576607403e-01,1.16149e-02,9.99999e-01,9.99999e-01,1.16149e-02,9.99999e-01
4.599490440e-01,1.26834e-02,9.99999e-01,9.99999e-01,1.26834e-02,9.99999e-01
4.622487892e-01,1.38261e-02,9.99999e-01,9.99999e-01,1.38261e-02,9.99999e-01
4.645600332e-01,1.50462e-02,9.99999e-01,9.99999e-01,1.50462e-02,9.99999e-01
4.668828333e-01,1.63466e-02,9.99999e-01,9.99999e-01,1.63466e-02,9.99999e-01
4.692172475e-01,1.77303e-02,9.99999e-01,9.99999e-01,1.77303e-02,9.99999e-01
4.715633337e-01,1.92003e-02,9.99999e-01,9.99999e-01,1.92003e-02,9.99999e-01
4.739211504e-01,2.07595e-02,9.99999e-01,9.99999e-01,2.07595e-02,9.99999e-01
4.762907561e-01,2.24107e-02,9.99999e-01,9.99999e-01,2.24107e-02,9.99999e-01
4.786722099e-01,2.41567e-02,9.99999e-01,9.99999e-01,2.41567e-02,9.99999e-01
4.810655710e-01,2.60002e-02,9.99999e-01,9.99999e-01,2.60002e-02,9.99999e-01
4.834708988e-01,2.79438e-02,9.99999e-01,9.99999e-01,2.79438e-02,9.99999e-01
4.858882533e-01,2.99899e-02,9.99999e-01,9.99999e-01,2.99899e-02,9.99999e-01
4.883176946e-01,3.21410e-02,9.99999e-01,9.99999e-01,3.21410e-02,9.99999e-01
4.907592831e-01,3.43992e-02,9.99999e-01,9.99999e-01,3.43992e-02,9.99999e-01
4.932130795e-01,3.67667e-02,9.99999e-01,9.99999e-01,3.67667e-02,9.99999e-01
4.956791449e-01,3.92456e-02,9.99999e-01,9.99999e-01,3.92456e-02,9.99999e-01
4.981575406e-01,4.18376e-02,9.99999e-01,9.99999e-01,4.18376e-02,9.99999e-01
5.006483283e-01,4.45445e-02,9.99999e-01,9.99999e-01,4.45445e-02,9.99999e-01
5.031515699e-01,4.73679e-02,9.99999e-01,9.99999e-01,4.73679e-02,9.99999e-01
5.056673278e-01,5.03091e-02,9.99999e-01,9.99999e-01,5.03091e-02,9.99999e-01
5.081956644e-01,5.33694e-02,9.99999e-01,9.99999e-01,5.33694e-02,9.99999e-01
5.107366428e-01,5.65498e-02,9.99999e-01,9.99999e-01,5.65498e-02,9.99999e-01
5.132903260e-01,5.98513e-02,9.99999e-01,9.99999e-01,5.98513e-02,9.99999e-01
5.158567776e-01,6.32746e-02,9.99999e-01,9.99999e-01,6.32746e-02,9.99999e-01
5.184360615e-01,6.68203e-02,9.99999e-01,9.99999e-01,6.68203e-02,9.99999e-01
5.210282418e-01,7.04886e-02,9.99999e-01,9.99999e-01,7.04886e-02,9.99999e-01
5.236333830e-01,7.42800e-02,9.99999e-01,9.99999e-01,7.42800e-02,9.99999e-01
5.262515499e-01,7.81942e-02,9.99999e-01,9.99999e-01,7.81942e-02,9.99999e-01
5.288828077e-01,8.22313e-02,9.99999e-01,9.99999e-01,8.22313e-02,9.99999e-01
5.315272217e-01,8.63909e-02,9.99999e-01,9.99999e-01,8.63909e-02,9.99999e-01
5.341848578e-01,9.06724e-02,9.99999e-01,9.99999e-01,9.06724e-02,9.99999e-01
5.368557821e-01,9.50753e-02,9.99999e-01,9.99999e-01,9.50753e-02,9.99999e-01
5.395400610e-01,9.95987e-02,9.99999e-01,9.99999e-01,9.95987e-02,9.99999e-01
5.422377613e-01,1.04241e-01,9.99999e-01,9.99999e-01,1.04241e-01,9.99999e-01
5.449489501e-01,1.09003e-01,9.99999e-01,9.99999e-01,1.09003e-01,9.99999e-01
5.476736949e-01,1.13881e-01,9.99999e-01,9.99999e-01,1.13881e-01,9.99999e-01
5.504120634e-01,1.18874e-01,9.99999e-01,9.99999e-01,1.18874e-01,9.99999e-01
5.531641237e-01,1.23981e-01,9.99999e-01,9.99999e-01,1.23981e-01,9.99999e-01
5.559299443e-01,1.29201e-01,9.99999e-01,9.99999e-01,1.29201e-01,9.99999e-01
5.587095940e-01,1.34530e-01,9.99999e-01,9.99999e-01,1.34530e-01,9.99999e-01
5.615031420e-01,1.39968e-01,9.99999e-01,9.99999e-01,1.39968e-01,9.99999e-01
5.643106577e-01,1.45511e-01,9.99999e-01,9.99999e-01,1.45511e-01,9.99999e-01
5.671322110e-01,1.51158e-01,9.99999e-01,9.99999e-01,1.51158e-01,9.99999e-01
5.699678720e-01,1.56906e-01,9.99999e-01,9.99999e-01,1.56906e-01,9.99999e-01
5.728177114e-01,1.62752e-01,9.99999e-01,9.99999e-01,1.62752e-01,9.99999e-01
5.756818000e-01,1.68695e-01,9.99999e-01,9.99999e-01,1.68695e-01,9.99999e-01
5.785602090e-01,1.74730e-01,9.99999e-01,9.99999e-01,1.74730e-01,9.99999e-01
5.814530100e-01,1.80856e-01,9.99999e-01,9.99999e-01,1.80856e-01,9.99999e-01
5.843602750e-01,1.87069e-01,9.99999e-01,9.99999e-01,1.87069e-01,9.99999e-01
5.872820764e-01,1.93367e-01,9.99999e-01,9.99999e-01,1.93367e-01,9.99999e-01
5.902184868e-01,1.99746e-01,9.99999e-01,9.99999e-01,1.99746e-01,9.99999e-01
5.931695792e-01,2.06203e-01,9.99999e-01,9.99999e-01,2.06203e-01,9.99999e-01
5.961354271e-01,2.12735e-01,9.99999e-01,9.99999e-01,2.12735e-01,9.99999e-01
5.991161043e-01,2.19339e-01,9.99999e-01,9.99999e-01,2.19339e-01,9.99999e-01
6.021116848e-01,2.26012e-01,9.99999e-01,9.99999e-01,2.26012e-01,9.99999e-01
6.051222432e-01,2.32749e-01,9.99999e-01,9.99999e-01,2.32749e-01,9.99999e-01
6.081478544e-01,2.39549e-01,9.99999e-01,9.99999e-01,2.39549e-01,9.99999e-01
6.111885937e-01,2.46407e-01,9.99999e-01,9.99999e-01,2.46407e-01,9.99999e-01
6.142445367e-01,2.53320e-01,9.99999e-01,9.99999e-01,2.53320e-01,9.99999e-01
6.173157594e-01,2.60284e-01,9.99999e-01,9.99999e-01,2.60284e-01,9.99999e-01
6.204023382e-01,2.67297e-01,9.99999e-01,9.99999e-01,2.67297e-01,9.99999e-01
6.235043498e-01,2.74355e-01,9.99999e-01,9.99999e-01,2.74355e-01,9.99999e-01
6.266218716e-01,2.81454e-01,9.99999e-01,9.99999e-01,2.81454e-01,9.99999e-01
6.297549810e-01,2.88591e-01,9.99999e-01,9.99999e-01,2.88591e-01,9.99999e-01
6.329037559e-01,2.95763e-01,9.99999e-01,9.99999e-01,2.95763e-01,9.99999e-01
6.360682746e-01,3.02966e-01,9.99999e-01,9.99999e-01,3.02966e-01,9.99999e-01
6.392486160e-01,3.10197e-01,9.99999e-01,9.99999e-01,3.10197e-01,9.99999e-01
6.424448591e-01,3.17453e-01,9.99999e-01,9.99999e-01,3.17453e-01,9.99999e-01
6.456570834e-01,3.24730e-01,9.99999e-01,9.99999e-01,3.24730e-01,9.99999e-01
6.488853688e-01,3.32025e-01,9.99999e-01,9.99999e-01,3.32025e-01,9.99999e-01
6.521297956e-01,3.39335e-01,9.99999e-01,9.99999e-01,3.39335e-01,9.99999e-01
6.553904446e-01,3.46657e-01,9.99999e-01,9.99999e-01,3.46657e-01,9.99999e-01
6.586673968e-01,3.53987e-01,9.99999e-01,9.99999e-01,3.53987e-01,9.99999e-01
6.619607338e-01,3.61324e-01,9.99999e-01,9.99999e-01,3.61324e-01,9.99999e-01
6.652705375e-01,3.68663e-01,9.99999e-01,9.99999e-01,3.68663e-01,9.99999e-01
6.685968902e-01,3.76001e-01,9.99999e-01,9.99999e-01,3.76001e-01,9.99999e-01
6.719398746e-01,3.83337e-01,9.99999e-01,9.99999e-01,3.83337e-01,9.99999e-01
6.752995740e-01,3.90666e-01,9.99999e-01,9.99999e-01,3.90666e-01,9.99999e-01
6.786760719e-01,3.97987e-01,9.99999e-01,9.99999e-01,3.97987e-01,9.99999e-01
6.820694522e-01,4.05296e-01,9.99999e-01,9.99999e-01,4.05296e-01,9.99999e-01
6.854797995e-01,4.12591e-01,9.99999e-01,9.99999e-01,4.12591e-01,9.99999e-01
6.889071985e-01,4.19869e-01,9.99999e-01,9.99999e-01,4.19869e-01,9.99999e-01
6.923517345e-01,4.27128e-01,9.99999e-01,9.99999e-01,4.27128e-01,9.99999e-01
6.958134932e-01,4.34366e-01,9.99999e-01,9.99999e-01,4.34366e-01,9.99999e-01
6.992925606e-01,4.41580e-01,9.99999e-01,9.99999e-01,4.41580e-01,9.99999e-01
7.027890234e-01,4.48767e-01,9.99999e-01,9.99999e-01,4.48767e-01,9.99999e-01
7.063029686e-01,4.55926e-01,9.99999e-01,9.99999e-01,4.55926e-01,9.99999e-01
7.098344834e-01,4.63054e-01,9.99999e-01,9.99999e-01,4.63054e-01,9.99999e-01
7.133836558e-01,4.70150e-01,9.99999e-01,9.99999e-01,4.70150e-01,9.99999e-01
7.169505741e-01,4.77211e-01,9.99999e-01,9.99999e-01,4.77211e-01,9.99999e-01
7.205353270e-01,4.84236e-01,9.99999e-01,9.99999e-01,4.84236e-01,9.99999e-01
7.241380036e-01,4.91222e-01,9.99999e-01,9.99999e-01,4.91222e-01,9.99999e-01
7.277586936e-01,4.98168e-01,9.99999e-01,9.99999e-01,4.98168e-01,9.99999e-01
7.313974871e-01,5.05072e-01,9.99999e-01,9.99999e-01,5.05072e-01,9.99999e-01
7.350544745e-01,5.11933e-01,9.99999e-01,9.99999e-01,5.11933e-01,9.99999e-01
7.387297469e-01,5.18748e-01,9.99999e-01,9.99999e-01,5.18748e-01,9.99999e-01
7.424233956e-01,5.25517e-01,9.99999e-01,9.99999e-01,5.25517e-01,9.99999e-01
7.461355126e-01,5.32238e-01,9.99999e-01,9.99999e-01,5.32238e-01,9.99999e-01
7.498661902e-01,5.38910e-01,9.99999e-01,9.99999e-01,5.38910e-01,9.99999e-01
7.536155211e-01,5.45531e-01,9.99999e-01,9.99999e-01,5.45531e-01,9.99999e-01
7.573835987e-01,5.52100e-01,9.99999e-01,9.99999e-01,5.52100e-01,9.99999e-01
7.611705167e-01,5.58616e-01,9.99999e-01,9.99999e-01,5.58616e-01,9.99999e-01
7.649763693e-01,5.65079e-01,9.99999e-01,9.99999e-01,5.65079e-01,9.99999e-01
7.688012511e-01,5.71486e-01,9.99999e-01,9.99999e-01,5.71486e-01,9.99999e-01
7.726452574e-01,5.77837e-01,9.99999e-01,9.99999e-01,5.77837e-01,9.99999e-01
7.765084837e-01,5.84131e-01,9.99999e-01,9.99999e-01,5.84131e-01,9.99999e-01
7.803910261e-01,5.75052e-01,9.99999e-01,9.74058e-01,5.90367e-01,9.99999e-01
7.842929812e-01,5.33297e-01,9.99999e-01,8.93976e-01,5.96544e-01,9.99999e-01
7.882144461e-01,5.34218e-01,9.99999e-01,8.86429e-01,6.02663e-01,9.99999e-01
7.921555184e-01,5.67702e-01,9.99999e-01,9.32613e-01,6.08721e-01,9.99999e-01
7.961162960e-01,5.86795e-01,9.99999e-01,9.54573e-01,6.14719e-01,9.99999e-01
8.000968774e-01,6.05204e-01,9.99999e-01,9.75103e-01,6.20656e-01,9.99999e-01
8.040973618e-01,6.18418e-01,9.99999e-01,9.87051e-01,6.26531e-01,9.99999e-01
8.081178486e-01,6.28567e-01,9.99999e-01,9.94026e-01,6.32344e-01,9.99999e-01
8.121584379e-01,6.36920e-01,9.99999e-01,9.98158e-01,6.38095e-01,9.99999e-01
8.162192301e-01,6.43521e-01,9.99999e-01,9.99592e-01,6.43782e-01,9.99999e-01
8.203003262e-01,6.49403e-01,9.99999e-01,9.99993e-01,6.49407e-01,9.99999e-01
8.244018279e-01,6.54968e-01,9.99999e-01,9.99999e-01,6.54968e-01,9.99999e-01
8.285238370e-01,6.60466e-01,9.99999e-01,9.99999e-01,6.60466e-01,9.99999e-01
8.326664562e-01,6.65900e-01,9.99999e-01,9.99999e-01,6.65900e-01,9.99999e-01
8.368297885e-01,6.71269e-01,9.99999e-01,9.99999e-01,6.71269e-01,9.99999e-01
8.410139374e-01,6.76575e-01,9.99999e-01,9.99999e-01,6.76575e-01,9.99999e-01
8.452190071e-01,6.81817e-01,9.99999e-01,9.99999e-01,6.81817e-01,9.99999e-01
8.494451021e-01,6.86994e-01,9.99999e-01,9.99999e-01,6.86994e-01,9.99999e-01
8.536923276e-01,6.92108e-01,9.99999e-01,9.99999e-01,6.92108e-01,9.99999e-01
8.579607893e-01,6.97157e-01,9.99999e-01,9.99999e-01,6.97157e-01,9.99999e-01
8.622505932e-01,7.02143e-01,9.99999e-01,9.99999e-01,7.02143e-01,9.99999e-01
8.665618462e-01,6.63021e-01,9.99999e-01,9.37709e-01,7.07064e-01,9.99999e-01
8.708946554e-01,5.34134e-01,9.99999e-01,7.50270e-01,7.11922e-01,9.99999e-01
8.752491287e-01,5.69619e-01,9.99999e-01,7.94761e-01,7.16716e-01,9.99999e-01
8.796253743e-01,6.36377e-01,9.99999e-01,8.82084e-01,7.21447e-01,9.99999e-01
8.840235012e-01,6.80490e-01,9.99999e-01,9.37165e-01,7.26115e-01,9.99999e-01
8.884436187e-01,7.12313e-01,9.99999e-01,9.74810e-01,7.30719e-01,9.99999e-01
8.928858368e-01,7.27702e-01,9.99999e-01,9.89718e-01,7.35262e-01,9.99999e-01
8.973502660e-01,7.37893e-01,9.99999e-01,9.97500e-01,7.39742e-01,9.99999e-01
9.018370173e-01,7.43955e-01,9.99999e-01,9.99724e-01,7.44159e-01,9.99999e-01
9.063462024e-01,7.43156e-01,9.99999e-01,9.92838e-01,7.48516e-01,9.99999e-01
9.108779334e-01,7.40622e-01,9.99999e-01,9.83808e-01,7.52811e-01,9.99999e-01
9.154323231e-01,7.54162e-01,9.99999e-01,9.96191e-01,7.57045e-01,9.99999e-01
9.200094847e-01,7.18994e-01,9.99999e-01,9.44530e-01,7.61218e-01,9.99999e-01
9.246095321e-01,7.06484e-01,9.99999e-01,9.23107e-01,7.65332e-01,9.99999e-01
9.292325798e-01,7.22328e-01,9.99999e-01,9.38837e-01,7.69385e-01,9.99999e-01
9.338787427e-01,7.27854e-01,9.99999e-01,9.41134e-01,7.73380e-01,9.99999e-01
9.385481364e-01,7.43456e-01,9.99999e-01,9.56439e-01,7.77315e-01,9.99999e-01
9.432408771e-01,7.60221e-01,9.99999e-01,9.73153e-01,7.81193e-01,9.99999e-01
9.479570815e-01,7.74123e-01,9.99999e-01,9.86127e-01,7.85012e-01,9.99999e-01
9.526968669e-01,7.83485e-01,9.99999e-01,9.93292e-01,7.88775e-01,9.99999e-01
9.574603512e-01,7.90205e-01,9.99999e-01,9.97128e-01,7.92480e-01,9.99999e-01
9.622476530e-01,7.95416e-01,9.99999e-01,9.99103e-01,7.96129e-01,9.99999e-01
9.670588912e-01,7.99508e-01,9.99999e-01,9.99731e-01,7.99723e-01,9.99999e-01
9.718941857e-01,8.03246e-01,9.99999e-01,9.99980e-01,8.03261e-01,9.99999e-01
9.767536566e-01,8.06744e-01,9.99999e-01,9.99999e-01,8.06744e-01,9.99999e-01
9.816374249e-01,8.10174e-01,9.99999e-01,9.99999e-01,8.10174e-01,9.99999e-01
9.865456120e-01,8.13549e-01,9.99999e-01,9.99999e-01,8.13549e-01,9.99999e-01
9.914783401e-01,8.16872e-01,9.99999e-01,9.99999e-01,8.16872e-01,9.99999e-01
9.964357318e-01,8.20142e-01,9.99999e-01,9.99999e-01,8.20142e-01,9.99999e-01
1.001417910e+00,8.23361e-01,9.99999e-01,9.99999e-01,8.23361e-01,9.99999e-01
1.006425000e+00,8.26528e-01,9.99999e-01,9.99999e-01,8.26528e-01,9.99999e-01
1.011457125e+00,8.29644e-01,9.99999e-01,9.99999e-01,8.29644e-01,9.99999e-01
1.016514411e+00,8.32710e-01,9.99999e-01,9.99999e-01,8.32710e-01,9.99999e-01
1.021596983e+00,8.35694e-01,9.99999e-01,9.99959e-01,8.35727e-01,9.99999e-01
1.026704968e+00,8.36350e-01,9.99999e-01,9.97204e-01,8.38694e-01,9.99999e-01
1.031838492e+00,8.10444e-01,9.99999e-01,9.62963e-01,8.41614e-01,9.99999e-01
1.036997685e+00,1.69241e-01,9.99999e-01,2.00407e-01,8.44485e-01,9.99999e-01
1.042182673e+00,1.71457e-01,9.99999e-01,2.02354e-01,8.47309e-01,9.99999e-01
1.047393587e+00,1.77931e-01,9.99999e-01,2.09309e-01,8.50087e-01,9.99999e-01
1.052630555e+00,1.13617e-02,9.99999e-01,1.33225e-02,8.52818e-01,9.99999e-01
1.057893707e+00,2.53405e-02,9.99999e-01,2.96206e-02,8.55504e-01,9.99999e-01
1.063183176e+00,6.52350e-02,9.99999e-01,7.60185e-02,8.58146e-01,9.99999e-01
1.068499092e+00,1.47983e-01,9.99999e-01,1.71924e-01,8.60743e-01,9.99999e-01
1.073841587e+00,2.84546e-01,9.99999e-01,3.29604e-01,8.63296e-01,9.99999e-01
1.079210795e+00,4.29117e-01,9.99999e-01,4.95627e-01,8.65806e-01,9.99999e-01
1.084606849e+00,5.91110e-01,9.99999e-01,6.80787e-01,8.68274e-01,9.99999e-01
1.090029883e+00,7.13285e-01,9.99999e-01,8.19207e-01,8.70700e-01,9.99999e-01
1.095480033e+00,7.91463e-01,9.99999e-01,9.06512e-01,8.73084e-01,9.99999e-01
1.100957433e+00,8.35020e-01,9.99999e-01,9.53841e-01,8.75428e-01,9.99999e-01
1.106462220e+00,8.60760e-01,9.99999e-01,9.80664e-01,8.77732e-01,9.99999e-01
1.111994531e+00,8.73652e-01,9.99999e-01,9.92790e-01,8.79996e-01,9.99999e-01
1.117554504e+00,8.80667e-01,9.99999e-01,9.98238e-01,8.82221e-01,9.99999e-01
1.123142276e+00,8.84305e-01,9.99999e-01,9.99884e-01,8.84407e-01,9.99999e-01
1.128757988e+00,8.86555e-01,9.99999e-01,9.99999e-01,8.86555e-01,9.99999e-01
1.134401778e+00,8.88667e-01,9.99999e-01,9.99999e-01,8.88667e-01,9.99999e-01
1.140073787e+00,8.90741e-01,9.99999e-01,9.99999e-01,8.90741e-01,9.99999e-01
1.145774156e+00,8.92779e-01,9.99999e-01,9.99999e-01,8.92779e-01,9.99999e-01
1.151503026e+00,8.94781e-01,9.99999e-01,9.99999e-01,8.94781e-01,9.99999e-01
1.157260541e+00,8.96748e-01,9.99999e-01,9.99999e-01,8.96748e-01,9.99999e-01
1.163046844e+00,8.98681e-01,9.99999e-01,9.99999e-01,8.98681e-01,9.99999e-01
1.168862078e+00,9.00579e-01,9.99999e-01,9.99999e-01,9.00579e-01,9.99999e-01
1.174706389e+00,9.02444e-01,9.99999e-01,9.99999e-01,9.02444e-01,9.99999e-01
1.180579921e+00,9.04275e-01,9.99999e-01,9.99999e-01,9.04275e-01,9.99999e-01
1.186482820e+00,9.06069e-01,9.99999e-01,9.99993e-01,9.06074e-01,9.99999e-01
1.192415234e+00,8.98758e-01,9.99999e-01,9.89994e-01,9.07841e-01,9.99999e-01
1.198377311e+00,5.17950e-01,9.99999e-01,5.69440e-01,9.09577e-01,9.99999e-01
1.204369197e+00,7.16638e-09,9.99999e-01,7.86407e-09,9.11281e-01,9.99999e-01
1.210391043e+00,1.06925e-30,9.99999e-01,1.17120e-30,9.12955e-01,9.99999e-01
1.216442998e+00,8.54940e-27,9.99999e-01,9.34770e-27,9.14599e-01,9.99999e-01
1.222525213e+00,2.04586e-26,9.99999e-01,2.23295e-26,9.16213e-01,9.99999e-01
1.228637839e+00,1.97991e-20,9.99999e-01,2.15724e-20,9.17798e-01,9.99999e-01
1.234781029e+00,1.44251e-13,9.99999e-01,1.56904e-13,9.19354e-01,9.99999e-01
1.240954934e+00,3.44333e-09,9.99999e-01,3.73916e-09,9.20882e-01,9.99999e-01
1.247159708e+00,2.26404e-05,9.99999e-01,2.45455e-05,9.22383e-01,9.99999e-01
1.253395507e+00,2.08246e-03,9.99999e-01,2.25410e-03,9.23856e-01,9.99999e-01
1.259662485e+00,2.84102e-02,9.99999e-01,3.07036e-02,9.25302e-01,9.99999e-01
1.265960797e+00,1.23076e-01,9.99999e-01,1.32808e-01,9.26722e-01,9.99999e-01
1.272290601e+00,4.00152e-01,9.99999e-01,4.31144e-01,9.28116e-01,9.99999e-01
1.278652054e+00,3.44889e-01,9.99999e-01,3.71054e-01,9.29485e-01,9.99999e-01
1.285045314e+00,1.11022e-02,9.99999e-01,1.19272e-02,9.30828e-01,9.99999e-01
1.291470541e+00,2.65473e-04,9.99999e-01,2.84797e-04,9.32147e-01,9.99999e-01
1.297927893e+00,2.27589e-02,9.99999e-01,2.43817e-02,9.33442e-01,9.99999e-01
1.304417533e+00,2.02736e-01,9.99999e-01,2.16897e-01,9.34713e-01,9.99999e-01
1.310939621e+00,5.12907e-02,9.99999e-01,5.48001e-02,9.35960e-01,9.99999e-01
1.317494319e+00,5.00095e-11,9.99999e-01,5.33613e-11,9.37184e-01,9.99999e-01
1.324081790e+00,7.85306e-08,9.99999e-01,8.36868e-08,9.38386e-01,9.99999e-01
1.330702199e+00,1.24858e-04,9.99999e-01,1.32889e-04,9.39565e-01,9.99999e-01
1.337355710e+00,1.17808e-04,9.99999e-01,1.25231e-04,9.40723e-01,9.99999e-01
1.344042489e+00,3.44752e-05,9.99999e-01,3.66033e-05,9.41859e-01,9.99999e-01
1.350762701e+00,8.54893e-05,9.99999e-01,9.06591e-05,9.42974e-01,9.99999e-01
1.357516515e+00,2.24391e-03,9.99999e-01,2.37685e-03,9.44068e-01,9.99999e-01
1.364304097e+00,2.00297e-02,9.99999e-01,2.11922e-02,9.45142e-01,9.99999e-01
1.371125618e+00,1.25380e-01,9.99999e-01,1.32510e-01,9.46196e-01,9.99999e-01
1.377981246e+00,1.83919e-01,9.99999e-01,1.94164e-01,9.47230e-01,9.99999e-01
1.384871152e+00,3.65382e-01,9.99999e-01,3.85324e-01,9.48245e-01,9.99999e-01
1.391795508e+00,3.93419e-01,9.99999e-01,4.14456e-01,9.49241e-01,9.99999e-01
1.398754485e+00,5.52308e-01,9.99999e-01,5.81242e-01,9.50218e-01,9.99999e-01
1.405748258e+00,6.37714e-01,9.99999e-01,6.70446e-01,9.51177e-01,9.99999e-01
1.412776999e+00,7.39843e-01,9.99999e-01,7.77049e-01,9.52118e-01,9.99999e-01
1.419840884e+00,6.71536e-01,9.99999e-01,7.04623e-01,9.53041e-01,9.99999e-01
1.426940089e+00,7.42899e-02,9.99999e-01,7.78762e-02,9.53947e-01,9.99999e-01
1.434074789e+00,0.00000e+00,9.99999e-01,0.00000e+00,9.54836e-01,9.99999e-01
1.441245163e+00,0.00000e+00,9.99999e-01,0.00000e+00,9.55708e-01,9.99999e-01
1.448451389e+00,0.00000e+00,9.99999e-01,0.00000e+00,9.56564e-01,9.99999e-01
1.455693646e+00,2.48301e-242,9.99999e-01,2.59348e-242,9.57403e-01,9.99999e-01
1.462972114e+00,1.01325e-117,9.99999e-01,1.05742e-117,9.58226e-01,9.99999e-01
1.470286975e+00,9.18881e-50,9.99999e-01,9.58130e-50,9.59034e-01,9.99999e-01
