#,Wave/freq,Total,O2,CO2,Rayleigh,CIA
4.000000000e-01,8.14537e-04,9.99999e-01,9.99999e-01,8.14537e-04,9.99999e-01
4.020000000e-01,9.37543e-04,9.99999e-01,9.99999e-01,9.37543e-04,9.99999e-01
4.040100000e-01,1.07597e-03,9.99999e-01,9.99999e-01,1.07597e-03,9.99999e-01
4.060300500e-01,1.23149e-03,9.99999e-01,9.99999e-01,1.23149e-03,9.99999e-01
4.080602003e-01,1.40573e-03,9.99999e-01,9.99999e-01,1.40573e-03,9.99999e-01
4.101005013e-01,1.60044e-03,9.99999e-01,9.99999e-01,1.60044e-03,9.99999e-01
4.121510038e-01,1.81745e-03,9.99999e-01,9.99999e-01,1.81745e-03,9.99999e-01
4.142117588e-01,2.05870e-03,9.99999e-01,9.99999e-01,2.05870e-03,9.99999e-01
4.162828176e-01,2.32625e-03,9.99999e-01,9.99999e-01,2.32625e-03,9.99999e-01
4.183642317e-01,2.62224e-03,9.99999e-01,9.99999e-01,2.62224e-03,9.99999e-01
4.204560528e-01,2.94890e-03,9.99999e-01,9.99999e-01,2.94890e-03,9.99999e-01
4.225583331e-01,3.30857e-03,9.99999e-01,9.99999e-01,3.30857e-03,9.99999e-01
4.246711247e-01,3.70368e-03,9.99999e-01,9.99999e-01,3.70368e-03,9.99999e-01
4.267944804e-01,4.13675e-03,9.99999e-01,9.99999e-01,4.13675e-03,9.99999e-01
4.289284528e-01,4.61037e-03,9.99999e-01,9.99999e-01,4.61037e-03,9.99999e-01
4.310730950e-01,5.12723e-03,9.99999e-01,9.99999e-01,5.12723e-03,9.99999e-01
4.332284605e-01,5.69008e-03,9.99999e-01,9.99999e-01,5.69008e-03,9.99999e-01
4.353946028e-01,6.30174e-03,9.99999e-01,9.99999e-01,6.30174e-03,9.99999e-01
4.375715758e-01,6.96508e-03,9.99999e-01,9.99999e-01,6.96508e-03,9.99999e-01
4.397594337e-01,7.68305e-03,9.99999e-01,9.99999e-01,7.68305e-03,9.99999e-01
4.419582309e-01,8.45863e-03,9.99999e-01,9.99999e-01,8.45863e-03,9.99999e-01
4.441680220e-01,9.29482e-03,9.99999e-01,9.99999e-01,9.29482e-03,9.99999e-01
4.463888621e-01,1.01947e-02,9.99999e-01,9.99999e-01,1.01947e-02,9.99999e-01
4.486208064e-01,1.11612e-02,9.99999e-01,9.99999e-01,1.11612e-02,9.99999e-01
4.508639105e-01,1.21976e-02,9.99999e-01,9.99999e-01,1.21976e-02,9.99999e-01
4.531182300e-01,1.33069e-02,9.99999e-01,9.99999e-01,1.33069e-02,9.99999e-01
4.553838212e-01,1.44921e-02,9.99999e-01,9.99999e-01,1.44921e-02,9.99999e-01
4.576607403e-01,1.57562e-02,9.99999e-01,9.99999e-01,1.57562e-02,9.99999e-01
4.599490440e-01,1.71024e-02,9.99999e-01,9.99999e-01,1.71024e-02,9.99999e-01
4.622487892e-01,1.85335e-02,9.99999e-01,9.99999e-01,1.85335e-02,9.99999e-01
4.645600332e-01,2.00526e-02,9.99999e-01,9.99999e-01,2.00526e-02,9.99999e-01
4.668828333e-01,2.16624e-02,9.99999e-01,9.99999e-01,2.16624e-02,9.99999e-01
4.692172475e-01,2.33658e-02,9.99999e-01,9.99999e-01,2.33658e-02,9.99999e-01
4.715633337e-01,2.51655e-02,9.99999e-01,9.99999e-01,2.51655e-02,9.99999e-01
4.739211504e-01,2.70641e-02,9.99999e-01,9.99999e-01,2.70641e-02,9.99999e-01
4.762907561e-01,2.90641e-02,9.99999e-01,9.99999e-01,2.90641e-02,9.99999e-01
4.786722099e-01,3.11681e-02,9.99999e-01,9.99999e-01,3.11681e-02,9.99999e-01
4.810655710e-01,3.33782e-02,9.99999e-01,9.99999e-01,3.33782e-02,9.99999e-01
4.834708988e-01,3.56967e-02,9.99999e-01,9.99999e-01,3.56967e-02,9.99999e-01
4.858882533e-01,3.81257e-02,9.99999e-01,9.99999e-01,3.81257e-02,9.99999e-01
4.883176946e-01,4.06670e-02,9.99999e-01,9.99999e-01,4.06670e-02,9.99999e-01
4.907592831e-01,4.33224e-02,9.99999e-01,9.99999e-01,4.33224e-02,9.99999e-01
4.932130795e-01,4.60937e-02,9.99999e-01,9.99999e-01,4.60937e-02,9.99999e-01
4.956791449e-01,4.89821e-02,9.99999e-01,9.99999e-01,4.89821e-02,9.99999e-01
4.981575406e-01,5.19891e-02,9.99999e-01,9.99999e-01,5.19891e-02,9.99999e-01
5.006483283e-01,5.51158e-02,9.99999e-01,9.99999e-01,5.51158e-02,9.99999e-01
5.031515699e-01,5.83632e-02,9.99999e-01,9.99999e-01,5.83632e-02,9.99999e-01
5.056673278e-01,6.17321e-02,9.99999e-01,9.99999e-01,6.17321e-02,9.99999e-01
5.081956644e-01,6.52231e-02,9.99999e-01,9.99999e-01,6.52231e-02,9.99999e-01
5.107366428e-01,6.88367e-02,9.99999e-01,9.99999e-01,6.88367e-02,9.99999e-01
5.132903260e-01,7.25731e-02,9.99999e-01,9.99999e-01,7.25731e-02,9.99999e-01
5.158567776e-01,7.64326e-02,9.99999e-01,9.99999e-01,7.64326e-02,9.99999e-01
5.184360615e-01,8.04149e-02,9.99999e-01,9.99999e-01,8.04149e-02,9.99999e-01
5.210282418e-01,8.45199e-02,9.99999e-01,9.99999e-01,8.45199e-02,9.99999e-01
5.236333830e-01,8.87471e-02,9.99999e-01,9.99999e-01,8.87471e-02,9.99999e-01
5.262515499e-01,9.30959e-02,9.99999e-01,9.99999e-01,9.30959e-02,9.99999e-01
5.288828077e-01,9.75656e-02,9.99999e-01,9.99999e-01,9.75656e-02,9.99999e-01
5.315272217e-01,1.02155e-01,9.99999e-01,9.99999e-01,1.02155e-01,9.99999e-01
5.341848578e-01,1.06864e-01,9.99999e-01,9.99999e-01,1.06864e-01,9.99999e-01
5.368557821e-01,1.11690e-01,9.99999e-01,9.99999e-01,1.11690e-01,9.99999e-01
5.395400610e-01,1.16632e-01,9.99999e-01,9.99999e-01,1.16632e-01,9.99999e-01
5.422377613e-01,1.21689e-01,9.99999e-01,9.99999e-01,1.21689e-01,9.99999e-01
5.449489501e-01,1.26858e-01,9.99999e-01,9.99999e-01,1.26858e-01,9.99999e-01
5.476736949e-01,1.32139e-01,9.99999e-01,9.99999e-01,1.32139e-01,9.99999e-01
5.504120634e-01,1.37528e-01,9.99999e-01,9.99999e-01,1.37528e-01,9.99999e-01
5.531641237e-01,1.43025e-01,9.99999e-01,9.99999e-01,1.43025e-01,9.99999e-01
5.559299443e-01,1.48626e-01,9.99999e-01,9.99999e-01,1.48626e-01,9.99999e-01
5.587095940e-01,1.54329e-01,9.99999e-01,9.99999e-01,1.54329e-01,9.99999e-01
5.615031420e-01,1.60132e-01,9.99999e-01,9.99999e-01,1.60132e-01,9.99999e-01
5.643106577e-01,1.66031e-01,9.99999e-01,9.99999e-01,1.66031e-01,9.99999e-01
5.671322110e-01,1.72026e-01,9.99999e-01,9.99999e-01,1.72026e-01,9.99999e-01
5.699678720e-01,1.78112e-01,9.99999e-01,9.99999e-01,1.78112e-01,9.99999e-01
5.728177114e-01,1.84286e-01,9.99999e-01,9.99999e-01,1.84286e-01,9.99999e-01
5.756818000e-01,1.90547e-01,9.99999e-01,9.99999e-01,1.90547e-01,9.99999e-01
5.785602090e-01,1.96890e-01,9.99999e-01,9.99999e-01,1.96890e-01,9.99999e-01
5.814530100e-01,2.03313e-01,9.99999e-01,9.99999e-01,2.03313e-01,9.99999e-01
5.843602750e-01,2.09812e-01,9.99999e-01,9.99999e-01,2.09812e-01,9.99999e-01
5.872820764e-01,2.16384e-01,9.99999e-01,9.99999e-01,2.16384e-01,9.99999e-01
5.902184868e-01,2.23026e-01,9.99999e-01,9.99999e-01,2.23026e-01,9.99999e-01
5.931695792e-01,2.29735e-01,9.99999e-01,9.99999e-01,2.29735e-01,9.99999e-01
5.961354271e-01,2.36508e-01,9.99999e-01,9.99999e-01,2.36508e-01,9.99999e-01
5.991161043e-01,2.43340e-01,9.99999e-01,9.99999e-01,2.43340e-01,9.99999e-01
6.021116848e-01,2.50229e-01,9.99999e-01,9.99999e-01,2.50229e-01,9.99999e-01
6.051222432e-01,2.57171e-01,9.99999e-01,9.99999e-01,2.57171e-01,9.99999e-01
6.081478544e-01,2.64162e-01,9.99999e-01,9.99999e-01,2.64162e-01,9.99999e-01
6.111885937e-01,2.71200e-01,9.99999e-01,9.99999e-01,2.71200e-01,9.99999e-01
6.142445367e-01,2.78281e-01,9.99999e-01,9.99999e-01,2.78281e-01,9.99999e-01
6.173157594e-01,2.85402e-01,9.99999e-01,9.99999e-01,2.85402e-01,9.99999e-01
6.204023382e-01,2.92559e-01,9.99999e-01,9.99999e-01,2.92559e-01,9.99999e-01
6.235043498e-01,2.99748e-01,9.99999e-01,9.99999e-01,2.99748e-01,9.99999e-01
6.266218716e-01,3.06967e-01,9.99999e-01,9.99999e-01,3.06967e-01,9.99999e-01
6.297549810e-01,3.14212e-01,9.99999e-01,9.99999e-01,3.14212e-01,9.99999e-01
6.329037559e-01,3.21480e-01,9.99999e-01,9.99999e-01,3.21480e-01,9.99999e-01
6.360682746e-01,3.28768e-01,9.99999e-01,9.99999e-01,3.28768e-01,9.99999e-01
6.392486160e-01,3.36072e-01,9.99999e-01,9.99999e-01,3.36072e-01,9.99999e-01
6.424448591e-01,3.43389e-01,9.99999e-01,9.99999e-01,3.43389e-01,9.99999e-01
6.456570834e-01,3.50716e-01,9.99999e-01,9.99999e-01,3.50716e-01,9.99999e-01
6.488853688e-01,3.58050e-01,9.99999e-01,9.99999e-01,3.58050e-01,9.99999e-01
6.521297956e-01,3.65388e-01,9.99999e-01,9.99999e-01,3.65388e-01,9.99999e-01
6.553904446e-01,3.72727e-01,9.99999e-01,9.99999e-01,3.72727e-01,9.99999e-01
6.586673968e-01,3.80064e-01,9.99999e-01,9.99999e-01,3.80064e-01,9.99999e-01
6.619607338e-01,3.87397e-01,9.99999e-01,9.99999e-01,3.87397e-01,9.99999e-01
6.652705375e-01,3.94722e-01,9.99999e-01,9.99999e-01,3.94722e-01,9.99999e-01
6.685968902e-01,4.02036e-01,9.99999e-01,9.99999e-01,4.02036e-01,9.99999e-01
6.719398746e-01,4.09338e-01,9.99999e-01,9.99999e-01,4.09338e-01,9.99999e-01
6.752995740e-01,4.16624e-01,9.99999e-01,9.99999e-01,4.16624e-01,9.99999e-01
6.786760719e-01,4.23892e-01,9.99999e-01,9.99999e-01,4.23892e-01,9.99999e-01
6.820694522e-01,4.31139e-01,9.99999e-01,9.99999e-01,4.31139e-01,9.99999e-01
6.854797995e-01,4.38364e-01,9.99999e-01,9.99999e-01,4.38364e-01,9.99999e-01
6.889071985e-01,4.45563e-01,9.99999e-01,9.99999e-01,4.45563e-01,9.99999e-01
6.923517345e-01,4.52735e-01,9.99999e-01,9.99999e-01,4.52735e-01,9.99999e-01
6.958134932e-01,4.59878e-01,9.99999e-01,9.99999e-01,4.59878e-01,9.99999e-01
6.992925606e-01,4.66988e-01,9.99999e-01,9.99999e-01,4.66988e-01,9.99999e-01
7.027890234e-01,4.74065e-01,9.99999e-01,9.99999e-01,4.74065e-01,9.99999e-01
7.063029686e-01,4.81106e-01,9.99999e-01,9.99999e-01,4.81106e-01,9.99999e-01
7.098344834e-01,4.88110e-01,9.99999e-01,9.99999e-01,4.88110e-01,9.99999e-01
7.133836558e-01,4.95074e-01,9.99999e-01,9.99999e-01,4.95074e-01,9.99999e-01
7.169505741e-01,5.01997e-01,9.99999e-01,9.99999e-01,5.01997e-01,9.99999e-01
7.205353270e-01,5.08877e-01,9.99999e-01,9.99999e-01,5.08877e-01,9.99999e-01
7.241380036e-01,5.15713e-01,9.99999e-01,9.99999e-01,5.15713e-01,9.99999e-01
7.277586936e-01,5.22503e-01,9.99999e-01,9.99999e-01,5.22503e-01,9.99999e-01
7.313974871e-01,5.29246e-01,9.99999e-01,9.99999e-01,5.29246e-01,9.99999e-01
7.350544745e-01,5.35939e-01,9.99999e-01,9.99999e-01,5.35939e-01,9.99999e-01
7.387297469e-01,5.42583e-01,9.99999e-01,9.99999e-01,5.42583e-01,9.99999e-01
7.424233956e-01,5.49176e-01,9.99999e-01,9.99999e-01,5.49176e-01,9.99999e-01
7.461355126e-01,5.55716e-01,9.99999e-01,9.99999e-01,5.55716e-01,9.99999e-01
7.498661902e-01,5.62202e-01,9.99999e-01,9.99999e-01,5.62202e-01,9.99999e-01
7.536155211e-01,5.68634e-01,9.99999e-01,9.99999e-01,5.68634e-01,9.99999e-01
7.573835987e-01,5.75010e-01,9.99999e-01,9.99999e-01,5.75010e-01,9.99999e-01
7.611705167e-01,5.81329e-01,9.99999e-01,9.99999e-01,5.81329e-01,9.99999e-01
7.649763693e-01,5.87591e-01,9.99999e-01,9.99999e-01,5.87591e-01,9.99999e-01
7.688012511e-01,5.93795e-01,9.99999e-01,9.99999e-01,5.93795e-01,9.99999e-01
7.726452574e-01,5.99940e-01,9.99999e-01,9.99999e-01,5.99940e-01,9.99999e-01
7.765084837e-01,6.06026e-01,9.99999e-01,9.99999e-01,6.06026e-01,9.99999e-01
7.803910261e-01,5.97566e-01,9.99999e-01,9.76333e-01,6.12051e-01,9.99999e-01
7.842929812e-01,5.56444e-01,9.99999e-01,9.00373e-01,6.18015e-01,9.99999e-01
7.882144461e-01,5.57571e-01,9.99999e-01,8.93660e-01,6.23917e-01,9.99999e-01
7.921555184e-01,5.90163e-01,9.99999e-01,9.37125e-01,6.29758e-01,9.99999e-01
7.961162960e-01,6.08494e-01,9.99999e-01,9.57449e-01,6.35537e-01,9.99999e-01
8.000968774e-01,6.26330e-01,9.99999e-01,9.76728e-01,6.41252e-01,9.99999e-01
8.040973618e-01,6.39058e-01,9.99999e-01,9.87868e-01,6.46905e-01,9.99999e-01
8.081178486e-01,6.48855e-01,9.99999e-01,9.94420e-01,6.52495e-01,9.99999e-01
8.121584379e-01,6.56883e-01,9.99999e-01,9.98270e-01,6.58021e-01,9.99999e-01
8.162192301e-01,6.63230e-01,9.99999e-01,9.99617e-01,6.63483e-01,9.99999e-01
8.203003262e-01,6.68877e-01,9.99999e-01,9.99993e-01,6.68881e-01,9.99999e-01
8.244018279e-01,6.74216e-01,9.99999e-01,9.99999e-01,6.74216e-01,9.99999e-01
8.285238370e-01,6.79486e-01,9.99999e-01,9.99999e-01,6.79486e-01,9.99999e-01
8.326664562e-01,6.84692e-01,9.99999e-01,9.99999e-01,6.84692e-01,9.99999e-01
8.368297885e-01,6.89834e-01,9.99999e-01,9.99999e-01,6.89834e-01,9.99999e-01
8.410139374e-01,6.94912e-01,9.99999e-01,9.99999e-01,6.94912e-01,9.99999e-01
8.452190071e-01,6.99926e-01,9.99999e-01,9.99999e-01,6.99926e-01,9.99999e-01
8.494451021e-01,7.04876e-01,9.99999e-01,9.99999e-01,7.04876e-01,9.99999e-01
8.536923276e-01,7.09762e-01,9.99999e-01,9.99999e-01,7.09762e-01,9.99999e-01
8.579607893e-01,7.14585e-01,9.99999e-01,9.99999e-01,7.14585e-01,9.99999e-01
8.622505932e-01,7.19344e-01,9.99999e-01,9.99999e-01,7.19344e-01,9.99999e-01
8.665618462e-01,6.81977e-01,9.99999e-01,9.41905e-01,7.24040e-01,9.99999e-01
8.708946554e-01,5.57052e-01,9.99999e-01,7.64475e-01,7.28673e-01,9.99999e-01
8.752491287e-01,5.91406e-01,9.99999e-01,8.06562e-01,7.33243e-01,9.99999e-01
8.796253743e-01,6.56040e-01,9.99999e-01,8.89243e-01,7.37750e-01,9.99999e-01
8.840235012e-01,6.98509e-01,9.99999e-01,9.41137e-01,7.42196e-01,9.99999e-01
8.884436187e-01,7.28946e-01,9.99999e-01,9.76380e-01,7.46580e-01,9.99999e-01
8.928858368e-01,7.43677e-01,9.99999e-01,9.90377e-01,7.50902e-01,9.99999e-01
8.973502660e-01,7.53390e-01,9.99999e-01,9.97651e-01,7.55163e-01,9.99999e-01
9.018370173e-01,7.59167e-01,9.99999e-01,9.99740e-01,7.59363e-01,9.99999e-01
9.063462024e-01,7.58468e-01,9.99999e-01,9.93403e-01,7.63504e-01,9.99999e-01
9.108779334e-01,7.55965e-01,9.99999e-01,9.84862e-01,7.67584e-01,9.99999e-01
9.154323231e-01,7.68842e-01,9.99999e-01,9.96418e-01,7.71605e-01,9.99999e-01
9.200094847e-01,7.35585e-01,9.99999e-01,9.48447e-01,7.75567e-01,9.99999e-01
9.246095321e-01,7.23349e-01,9.99999e-01,9.28000e-01,7.79470e-01,9.99999e-01
9.292325798e-01,7.38755e-01,9.99999e-01,9.43112e-01,7.83315e-01,9.99999e-01
9.338787427e-01,7.43746e-01,9.99999e-01,9.44915e-01,7.87103e-01,9.99999e-01
9.385481364e-01,7.58635e-01,9.99999e-01,9.59283e-01,7.90834e-01,9.99999e-01
9.432408771e-01,7.74549e-01,9.99999e-01,9.74878e-01,7.94508e-01,9.99999e-01
9.479570815e-01,7.87786e-01,9.99999e-01,9.87044e-01,7.98126e-01,9.99999e-01
9.526968669e-01,7.96662e-01,9.99999e-01,9.93729e-01,8.01689e-01,9.99999e-01
9.574603512e-01,8.03035e-01,9.99999e-01,9.97314e-01,8.05197e-01,9.99999e-01
9.622476530e-01,8.07972e-01,9.99999e-01,9.99161e-01,8.08650e-01,9.99999e-01
9.670588912e-01,8.11846e-01,9.99999e-01,9.99748e-01,8.12050e-01,9.99999e-01
9.718941857e-01,8.15382e-01,9.99999e-01,9.99981e-01,8.15396e-01,9.99999e-01
9.767536566e-01,8.18690e-01,9.99999e-01,9.99999e-01,8.18690e-01,9.99999e-01
9.816374249e-01,8.21931e-01,9.99999e-01,9.99999e-01,8.21931e-01,9.99999e-01
9.865456120e-01,8.25121e-01,9.99999e-01,9.99999e-01,8.25121e-01,9.99999e-01
9.914783401e-01,8.28260e-01,9.99999e-01,9.99999e-01,8.28260e-01,9.99999e-01
9.964357318e-01,8.31348e-01,9.99999e-01,9.99999e-01,8.31348e-01,9.99999e-01
1.001417910e+00,8.34387e-01,9.99999e-01,9.99999e-01,8.34387e-01,9.99999e-01
1.006425000e+00,8.37376e-01,9.99999e-01,9.99999e-01,8.37376e-01,9.99999e-01
1.011457125e+00,8.40317e-01,9.99999e-01,9.99999e-01,8.40317e-01,9.99999e-01
1.016514411e+00,8.43210e-01,9.99999e-01,9.99999e-01,8.43210e-01,9.99999e-01
1.021596983e+00,8.46026e-01,9.99999e-01,9.99965e-01,8.46055e-01,9.99999e-01
1.026704968e+00,8.46675e-01,9.99999e-01,9.97433e-01,8.48853e-01,9.99999e-01
1.031838492e+00,8.23107e-01,9.99999e-01,9.66534e-01,8.51605e-01,9.99999e-01
1.036997685e+00,1.83299e-01,9.99999e-01,2.14557e-01,8.54311e-01,9.99999e-01
1.042182673e+00,1.91525e-01,9.99999e-01,2.23490e-01,8.56973e-01,9.99999e-01
1.047393587e+00,1.95943e-01,9.99999e-01,2.27950e-01,8.59589e-01,9.99999e-01
1.052630555e+00,1.46925e-02,9.99999e-01,1.70414e-02,8.62162e-01,9.99999e-01
1.057893707e+00,3.15249e-02,9.99999e-01,3.64579e-02,8.64692e-01,9.99999e-01
1.063183176e+00,7.72012e-02,9.99999e-01,8.90257e-02,8.67178e-01,9.99999e-01
1.068499092e+00,1.68147e-01,9.99999e-01,1.93356e-01,8.69623e-01,9.99999e-01
1.073841587e+00,3.08943e-01,9.99999e-01,3.54282e-01,8.72026e-01,9.99999e-01
1.079210795e+00,4.53822e-01,9.99999e-01,5.19016e-01,8.74387e-01,9.99999e-01
1.084606849e+00,6.12083e-01,9.99999e-01,6.98159e-01,8.76709e-01,9.99999e-01
1.090029883e+00,7.29684e-01,9.99999e-01,8.30138e-01,8.78990e-01,9.99999e-01
1.095480033e+00,8.04014e-01,9.99999e-01,9.12374e-01,8.81233e-01,9.99999e-01
1.100957433e+00,8.45294e-01,9.99999e-01,9.56824e-01,8.83436e-01,9.99999e-01
1.106462220e+00,8.69585e-01,9.99999e-01,9.81914e-01,8.85601e-01,9.99999e-01
1.111994531e+00,8.81746e-01,9.99999e-01,9.93259e-01,8.87729e-01,9.99999e-01
1.117554504e+00,8.88351e-01,9.99999e-01,9.98348e-01,8.89820e-01,9.99999e-01
1.123142276e+00,8.91777e-01,9.99999e-01,9.99890e-01,8.91874e-01,9.99999e-01
1.128757988e+00,8.93892e-01,9.99999e-01,9.99999e-01,8.93892e-01,9.99999e-01
1.134401778e+00,8.95875e-01,9.99999e-01,9.99999e-01,8.95875e-01,9.99999e-01
1.140073787e+00,8.97823e-01,9.99999e-01,9.99999e-01,8.97823e-01,9.99999e-01
1.145774156e+00,8.99736e-01,9.99999e-01,9.99999e-01,8.99736e-01,9.99999e-01
1.151503026e+00,9.01616e-01,9.99999e-01,9.99999e-01,9.01616e-01,9.99999e-01
1.157260541e+00,9.03462e-01,9.99999e-01,9.99999e-01,9.03462e-01,9.99999e-01
1.163046844e+00,9.05276e-01,9.99999e-01,9.99999e-01,9.05276e-01,9.99999e-01
1.168862078e+00,9.07057e-01,9.99999e-01,9.99999e-01,9.07057e-01,9.99999e-01
1.174706389e+00,9.08806e-01,9.99999e-01,9.99999e-01,9.08806e-01,9.99999e-01
1.180579921e+00,9.10524e-01,9.99999e-01,9.99999e-01,9.10524e-01,9.99999e-01
1.186482820e+00,9.12208e-01,9.99999e-01,9.99995e-01,9.12212e-01,9.99999e-01
1.192415234e+00,9.05487e-01,9.99999e-01,9.90828e-01,9.13869e-01,9.99999e-01
1.198377311e+00,5.23998e-01,9.99999e-01,5.72365e-01,9.15496e-01,9.99999e-01
1.204369197e+00,2.03870e-08,9.99999e-01,2.22300e-08,9.17094e-01,9.99999e-01
1.210391043e+00,9.53700e-29,9.99999e-01,1.03814e-28,9.18663e-01,9.99999e-01
1.216442998e+00,4.11991e-25,9.99999e-01,4.47716e-25,9.20204e-01,9.99999e-01
1.222525213e+00,9.31614e-25,9.99999e-01,1.01074e-24,9.21717e-01,9.99999e-01
1.228637839e+00,3.91297e-19,9.99999e-01,4.23847e-19,9.23202e-01,9.99999e-01
1.234781029e+00,8.63411e-13,9.99999e-01,9.33760e-13,9.24660e-01,9.99999e-01
1.240954934e+00,1.10776e-08,9.99999e-01,1.19617e-08,9.26092e-01,9.99999e-01
1.247159708e+00,4.06864e-05,9.99999e-01,4.38668e-05,9.27497e-01,9.99999e-01
1.253395507e+00,3.04864e-03,9.99999e-01,3.28206e-03,9.28877e-01,9.99999e-01
1.259662485e+00,3.55275e-02,9.99999e-01,3.81920e-02,9.30232e-01,9.99999e-01
1.265960797e+00,1.39870e-01,9.99999e-01,1.50146e-01,9.31562e-01,9.99999e-01
1.272290601e+00,4.24779e-01,9.99999e-01,4.55347e-01,9.32867e-01,9.99999e-01
1.278652054e+00,3.69869e-01,9.99999e-01,3.95942e-01,9.34148e-01,9.99999e-01
1.285045314e+00,1.82690e-02,9.99999e-01,1.95305e-02,9.35406e-01,9.99999e-01
1.291470541e+00,4.48216e-04,9.99999e-01,4.78536e-04,9.36641e-01,9.99999e-01
1.297927893e+00,1.63069e-02,9.99999e-01,1.73875e-02,9.37853e-01,9.99999e-01
1.304417533e+00,2.25144e-01,9.99999e-01,2.39759e-01,9.39042e-01,9.99999e-01
1.310939621e+00,5.91514e-02,9.99999e-01,6.29129e-02,9.40209e-01,9.99999e-01
1.317494319e+00,2.36142e-10,9.99999e-01,2.50853e-10,9.41355e-01,9.99999e-01
1.324081790e+00,2.08936e-07,9.99999e-01,2.21688e-07,9.42479e-01,9.99999e-01
1.330702199e+00,2.24259e-04,9.99999e-01,2.37667e-04,9.43583e-01,9.99999e-01
1.337355710e+00,1.96962e-04,9.99999e-01,2.08499e-04,9.44666e-01,9.99999e-01
1.344042489e+00,5.96185e-05,9.99999e-01,6.30397e-05,9.45728e-01,9.99999e-01
1.350762701e+00,1.55265e-04,9.99999e-01,1.63994e-04,9.46771e-01,9.99999e-01
1.357516515e+00,3.23403e-03,9.99999e-01,3.41216e-03,9.47795e-01,9.99999e-01
1.364304097e+00,2.58625e-02,9.99999e-01,2.72581e-02,9.48799e-01,9.99999e-01
1.371125618e+00,1.42850e-01,9.99999e-01,1.50403e-01,9.49785e-01,9.99999e-01
1.377981246e+00,2.06056e-01,9.99999e-01,2.16729e-01,9.50752e-01,9.99999e-01
1.384871152e+00,3.90753e-01,9.99999e-01,4.10584e-01,9.51700e-01,9.99999e-01
1.391795508e+00,4.18588e-01,9.99999e-01,4.39401e-01,9.52632e-01,9.99999e-01
1.398754485e+00,5.74783e-01,9.99999e-01,6.02784e-01,9.53545e-01,9.99999e-01
1.405748258e+00,6.57020e-01,9.99999e-01,6.88381e-01,9.54441e-01,9.99999e-01
1.412776999e+00,7.54782e-01,9.99999e-01,7.90081e-01,9.55321e-01,9.99999e-01
1.419840884e+00,6.89923e-01,9.99999e-01,7.21537e-01,9.56184e-01,9.99999e-01
1.426940089e+00,7.97139e-02,9.99999e-01,8.32929e-02,9.57030e-01,9.99999e-01
1.434074789e+00,0.00000e+00,9.99999e-01,0.00000e+00,9.57861e-01,9.99999e-01
1.441245163e+00,0.00000e+00,9.99999e-01,0.00000e+00,9.58676e-01,9.99999e-01
1.448451389e+00,0.00000e+00,9.99999e-01,0.00000e+00,9.59475e-01,9.99999e-01
1.455693646e+00,7.15444e-226,9.99999e-01,7.45052e-226,9.60260e-01,9.99999e-01
1.462972114e+00,8.36099e-110,9.99999e-01,8.70003e-110,9.61029e-01,9.99999e-01
1.470286975e+00,1.66244e-46,9.99999e-01,1.72850e-46,9.61784e-01,9.99999e-01
