#,Wave/freq,Total,O2,CO2,Rayleigh,CIA
4.000000000e-01,4.01850e-16,9.99999e-01,9.99999e-01,4.01850e-16,9.99999e-01
4.020000000e-01,8.10005e-16,9.99999e-01,9.99999e-01,8.10005e-16,9.99999e-01
4.040100000e-01,1.60910e-15,9.99999e-01,9.99999e-01,1.60910e-15,9.99999e-01
4.060300500e-01,3.15347e-15,9.99999e-01,9.99999e-01,3.15347e-15,9.99999e-01
4.080602003e-01,6.09851e-15,9.99999e-01,9.99999e-01,6.09851e-15,9.99999e-01
4.101005013e-01,1.16413e-14,9.99999e-01,9.99999e-01,1.16413e-14,9.99999e-01
4.121510038e-01,2.19398e-14,9.99999e-01,9.99999e-01,2.19398e-14,9.99999e-01
4.142117588e-01,4.08344e-14,9.99999e-01,9.99999e-01,4.08344e-14,9.99999e-01
4.162828176e-01,7.50744e-14,9.99999e-01,9.99999e-01,7.50744e-14,9.99999e-01
4.183642317e-01,1.36375e-13,9.99999e-01,9.99999e-01,1.36375e-13,9.99999e-01
4.204560528e-01,2.44824e-13,9.99999e-01,9.99999e-01,2.44824e-13,9.99999e-01
4.225583331e-01,4.34466e-13,9.99999e-01,9.99999e-01,4.34466e-13,9.99999e-01
4.246711247e-01,7.62319e-13,9.99999e-01,9.99999e-01,7.62319e-13,9.99999e-01
4.267944804e-01,1.32280e-12,9.99999e-01,9.99999e-01,1.32280e-12,9.99999e-01
4.289284528e-01,2.27051e-12,9.99999e-01,9.99999e-01,2.27051e-12,9.99999e-01
4.310730950e-01,3.85585e-12,9.99999e-01,9.99999e-01,3.85585e-12,9.99999e-01
4.332284605e-01,6.47996e-12,9.99999e-01,9.99999e-01,6.47996e-12,9.99999e-01
4.353946028e-01,1.07788e-11,9.99999e-01,9.99999e-01,1.07788e-11,9.99999e-01
4.375715758e-01,1.77503e-11,9.99999e-01,9.99999e-01,1.77503e-11,9.99999e-01
4.397594337e-01,2.89441e-11,9.99999e-01,9.99999e-01,2.89441e-11,9.99999e-01
4.419582309e-01,4.67434e-11,9.99999e-01,9.99999e-01,4.67434e-11,9.99999e-01
4.441680220e-01,7.47771e-11,9.99999e-01,9.99999e-01,7.47771e-11,9.99999e-01
4.463888621e-01,1.18519e-10,9.99999e-01,9.99999e-01,1.18519e-10,9.99999e-01
4.486208064e-01,1.86146e-10,9.99999e-01,9.99999e-01,1.86146e-10,9.99999e-01
4.508639105e-01,2.89767e-10,9.99999e-01,9.99999e-01,2.89767e-10,9.99999e-01
4.531182300e-01,4.47144e-10,9.99999e-01,9.99999e-01,4.47144e-10,9.99999e-01
4.553838212e-01,6.84107e-10,9.99999e-01,9.99999e-01,6.84107e-10,9.99999e-01
4.576607403e-01,1.03789e-09,9.99999e-01,9.99999e-01,1.03789e-09,9.99999e-01
4.599490440e-01,1.56173e-09,9.99999e-01,9.99999e-01,1.56173e-09,9.99999e-01
4.622487892e-01,2.33106e-09,9.99999e-01,9.99999e-01,2.33106e-09,9.99999e-01
4.645600332e-01,3.45196e-09,9.99999e-01,9.99999e-01,3.45196e-09,9.99999e-01
4.668828333e-01,5.07237e-09,9.99999e-01,9.99999e-01,5.07237e-09,9.99999e-01
4.692172475e-01,7.39696e-09,9.99999e-01,9.99999e-01,7.39696e-09,9.99999e-01
4.715633337e-01,1.07068e-08,9.99999e-01,9.99999e-01,1.07068e-08,9.99999e-01
4.739211504e-01,1.53849e-08,9.99999e-01,9.99999e-01,1.53849e-08,9.99999e-01
4.762907561e-01,2.19492e-08,9.99999e-01,9.99999e-01,2.19492e-08,9.99999e-01
4.786722099e-01,3.10952e-08,9.99999e-01,9.99999e-01,3.10952e-08,9.99999e-01
4.810655710e-01,4.37504e-08,9.99999e-01,9.99999e-01,4.37504e-08,9.99999e-01
4.834708988e-01,6.11421e-08,9.99999e-01,9.99999e-01,6.11421e-08,9.99999e-01
4.858882533e-01,8.48844e-08,9.99999e-01,9.99999e-01,8.48844e-08,9.99999e-01
4.883176946e-01,1.17085e-07,9.99999e-01,9.99999e-01,1.17085e-07,9.99999e-01
4.907592831e-01,1.60478e-07,9.99999e-01,9.99999e-01,1.60478e-07,9.99999e-01
4.932130795e-01,2.18588e-07,9.99999e-01,9.99999e-01,2.18588e-07,9.99999e-01
4.956791449e-01,2.95927e-07,9.99999e-01,9.99999e-01,2.95927e-07,9.99999e-01
4.981575406e-01,3.98240e-07,9.99999e-01,9.99999e-01,3.98240e-07,9.99999e-01
5.006483283e-01,5.32792e-07,9.99999e-01,9.99999e-01,5.32792e-07,9.99999e-01
5.031515699e-01,7.08718e-07,9.99999e-01,9.99999e-01,7.08718e-07,9.99999e-01
5.056673278e-01,9.37437e-07,9.99999e-01,9.99999e-01,9.37437e-07,9.99999e-01
5.081956644e-01,1.23314e-06,9.99999e-01,9.99999e-01,1.23314e-06,9.99999e-01
5.107366428e-01,1.61335e-06,9.99999e-01,9.99999e-01,1.61335e-06,9.99999e-01
5.132903260e-01,2.09962e-06,9.99999e-01,9.99999e-01,2.09962e-06,9.99999e-01
5.158567776e-01,2.71826e-06,9.99999e-01,9.99999e-01,2.71826e-06,9.99999e-01
5.184360615e-01,3.50129e-06,9.99999e-01,9.99999e-01,3.50129e-06,9.99999e-01
5.210282418e-01,4.48738e-06,9.99999e-01,9.99999e-01,4.48738e-06,9.99999e-01
5.236333830e-01,5.72308e-06,9.99999e-01,9.99999e-01,5.72308e-06,9.99999e-01
5.262515499e-01,7.26406e-06,9.99999e-01,9.99999e-01,7.26406e-06,9.99999e-01
5.288828077e-01,9.17664e-06,9.99999e-01,9.99999e-01,9.17664e-06,9.99999e-01
5.315272217e-01,1.15394e-05,9.99999e-01,9.99999e-01,1.15394e-05,9.99999e-01
5.341848578e-01,1.44450e-05,9.99999e-01,9.99999e-01,1.44450e-05,9.99999e-01
5.368557821e-01,1.80022e-05,9.99999e-01,9.99999e-01,1.80022e-05,9.99999e-01
5.395400610e-01,2.23380e-05,9.99999e-01,9.99999e-01,2.23380e-05,9.99999e-01
5.422377613e-01,2.76002e-05,9.99999e-01,9.99999e-01,2.76002e-05,9.99999e-01
5.449489501e-01,3.39598e-05,9.99999e-01,9.99999e-01,3.39598e-05,9.99999e-01
5.476736949e-01,4.16140e-05,9.99999e-01,9.99999e-01,4.16140e-05,9.99999e-01
5.504120634e-01,5.07891e-05,9.99999e-01,9.99999e-01,5.07891e-05,9.99999e-01
5.531641237e-01,6.17436e-05,9.99999e-01,9.99999e-01,6.17436e-05,9.99999e-01
5.559299443e-01,7.47719e-05,9.99999e-01,9.99999e-01,7.47719e-05,9.99999e-01
5.587095940e-01,9.02074e-05,9.99999e-01,9.99999e-01,9.02074e-05,9.99999e-01
5.615031420e-01,1.08427e-04,9.99999e-01,9.99999e-01,1.08427e-04,9.99999e-01
5.643106577e-01,1.29853e-04,9.99999e-01,9.99999e-01,1.29853e-04,9.99999e-01
5.671322110e-01,1.54961e-04,9.99999e-01,9.99999e-01,1.54961e-04,9.99999e-01
5.699678720e-01,1.84278e-04,9.99999e-01,9.99999e-01,1.84278e-04,9.99999e-01
5.728177114e-01,2.18394e-04,9.99999e-01,9.99999e-01,2.18394e-04,9.99999e-01
5.756818000e-01,2.57958e-04,9.99999e-01,9.99999e-01,2.57958e-04,9.99999e-01
5.785602090e-01,3.03689e-04,9.99999e-01,9.99999e-01,3.03689e-04,9.99999e-01
5.814530100e-01,3.56378e-04,9.99999e-01,9.99999e-01,3.56378e-04,9.99999e-01
5.843602750e-01,4.16887e-04,9.99999e-01,9.99999e-01,4.16887e-04,9.99999e-01
5.872820764e-01,4.86163e-04,9.99999e-01,9.99999e-01,4.86163e-04,9.99999e-01
5.902184868e-01,5.65231e-04,9.99999e-01,9.99999e-01,5.65231e-04,9.99999e-01
5.931695792e-01,6.55206e-04,9.99999e-01,9.99999e-01,6.55206e-04,9.99999e-01
5.961354271e-01,7.57290e-04,9.99999e-01,9.99999e-01,7.57290e-04,9.99999e-01
5.991161043e-01,8.72779e-04,9.99999e-01,9.99999e-01,8.72779e-04,9.99999e-01
6.021116848e-01,1.00306e-03,9.99999e-01,9.99999e-01,1.00306e-03,9.99999e-01
6.051222432e-01,1.14964e-03,9.99999e-01,9.99999e-01,1.14964e-03,9.99999e-01
6.081478544e-01,1.31408e-03,9.99999e-01,9.99999e-01,1.31408e-03,9.99999e-01
6.111885937e-01,1.49808e-03,9.99999e-01,9.99999e-01,1.49808e-03,9.99999e-01
6.142445367e-01,1.70344e-03,9.99999e-01,9.99999e-01,1.70344e-03,9.99999e-01
6.173157594e-01,1.93203e-03,9.99999e-01,9.99999e-01,1.93203e-03,9.99999e-01
6.204023382e-01,2.18586e-03,9.99999e-01,9.99999e-01,2.18586e-03,9.99999e-01
6.235043498e-01,2.46701e-03,9.99999e-01,9.99999e-01,2.46701e-03,9.99999e-01
6.266218716e-01,2.77768e-03,9.99999e-01,9.99999e-01,2.77768e-03,9.99999e-01
6.297549810e-01,3.12015e-03,9.99999e-01,9.99999e-01,3.12015e-03,9.99999e-01
6.329037559e-01,3.49681e-03,9.99999e-01,9.99999e-01,3.49681e-03,9.99999e-01
6.360682746e-01,3.91012e-03,9.99999e-01,9.99999e-01,3.91012e-03,9.99999e-01
6.392486160e-01,4.36265e-03,9.99999e-01,9.99999e-01,4.36265e-03,9.99999e-01
6.424448591e-01,4.85704e-03,9.99999e-01,9.99999e-01,4.85704e-03,9.99999e-01
6.456570834e-01,5.39599e-03,9.99999e-01,9.99999e-01,5.39599e-03,9.99999e-01
6.488853688e-01,5.98231e-03,9.99999e-01,9.99999e-01,5.98231e-03,9.99999e-01
6.521297956e-01,6.61883e-03,9.99999e-01,9.99999e-01,6.61883e-03,9.99999e-01
6.553904446e-01,7.30846e-03,9.99999e-01,9.99999e-01,7.30846e-03,9.99999e-01
6.586673968e-01,8.05417e-03,9.99999e-01,9.99999e-01,8.05417e-03,9.99999e-01
6.619607338e-01,8.85894e-03,9.99999e-01,9.99999e-01,8.85894e-03,9.99999e-01
6.652705375e-01,9.72582e-03,9.99999e-01,9.99999e-01,9.72582e-03,9.99999e-01
6.685968902e-01,1.06579e-02,9.99999e-01,9.99999e-01,1.06579e-02,9.99999e-01
6.719398746e-01,1.16581e-02,9.99999e-01,9.99999e-01,1.16581e-02,9.99999e-01
6.752995740e-01,1.27297e-02,9.99999e-01,9.99999e-01,1.27297e-02,9.99999e-01
6.786760719e-01,1.38756e-02,9.99999e-01,9.99999e-01,1.38756e-02,9.99999e-01
6.820694522e-01,1.50989e-02,9.99999e-01,9.99999e-01,1.50989e-02,9.99999e-01
6.854797995e-01,1.64028e-02,9.99999e-01,9.99999e-01,1.64028e-02,9.99999e-01
6.889071985e-01,1.77900e-02,9.99999e-01,9.99999e-01,1.77900e-02,9.99999e-01
6.923517345e-01,1.92637e-02,9.99999e-01,9.99999e-01,1.92637e-02,9.99999e-01
6.958134932e-01,2.08267e-02,9.99999e-01,9.99999e-01,2.08267e-02,9.99999e-01
6.992925606e-01,2.24819e-02,9.99999e-01,9.99999e-01,2.24819e-02,9.99999e-01
7.027890234e-01,2.42319e-02,9.99999e-01,9.99999e-01,2.42319e-02,9.99999e-01
7.063029686e-01,2.60795e-02,9.99999e-01,9.99999e-01,2.60795e-02,9.99999e-01
7.098344834e-01,2.80273e-02,9.99999e-01,9.99999e-01,2.80273e-02,9.99999e-01
7.133836558e-01,3.00778e-02,9.99999e-01,9.99999e-01,3.00778e-02,9.99999e-01
7.169505741e-01,3.22333e-02,9.99999e-01,9.99999e-01,3.22333e-02,9.99999e-01
7.205353270e-01,3.44960e-02,9.99999e-01,9.99999e-01,3.44960e-02,9.99999e-01
7.241380036e-01,3.68682e-02,9.99999e-01,9.99999e-01,3.68682e-02,9.99999e-01
7.277586936e-01,3.93517e-02,9.99999e-01,9.99999e-01,3.93517e-02,9.99999e-01
7.313974871e-01,4.19485e-02,9.99999e-01,9.99999e-01,4.19485e-02,9.99999e-01
7.350544745e-01,4.46603e-02,9.99999e-01,9.99999e-01,4.46603e-02,9.99999e-01
7.387297469e-01,4.74886e-02,9.99999e-01,9.99999e-01,4.74886e-02,9.99999e-01
7.424233956e-01,5.04347e-02,9.99999e-01,9.99999e-01,5.04347e-02,9.99999e-01
7.461355126e-01,5.35000e-02,9.99999e-01,9.99999e-01,5.35000e-02,9.99999e-01
7.498661902e-01,5.66855e-02,9.99999e-01,9.99999e-01,5.66855e-02,9.99999e-01
7.536155211e-01,5.99921e-02,9.99999e-01,9.99999e-01,5.99921e-02,9.99999e-01
7.573835987e-01,6.34205e-02,9.99999e-01,9.99999e-01,6.34205e-02,9.99999e-01
7.611705167e-01,6.69713e-02,9.99999e-01,9.99999e-01,6.69713e-02,9.99999e-01
7.649763693e-01,7.06448e-02,9.99999e-01,9.99999e-01,7.06448e-02,9.99999e-01
7.688012511e-01,7.44413e-02,9.99999e-01,9.99999e-01,7.44413e-02,9.99999e-01
7.726452574e-01,7.83607e-02,9.99999e-01,9.99999e-01,7.83607e-02,9.99999e-01
7.765084837e-01,8.24029e-02,9.99999e-01,9.99999e-01,8.24029e-02,9.99999e-01
7.803910261e-01,7.86449e-02,9.99999e-01,9.08479e-01,8.65676e-02,9.99999e-01
7.842929812e-01,5.58733e-02,9.99999e-01,6.14976e-01,9.08542e-02,9.99999e-01
7.882144461e-01,5.71359e-02,9.99999e-01,5.99775e-01,9.52622e-02,9.99999e-01
7.921555184e-01,7.27283e-02,9.99999e-01,7.28809e-01,9.97905e-02,9.99999e-01
7.961162960e-01,8.42298e-02,9.99999e-01,8.06503e-01,1.04438e-01,9.99999e-01
8.000968774e-01,9.71733e-02,9.99999e-01,8.89830e-01,1.09204e-01,9.99999e-01
8.040973618e-01,1.07370e-01,9.99999e-01,9.41121e-01,1.14087e-01,9.99999e-01
8.081178486e-01,1.15815e-01,9.99999e-01,9.72537e-01,1.19085e-01,9.99999e-01
8.121584379e-01,1.23131e-01,9.99999e-01,9.91412e-01,1.24197e-01,9.99999e-01
8.162192301e-01,1.29175e-01,9.99999e-01,9.98097e-01,1.29421e-01,9.99999e-01
8.203003262e-01,1.34751e-01,9.99999e-01,9.99970e-01,1.34755e-01,9.99999e-01
8.244018279e-01,1.40197e-01,9.99999e-01,9.99999e-01,1.40197e-01,9.99999e-01
8.285238370e-01,1.45745e-01,9.99999e-01,9.99999e-01,1.45745e-01,9.99999e-01
8.326664562e-01,1.51396e-01,9.99999e-01,9.99999e-01,1.51396e-01,9.99999e-01
8.368297885e-01,1.57148e-01,9.99999e-01,9.99999e-01,1.57148e-01,9.99999e-01
8.410139374e-01,1.62999e-01,9.99999e-01,9.99999e-01,1.62999e-01,9.99999e-01
8.452190071e-01,1.68945e-01,9.99999e-01,9.99999e-01,1.68945e-01,9.99999e-01
8.494451021e-01,1.74985e-01,9.99999e-01,9.99999e-01,1.74985e-01,9.99999e-01
8.536923276e-01,1.81114e-01,9.99999e-01,9.99999e-01,1.81114e-01,9.99999e-01
8.579607893e-01,1.87331e-01,9.99999e-01,9.99999e-01,1.87331e-01,9.99999e-01
8.622505932e-01,1.93632e-01,9.99999e-01,9.99999e-01,1.93632e-01,9.99999e-01
8.665618462e-01,1.73078e-01,9.99999e-01,8.65327e-01,2.00014e-01,9.99999e-01
8.708946554e-01,6.29195e-02,9.99999e-01,3.04732e-01,2.06475e-01,9.99999e-01
8.752491287e-01,7.86397e-02,9.99999e-01,3.69183e-01,2.13010e-01,9.99999e-01
8.796253743e-01,1.25123e-01,9.99999e-01,5.69734e-01,2.19617e-01,9.99999e-01
8.840235012e-01,1.68009e-01,9.99999e-01,7.42441e-01,2.26292e-01,9.99999e-01
8.884436187e-01,2.07002e-01,9.99999e-01,8.88296e-01,2.33033e-01,9.99999e-01
8.928858368e-01,2.28575e-01,9.99999e-01,9.53052e-01,2.39835e-01,9.99999e-01
8.973502660e-01,2.43824e-01,9.99999e-01,9.88360e-01,2.46695e-01,9.99999e-01
9.018370173e-01,2.53283e-01,9.99999e-01,9.98709e-01,2.53610e-01,9.99999e-01
9.063462024e-01,2.52348e-01,9.99999e-01,9.68419e-01,2.60577e-01,9.99999e-01
9.108779334e-01,2.48096e-01,9.99999e-01,9.27145e-01,2.67591e-01,9.99999e-01
9.154323231e-01,2.69798e-01,9.99999e-01,9.82331e-01,2.74651e-01,9.99999e-01
9.200094847e-01,2.25993e-01,9.99999e-01,8.02100e-01,2.81752e-01,9.99999e-01
9.246095321e-01,2.00046e-01,9.99999e-01,6.92462e-01,2.88890e-01,9.99999e-01
9.292325798e-01,2.23455e-01,9.99999e-01,7.54752e-01,2.96063e-01,9.99999e-01
9.338787427e-01,2.30022e-01,9.99999e-01,7.58476e-01,3.03268e-01,9.99999e-01
9.385481364e-01,2.52941e-01,9.99999e-01,8.14625e-01,3.10500e-01,9.99999e-01
9.432408771e-01,2.80013e-01,9.99999e-01,8.81218e-01,3.17757e-01,9.99999e-01
9.479570815e-01,3.04612e-01,9.99999e-01,9.37166e-01,3.25034e-01,9.99999e-01
9.526968669e-01,3.22098e-01,9.99999e-01,9.69208e-01,3.32330e-01,9.99999e-01
9.574603512e-01,3.35124e-01,9.99999e-01,9.86698e-01,3.39641e-01,9.99999e-01
9.622476530e-01,3.45517e-01,9.99999e-01,9.95829e-01,3.46963e-01,9.99999e-01
9.670588912e-01,3.53851e-01,9.99999e-01,9.98747e-01,3.54294e-01,9.99999e-01
9.718941857e-01,3.61599e-01,9.99999e-01,9.99910e-01,3.61631e-01,9.99999e-01
9.767536566e-01,3.68970e-01,9.99999e-01,9.99999e-01,3.68970e-01,9.99999e-01
9.816374249e-01,3.76308e-01,9.99999e-01,9.99999e-01,3.76308e-01,9.99999e-01
9.865456120e-01,3.83643e-01,9.99999e-01,9.99999e-01,3.83643e-01,9.99999e-01
9.914783401e-01,3.90972e-01,9.99999e-01,9.99999e-01,3.90972e-01,9.99999e-01
9.964357318e-01,3.98293e-01,9.99999e-01,9.99999e-01,3.98293e-01,9.99999e-01
1.001417910e+00,4.05601e-01,9.99999e-01,9.99999e-01,4.05601e-01,9.99999e-01
1.006425000e+00,4.12896e-01,9.99999e-01,9.99999e-01,4.12896e-01,9.99999e-01
1.011457125e+00,4.20173e-01,9.99999e-01,9.99999e-01,4.20173e-01,9.99999e-01
1.016514411e+00,4.27432e-01,9.99999e-01,9.99999e-01,4.27432e-01,9.99999e-01
1.021596983e+00,4.34596e-01,9.99999e-01,9.99832e-01,4.34668e-01,9.99999e-01
1.026704968e+00,4.36314e-01,9.99999e-01,9.87400e-01,4.41881e-01,9.99999e-01
1.031838492e+00,4.04728e-01,9.99999e-01,9.01263e-01,4.49067e-01,9.99999e-01
1.036997685e+00,2.11912e-02,9.99999e-01,4.64490e-02,4.56225e-01,9.99999e-01
1.042182673e+00,1.08092e-03,9.99999e-01,2.33282e-03,4.63352e-01,9.99999e-01
1.047393587e+00,2.97930e-03,9.99999e-01,6.33291e-03,4.70446e-01,9.99999e-01
1.052630555e+00,1.81288e-07,9.99999e-01,3.79655e-07,4.77506e-01,9.99999e-01
1.057893707e+00,6.78991e-07,9.99999e-01,1.40134e-06,4.84529e-01,9.99999e-01
1.063183176e+00,2.36638e-05,9.99999e-01,4.81447e-05,4.91514e-01,9.99999e-01
1.068499092e+00,2.71069e-04,9.99999e-01,5.43815e-04,4.98458e-01,9.99999e-01
1.073841587e+00,3.91266e-03,9.99999e-01,7.74232e-03,5.05360e-01,9.99999e-01
1.079210795e+00,2.43563e-02,9.99999e-01,4.75504e-02,5.12219e-01,9.99999e-01
1.084606849e+00,9.13635e-02,9.99999e-01,1.76026e-01,5.19033e-01,9.99999e-01
1.090029883e+00,2.11450e-01,9.99999e-01,4.02150e-01,5.25800e-01,9.99999e-01
1.095480033e+00,3.39152e-01,9.99999e-01,6.36883e-01,5.32518e-01,9.99999e-01
1.100957433e+00,4.33269e-01,9.99999e-01,8.03557e-01,5.39188e-01,9.99999e-01
1.106462220e+00,4.98500e-01,9.99999e-01,9.13326e-01,5.45807e-01,9.99999e-01
1.111994531e+00,5.34094e-01,9.99999e-01,9.66905e-01,5.52374e-01,9.99999e-01
1.117554504e+00,5.54309e-01,9.99999e-01,9.91805e-01,5.58888e-01,9.99999e-01
1.123142276e+00,5.65042e-01,9.99999e-01,9.99458e-01,5.65348e-01,9.99999e-01
1.128757988e+00,5.71752e-01,9.99999e-01,9.99999e-01,5.71752e-01,9.99999e-01
1.134401778e+00,5.78101e-01,9.99999e-01,9.99999e-01,5.78101e-01,9.99999e-01
1.140073787e+00,5.84393e-01,9.99999e-01,9.99999e-01,5.84393e-01,9.99999e-01
1.145774156e+00,5.90626e-01,9.99999e-01,9.99999e-01,5.90626e-01,9.99999e-01
1.151503026e+00,5.96802e-01,9.99999e-01,9.99999e-01,5.96802e-01,9.99999e-01
1.157260541e+00,6.02918e-01,9.99999e-01,9.99999e-01,6.02918e-01,9.99999e-01
1.163046844e+00,6.08973e-01,9.99999e-01,9.99999e-01,6.08973e-01,9.99999e-01
1.168862078e+00,6.14969e-01,9.99999e-01,9.99999e-01,6.14969e-01,9.99999e-01
1.174706389e+00,6.20903e-01,9.99999e-01,9.99999e-01,6.20903e-01,9.99999e-01
1.180579921e+00,6.26776e-01,9.99999e-01,9.99999e-01,6.26776e-01,9.99999e-01
1.186482820e+00,6.32573e-01,9.99999e-01,9.99978e-01,6.32586e-01,9.99999e-01
1.192415234e+00,6.11155e-01,9.99999e-01,9.57422e-01,6.38334e-01,9.99999e-01
1.198377311e+00,3.30018e-01,9.99999e-01,5.12435e-01,6.44019e-01,9.99999e-01
1.204369197e+00,5.56855e-33,9.99999e-01,8.57173e-33,6.49641e-01,9.99999e-01
1.210391043e+00,2.76213e-134,9.99999e-01,4.21570e-134,6.55200e-01,9.99999e-01
1.216442998e+00,3.60107e-116,9.99999e-01,5.45043e-116,6.60694e-01,9.99999e-01
1.222525213e+00,2.01202e-114,9.99999e-01,3.02048e-114,6.66126e-01,9.99999e-01
1.228637839e+00,3.21816e-88,9.99999e-01,4.79254e-88,6.71493e-01,9.99999e-01
1.234781029e+00,8.71286e-55,9.99999e-01,1.28737e-54,6.76796e-01,9.99999e-01
1.240954934e+00,2.76871e-36,9.99999e-01,4.05948e-36,6.82035e-01,9.99999e-01
1.247159708e+00,2.41148e-17,9.99999e-01,3.50909e-17,6.87210e-01,9.99999e-01
1.253395507e+00,8.22593e-12,9.99999e-01,1.18817e-11,6.92320e-01,9.99999e-01
1.259662485e+00,5.10164e-07,9.99999e-01,7.31556e-07,6.97367e-01,9.99999e-01
1.265960797e+00,3.05371e-04,9.99999e-01,4.34784e-04,7.02350e-01,9.99999e-01
1.272290601e+00,1.80547e-02,9.99999e-01,2.55273e-02,7.07269e-01,9.99999e-01
1.278652054e+00,1.71567e-02,9.99999e-01,2.40923e-02,7.12124e-01,9.99999e-01
1.285045314e+00,1.35794e-05,9.99999e-01,1.89414e-05,7.16915e-01,9.99999e-01
1.291470541e+00,1.02858e-15,9.99999e-01,1.42533e-15,7.21643e-01,9.99999e-01
1.297927893e+00,1.01507e-06,9.99999e-01,1.39757e-06,7.26309e-01,9.99999e-01
1.304417533e+00,8.46134e-04,9.99999e-01,1.15764e-03,7.30911e-01,9.99999e-01
1.310939621e+00,2.28366e-04,9.99999e-01,3.10511e-04,7.35450e-01,9.99999e-01
1.317494319e+00,1.65455e-45,9.99999e-01,2.23610e-45,7.39928e-01,9.99999e-01
1.324081790e+00,8.86438e-30,9.99999e-01,1.19090e-29,7.44343e-01,9.99999e-01
1.330702199e+00,1.00857e-17,9.99999e-01,1.34710e-17,7.48697e-01,9.99999e-01
1.337355710e+00,3.61579e-16,9.99999e-01,4.80191e-16,7.52989e-01,9.99999e-01
1.344042489e+00,2.03117e-16,9.99999e-01,2.68240e-16,7.57220e-01,9.99999e-01
1.350762701e+00,4.88141e-18,9.99999e-01,6.41117e-18,7.61391e-01,9.99999e-01
1.357516515e+00,6.18490e-11,9.99999e-01,8.07953e-11,7.65502e-01,9.99999e-01
1.364304097e+00,4.39251e-08,9.99999e-01,5.70787e-08,7.69554e-01,9.99999e-01
1.371125618e+00,1.60185e-04,9.99999e-01,2.07079e-04,7.73546e-01,9.99999e-01
1.377981246e+00,4.93986e-04,9.99999e-01,6.35368e-04,7.77479e-01,9.99999e-01
1.384871152e+00,1.05844e-02,9.99999e-01,1.35462e-02,7.81354e-01,9.99999e-01
1.391795508e+00,1.49890e-02,9.99999e-01,1.90901e-02,7.85171e-01,9.99999e-01
1.398754485e+00,6.43151e-02,9.99999e-01,8.15217e-02,7.88931e-01,9.99999e-01
1.405748258e+00,1.28098e-01,9.99999e-01,1.61611e-01,7.92634e-01,9.99999e-01
1.412776999e+00,2.48943e-01,9.99999e-01,3.12632e-01,7.96281e-01,9.99999e-01
1.419840884e+00,2.39455e-01,9.99999e-01,2.99367e-01,7.99872e-01,9.99999e-01
1.426940089e+00,8.10181e-03,9.99999e-01,1.00843e-02,8.03408e-01,9.99999e-01
1.434074789e+00,0.00000e+00,9.99999e-01,0.00000e+00,8.06889e-01,9.99999e-01
1.441245163e+00,0.00000e+00,9.99999e-01,0.00000e+00,8.10316e-01,9.99999e-01
1.448451389e+00,0.00000e+00,9.99999e-01,0.00000e+00,8.13689e-01,9.99999e-01
1.455693646e+00,0.00000e+00,9.99999e-01,0.00000e+00,8.17010e-01,9.99999e-01
1.462972114e+00,0.00000e+00,9.99999e-01,0.00000e+00,8.20278e-01,9.99999e-01
1.470286975e+00,9.40916e-223,9.99999e-01,1.14259e-222,8.23494e-01,9.99999e-01
