#,Wave/freq,Total,O2,CO2,Rayleigh,CIA
4.000000000e-01,5.00487e-03,9.99999e-01,9.99999e-01,5.00487e-03,9.99999e-01
4.020000000e-01,5.55753e-03,9.99999e-01,9.99999e-01,5.55753e-03,9.99999e-01
4.040100000e-01,6.15781e-03,9.99999e-01,9.99999e-01,6.15781e-03,9.99999e-01
4.060300500e-01,6.80911e-03,9.99999e-01,9.99999e-01,6.80911e-03,9.99999e-01
4.080602003e-01,7.51436e-03,9.99999e-01,9.99999e-01,7.51436e-03,9.99999e-01
4.101005013e-01,8.27654e-03,9.99999e-01,9.99999e-01,8.27654e-03,9.99999e-01
4.121510038e-01,9.09864e-03,9.99999e-01,9.99999e-01,9.09864e-03,9.99999e-01
4.142117588e-01,9.98370e-03,9.99999e-01,9.99999e-01,9.98370e-03,9.99999e-01
4.162828176e-01,1.09348e-02,9.99999e-01,9.99999e-01,1.09348e-02,9.99999e-01
4.183642317e-01,1.19550e-02,9.99999e-01,9.99999e-01,1.19550e-02,9.99999e-01
4.204560528e-01,1.30473e-02,9.99999e-01,9.99999e-01,1.30473e-02,9.99999e-01
4.225583331e-01,1.42149e-02,9.99999e-01,9.99999e-01,1.42149e-02,9.99999e-01
4.246711247e-01,1.54608e-02,9.99999e-01,9.99999e-01,1.54608e-02,9.99999e-01
4.267944804e-01,1.67880e-02,9.99999e-01,9.99999e-01,1.67880e-02,9.99999e-01
4.289284528e-01,1.81996e-02,9.99999e-01,9.99999e-01,1.81996e-02,9.99999e-01
4.310730950e-01,1.96983e-02,9.99999e-01,9.99999e-01,1.96983e-02,9.99999e-01
4.332284605e-01,2.12872e-02,9.99999e-01,9.99999e-01,2.12872e-02,9.99999e-01
4.353946028e-01,2.29690e-02,9.99999e-01,9.99999e-01,2.29690e-02,9.99999e-01
4.375715758e-01,2.47465e-02,9.99999e-01,9.99999e-01,2.47465e-02,9.99999e-01
4.397594337e-01,2.66223e-02,9.99999e-01,9.99999e-01,2.66223e-02,9.99999e-01
4.419582309e-01,2.85990e-02,9.99999e-01,9.99999e-01,2.85990e-02,9.99999e-01
4.441680220e-01,3.06790e-02,9.99999e-01,9.99999e-01,3.06790e-02,9.99999e-01
4.463888621e-01,3.28647e-02,9.99999e-01,9.99999e-01,3.28647e-02,9.99999e-01
4.486208064e-01,3.51584e-02,9.99999e-01,9.99999e-01,3.51584e-02,9.99999e-01
4.508639105e-01,3.75619e-02,9.99999e-01,9.99999e-01,3.75619e-02,9.99999e-01
4.531182300e-01,4.00775e-02,9.99999e-01,9.99999e-01,4.00775e-02,9.99999e-01
4.553838212e-01,4.27067e-02,9.99999e-01,9.99999e-01,4.27067e-02,9.99999e-01
4.576607403e-01,4.54514e-02,9.99999e-01,9.99999e-01,4.54514e-02,9.99999e-01
4.599490440e-01,4.83130e-02,9.99999e-01,9.99999e-01,4.83130e-02,9.99999e-01
4.622487892e-01,5.12929e-02,9.99999e-01,9.99999e-01,5.12929e-02,9.99999e-01
4.645600332e-01,5.43922e-02,9.99999e-01,9.99999e-01,5.43922e-02,9.99999e-01
4.668828333e-01,5.76120e-02,9.99999e-01,9.99999e-01,5.76120e-02,9.99999e-01
4.692172475e-01,6.09531e-02,9.99999e-01,9.99999e-01,6.09531e-02,9.99999e-01
4.715633337e-01,6.44162e-02,9.99999e-01,9.99999e-01,6.44162e-02,9.99999e-01
4.739211504e-01,6.80018e-02,9.99999e-01,9.99999e-01,6.80018e-02,9.99999e-01
4.762907561e-01,7.17103e-02,9.99999e-01,9.99999e-01,7.17103e-02,9.99999e-01
4.786722099e-01,7.55416e-02,9.99999e-01,9.99999e-01,7.55416e-02,9.99999e-01
4.810655710e-01,7.94959e-02,9.99999e-01,9.99999e-01,7.94959e-02,9.99999e-01
4.834708988e-01,8.35730e-02,9.99999e-01,9.99999e-01,8.35730e-02,9.99999e-01
4.858882533e-01,8.77723e-02,9.99999e-01,9.99999e-01,8.77723e-02,9.99999e-01
4.883176946e-01,9.20935e-02,9.99999e-01,9.99999e-01,9.20935e-02,9.99999e-01
4.907592831e-01,9.65357e-02,9.99999e-01,9.99999e-01,9.65357e-02,9.99999e-01
4.932130795e-01,1.01098e-01,9.99999e-01,9.99999e-01,1.01098e-01,9.99999e-01
4.956791449e-01,1.05780e-01,9.99999e-01,9.99999e-01,1.05780e-01,9.99999e-01
4.981575406e-01,1.10579e-01,9.99999e-01,9.99999e-01,1.10579e-01,9.99999e-01
5.006483283e-01,1.15495e-01,9.99999e-01,9.99999e-01,1.15495e-01,9.99999e-01
5.031515699e-01,1.20525e-01,9.99999e-01,9.99999e-01,1.20525e-01,9.99999e-01
5.056673278e-01,1.25669e-01,9.99999e-01,9.99999e-01,1.25669e-01,9.99999e-01
5.081956644e-01,1.30925e-01,9.99999e-01,9.99999e-01,1.30925e-01,9.99999e-01
5.107366428e-01,1.36290e-01,9.99999e-01,9.99999e-01,1.36290e-01,9.99999e-01
5.132903260e-01,1.41762e-01,9.99999e-01,9.99999e-01,1.41762e-01,9.99999e-01
5.158567776e-01,1.47339e-01,9.99999e-01,9.99999e-01,1.47339e-01,9.99999e-01
5.184360615e-01,1.53019e-01,9.99999e-01,9.99999e-01,1.53019e-01,9.99999e-01
5.210282418e-01,1.58800e-01,9.99999e-01,9.99999e-01,1.58800e-01,9.99999e-01
5.236333830e-01,1.64678e-01,9.99999e-01,9.99999e-01,1.64678e-01,9.99999e-01
5.262515499e-01,1.70651e-01,9.99999e-01,9.99999e-01,1.70651e-01,9.99999e-01
5.288828077e-01,1.76716e-01,9.99999e-01,9.99999e-01,1.76716e-01,9.99999e-01
5.315272217e-01,1.82871e-01,9.99999e-01,9.99999e-01,1.82871e-01,9.99999e-01
5.341848578e-01,1.89112e-01,9.99999e-01,9.99999e-01,1.89112e-01,9.99999e-01
5.368557821e-01,1.95436e-01,9.99999e-01,9.99999e-01,1.95436e-01,9.99999e-01
5.395400610e-01,2.01841e-01,9.99999e-01,9.99999e-01,2.01841e-01,9.99999e-01
5.422377613e-01,2.08323e-01,9.99999e-01,9.99999e-01,2.08323e-01,9.99999e-01
5.449489501e-01,2.14879e-01,9.99999e-01,9.99999e-01,2.14879e-01,9.99999e-01
5.476736949e-01,2.21506e-01,9.99999e-01,9.99999e-01,2.21506e-01,9.99999e-01
5.504120634e-01,2.28200e-01,9.99999e-01,9.99999e-01,2.28200e-01,9.99999e-01
5.531641237e-01,2.34958e-01,9.99999e-01,9.99999e-01,2.34958e-01,9.99999e-01
5.559299443e-01,2.41777e-01,9.99999e-01,9.99999e-01,2.41777e-01,9.99999e-01
5.587095940e-01,2.48653e-01,9.99999e-01,9.99999e-01,2.48653e-01,9.99999e-01
5.615031420e-01,2.55583e-01,9.99999e-01,9.99999e-01,2.55583e-01,9.99999e-01
5.643106577e-01,2.62564e-01,9.99999e-01,9.99999e-01,2.62564e-01,9.99999e-01
5.671322110e-01,2.69591e-01,9.99999e-01,9.99999e-01,2.69591e-01,9.99999e-01
5.699678720e-01,2.76663e-01,9.99999e-01,9.99999e-01,2.76663e-01,9.99999e-01
5.728177114e-01,2.83775e-01,9.99999e-01,9.99999e-01,2.83775e-01,9.99999e-01
5.756818000e-01,2.90924e-01,9.99999e-01,9.99999e-01,2.90924e-01,9.99999e-01
5.785602090e-01,2.98106e-01,9.99999e-01,9.99999e-01,2.98106e-01,9.99999e-01
5.814530100e-01,3.05319e-01,9.99999e-01,9.99999e-01,3.05319e-01,9.99999e-01
5.843602750e-01,3.12558e-01,9.99999e-01,9.99999e-01,3.12558e-01,9.99999e-01
5.872820764e-01,3.19821e-01,9.99999e-01,9.99999e-01,3.19821e-01,9.99999e-01
5.902184868e-01,3.27104e-01,9.99999e-01,9.99999e-01,3.27104e-01,9.99999e-01
5.931695792e-01,3.34405e-01,9.99999e-01,9.99999e-01,3.34405e-01,9.99999e-01
5.961354271e-01,3.41719e-01,9.99999e-01,9.99999e-01,3.41719e-01,9.99999e-01
5.991161043e-01,3.49044e-01,9.99999e-01,9.99999e-01,3.49044e-01,9.99999e-01
6.021116848e-01,3.56377e-01,9.99999e-01,9.99999e-01,3.56377e-01,9.99999e-01
6.051222432e-01,3.63714e-01,9.99999e-01,9.99999e-01,3.63714e-01,9.99999e-01
6.081478544e-01,3.71054e-01,9.99999e-01,9.99999e-01,3.71054e-01,9.99999e-01
6.111885937e-01,3.78391e-01,9.99999e-01,9.99999e-01,3.78391e-01,9.99999e-01
6.142445367e-01,3.85725e-01,9.99999e-01,9.99999e-01,3.85725e-01,9.99999e-01
6.173157594e-01,3.93052e-01,9.99999e-01,9.99999e-01,3.93052e-01,9.99999e-01
6.204023382e-01,4.00369e-01,9.99999e-01,9.99999e-01,4.00369e-01,9.99999e-01
6.235043498e-01,4.07674e-01,9.99999e-01,9.99999e-01,4.07674e-01,9.99999e-01
6.266218716e-01,4.14964e-01,9.99999e-01,9.99999e-01,4.14964e-01,9.99999e-01
6.297549810e-01,4.22236e-01,9.99999e-01,9.99999e-01,4.22236e-01,9.99999e-01
6.329037559e-01,4.29489e-01,9.99999e-01,9.99999e-01,4.29489e-01,9.99999e-01
6.360682746e-01,4.36719e-01,9.99999e-01,9.99999e-01,4.36719e-01,9.99999e-01
6.392486160e-01,4.43924e-01,9.99999e-01,9.99999e-01,4.43924e-01,9.99999e-01
6.424448591e-01,4.51102e-01,9.99999e-01,9.99999e-01,4.51102e-01,9.99999e-01
6.456570834e-01,4.58252e-01,9.99999e-01,9.99999e-01,4.58252e-01,9.99999e-01
6.488853688e-01,4.65370e-01,9.99999e-01,9.99999e-01,4.65370e-01,9.99999e-01
6.521297956e-01,4.72454e-01,9.99999e-01,9.99999e-01,4.72454e-01,9.99999e-01
6.553904446e-01,4.79504e-01,9.99999e-01,9.99999e-01,4.79504e-01,9.99999e-01
6.586673968e-01,4.86516e-01,9.99999e-01,9.99999e-01,4.86516e-01,9.99999e-01
6.619607338e-01,4.93489e-01,9.99999e-01,9.99999e-01,4.93489e-01,9.99999e-01
6.652705375e-01,5.00422e-01,9.99999e-01,9.99999e-01,5.00422e-01,9.99999e-01
6.685968902e-01,5.07312e-01,9.99999e-01,9.99999e-01,5.07312e-01,9.99999e-01
6.719398746e-01,5.14158e-01,9.99999e-01,9.99999e-01,5.14158e-01,9.99999e-01
6.752995740e-01,5.20959e-01,9.99999e-01,9.99999e-01,5.20959e-01,9.99999e-01
6.786760719e-01,5.27712e-01,9.99999e-01,9.99999e-01,5.27712e-01,9.99999e-01
6.820694522e-01,5.34417e-01,9.99999e-01,9.99999e-01,5.34417e-01,9.99999e-01
6.854797995e-01,5.41073e-01,9.99999e-01,9.99999e-01,5.41073e-01,9.99999e-01
6.889071985e-01,5.47677e-01,9.99999e-01,9.99999e-01,5.47677e-01,9.99999e-01
6.923517345e-01,5.54229e-01,9.99999e-01,9.99999e-01,5.54229e-01,9.99999e-01
6.958134932e-01,5.60728e-01,9.99999e-01,9.99999e-01,5.60728e-01,9.99999e-01
6.992925606e-01,5.67172e-01,9.99999e-01,9.99999e-01,5.67172e-01,9.99999e-01
7.027890234e-01,5.73561e-01,9.99999e-01,9.99999e-01,5.73561e-01,9.99999e-01
7.063029686e-01,5.79893e-01,9.99999e-01,9.99999e-01,5.79893e-01,9.99999e-01
7.098344834e-01,5.86169e-01,9.99999e-01,9.99999e-01,5.86169e-01,9.99999e-01
7.133836558e-01,5.92386e-01,9.99999e-01,9.99999e-01,5.92386e-01,9.99999e-01
7.169505741e-01,5.98544e-01,9.99999e-01,9.99999e-01,5.98544e-01,9.99999e-01
7.205353270e-01,6.04643e-01,9.99999e-01,9.99999e-01,6.04643e-01,9.99999e-01
7.241380036e-01,6.10682e-01,9.99999e-01,9.99999e-01,6.10682e-01,9.99999e-01
7.277586936e-01,6.16660e-01,9.99999e-01,9.99999e-01,6.16660e-01,9.99999e-01
7.313974871e-01,6.22577e-01,9.99999e-01,9.99999e-01,6.22577e-01,9.99999e-01
7.350544745e-01,6.28432e-01,9.99999e-01,9.99999e-01,6.28432e-01,9.99999e-01
7.387297469e-01,6.34224e-01,9.99999e-01,9.99999e-01,6.34224e-01,9.99999e-01
7.424233956e-01,6.39955e-01,9.99999e-01,9.99999e-01,6.39955e-01,9.99999e-01
7.461355126e-01,6.45622e-01,9.99999e-01,9.99999e-01,6.45622e-01,9.99999e-01
7.498661902e-01,6.51226e-01,9.99999e-01,9.99999e-01,6.51226e-01,9.99999e-01
7.536155211e-01,6.56766e-01,9.99999e-01,9.99999e-01,6.56766e-01,9.99999e-01
7.573835987e-01,6.62243e-01,9.99999e-01,9.99999e-01,6.62243e-01,9.99999e-01
7.611705167e-01,6.67656e-01,9.99999e-01,9.99999e-01,6.67656e-01,9.99999e-01
7.649763693e-01,6.73005e-01,9.99999e-01,9.99999e-01,6.73005e-01,9.99999e-01
7.688012511e-01,6.78290e-01,9.99999e-01,9.99999e-01,6.78290e-01,9.99999e-01
7.726452574e-01,6.83511e-01,9.99999e-01,9.99999e-01,6.83511e-01,9.99999e-01
7.765084837e-01,6.88667e-01,9.99999e-01,9.99999e-01,6.88667e-01,9.99999e-01
7.803910261e-01,6.81152e-01,9.99999e-01,9.81827e-01,6.93760e-01,9.99999e-01
7.842929812e-01,6.46030e-01,9.99999e-01,9.24499e-01,6.98788e-01,9.99999e-01
7.882144461e-01,6.46827e-01,9.99999e-01,9.19110e-01,7.03753e-01,9.99999e-01
7.921555184e-01,6.75130e-01,9.99999e-01,9.52692e-01,7.08654e-01,9.99999e-01
7.961162960e-01,6.90778e-01,9.99999e-01,9.68165e-01,7.13491e-01,9.99999e-01
8.000968774e-01,7.05787e-01,9.99999e-01,9.82627e-01,7.18264e-01,9.99999e-01
8.040973618e-01,7.16445e-01,9.99999e-01,9.90968e-01,7.22974e-01,9.99999e-01
8.081178486e-01,7.24599e-01,9.99999e-01,9.95845e-01,7.27622e-01,9.99999e-01
8.121584379e-01,7.31266e-01,9.99999e-01,9.98715e-01,7.32206e-01,9.99999e-01
8.162192301e-01,7.36519e-01,9.99999e-01,9.99715e-01,7.36728e-01,9.99999e-01
8.203003262e-01,7.41184e-01,9.99999e-01,9.99995e-01,7.41188e-01,9.99999e-01
8.244018279e-01,7.45585e-01,9.99999e-01,9.99999e-01,7.45585e-01,9.99999e-01
8.285238370e-01,7.49922e-01,9.99999e-01,9.99999e-01,7.49922e-01,9.99999e-01
8.326664562e-01,7.54197e-01,9.99999e-01,9.99999e-01,7.54197e-01,9.99999e-01
8.368297885e-01,7.58411e-01,9.99999e-01,9.99999e-01,7.58411e-01,9.99999e-01
8.410139374e-01,7.62565e-01,9.99999e-01,9.99999e-01,7.62565e-01,9.99999e-01
8.452190071e-01,7.66659e-01,9.99999e-01,9.99999e-01,7.66659e-01,9.99999e-01
8.494451021e-01,7.70693e-01,9.99999e-01,9.99999e-01,7.70693e-01,9.99999e-01
8.536923276e-01,7.74668e-01,9.99999e-01,9.99999e-01,7.74668e-01,9.99999e-01
8.579607893e-01,7.78585e-01,9.99999e-01,9.99999e-01,7.78585e-01,9.99999e-01
8.622505932e-01,7.82444e-01,9.99999e-01,9.99999e-01,7.82444e-01,9.99999e-01
8.665618462e-01,7.48814e-01,9.99999e-01,9.52392e-01,7.86244e-01,9.99999e-01
8.708946554e-01,6.45305e-01,9.99999e-01,8.16853e-01,7.89988e-01,9.99999e-01
8.752491287e-01,6.75653e-01,9.99999e-01,8.51296e-01,7.93675e-01,9.99999e-01
8.796253743e-01,7.30475e-01,9.99999e-01,9.16178e-01,7.97306e-01,9.99999e-01
8.840235012e-01,7.65511e-01,9.99999e-01,9.55834e-01,8.00881e-01,9.99999e-01
8.884436187e-01,7.90235e-01,9.99999e-01,9.82387e-01,8.04402e-01,9.99999e-01
8.928858368e-01,8.02080e-01,9.99999e-01,9.92835e-01,8.07867e-01,9.99999e-01
8.973502660e-01,8.09865e-01,9.99999e-01,9.98255e-01,8.11279e-01,9.99999e-01
9.018370173e-01,8.14481e-01,9.99999e-01,9.99807e-01,8.14638e-01,9.99999e-01
9.063462024e-01,8.13896e-01,9.99999e-01,9.95050e-01,8.17943e-01,9.99999e-01
9.108779334e-01,8.11928e-01,9.99999e-01,9.88713e-01,8.21196e-01,9.99999e-01
9.154323231e-01,8.22206e-01,9.99999e-01,9.97340e-01,8.24398e-01,9.99999e-01
9.200094847e-01,7.95075e-01,9.99999e-01,9.60758e-01,8.27548e-01,9.99999e-01
9.246095321e-01,7.85685e-01,9.99999e-01,9.45869e-01,8.30648e-01,9.99999e-01
9.292325798e-01,7.97958e-01,9.99999e-01,9.57130e-01,8.33698e-01,9.99999e-01
9.338787427e-01,8.02104e-01,9.99999e-01,9.58652e-01,8.36699e-01,9.99999e-01
9.385481364e-01,8.14055e-01,9.99999e-01,9.69515e-01,8.39651e-01,9.99999e-01
9.432408771e-01,8.26759e-01,9.99999e-01,9.81253e-01,8.42554e-01,9.99999e-01
9.479570815e-01,8.37245e-01,9.99999e-01,9.90341e-01,8.45410e-01,9.99999e-01
9.526968669e-01,8.44259e-01,9.99999e-01,9.95331e-01,8.48219e-01,9.99999e-01
9.574603512e-01,8.49282e-01,9.99999e-01,9.98001e-01,8.50982e-01,9.99999e-01
9.622476530e-01,8.53166e-01,9.99999e-01,9.99376e-01,8.53698e-01,9.99999e-01
9.670588912e-01,8.56210e-01,9.99999e-01,9.99812e-01,8.56370e-01,9.99999e-01
9.718941857e-01,8.58985e-01,9.99999e-01,9.99986e-01,8.58997e-01,9.99999e-01
9.767536566e-01,8.61579e-01,9.99999e-01,9.99999e-01,8.61579e-01,9.99999e-01
9.816374249e-01,8.64119e-01,9.99999e-01,9.99999e-01,8.64119e-01,9.99999e-01
9.865456120e-01,8.66615e-01,9.99999e-01,9.99999e-01,8.66615e-01,9.99999e-01
9.914783401e-01,8.69069e-01,9.99999e-01,9.99999e-01,8.69069e-01,9.99999e-01
9.964357318e-01,8.71481e-01,9.99999e-01,9.99999e-01,8.71481e-01,9.99999e-01
1.001417910e+00,8.73852e-01,9.99999e-01,9.99999e-01,8.73852e-01,9.99999e-01
1.006425000e+00,8.76183e-01,9.99999e-01,9.99999e-01,8.76183e-01,9.99999e-01
1.011457125e+00,8.78474e-01,9.99999e-01,9.99999e-01,8.78474e-01,9.99999e-01
1.016514411e+00,8.80725e-01,9.99999e-01,9.99999e-01,8.80725e-01,9.99999e-01
1.021596983e+00,8.82914e-01,9.99999e-01,9.99973e-01,8.82937e-01,9.99999e-01
1.026704968e+00,8.83408e-01,9.99999e-01,9.98075e-01,8.85111e-01,9.99999e-01
1.031838492e+00,8.62552e-01,9.99999e-01,9.72165e-01,8.87247e-01,9.99999e-01
1.036997685e+00,2.44237e-01,9.99999e-01,2.74625e-01,8.89346e-01,9.99999e-01
1.042182673e+00,2.86961e-01,9.99999e-01,3.21919e-01,8.91409e-01,9.99999e-01
1.047393587e+00,2.70143e-01,9.99999e-01,3.02364e-01,8.93435e-01,9.99999e-01
1.052630555e+00,3.67941e-02,9.99999e-01,4.10911e-02,8.95426e-01,9.99999e-01
1.057893707e+00,7.07128e-02,9.99999e-01,7.87990e-02,8.97382e-01,9.99999e-01
1.063183176e+00,1.42385e-01,9.99999e-01,1.58328e-01,8.99303e-01,9.99999e-01
1.068499092e+00,2.62443e-01,9.99999e-01,2.91218e-01,9.01190e-01,9.99999e-01
1.073841587e+00,4.14840e-01,9.99999e-01,4.59379e-01,9.03044e-01,9.99999e-01
1.079210795e+00,5.53930e-01,9.99999e-01,6.12168e-01,9.04865e-01,9.99999e-01
1.084606849e+00,6.93547e-01,9.99999e-01,7.64952e-01,9.06653e-01,9.99999e-01
1.090029883e+00,7.90748e-01,9.99999e-01,8.70474e-01,9.08410e-01,9.99999e-01
1.095480033e+00,8.50063e-01,9.99999e-01,9.33996e-01,9.10135e-01,9.99999e-01
1.100957433e+00,8.82363e-01,9.99999e-01,9.67683e-01,9.11830e-01,9.99999e-01
1.106462220e+00,9.01174e-01,9.99999e-01,9.86513e-01,9.13494e-01,9.99999e-01
1.111994531e+00,9.10536e-01,9.99999e-01,9.94981e-01,9.15128e-01,9.99999e-01
1.117554504e+00,9.15608e-01,9.99999e-01,9.98772e-01,9.16732e-01,9.99999e-01
1.123142276e+00,9.18234e-01,9.99999e-01,9.99919e-01,9.18308e-01,9.99999e-01
1.128757988e+00,9.19855e-01,9.99999e-01,9.99999e-01,9.19855e-01,9.99999e-01
1.134401778e+00,9.21374e-01,9.99999e-01,9.99999e-01,9.21374e-01,9.99999e-01
1.140073787e+00,9.22866e-01,9.99999e-01,9.99999e-01,9.22866e-01,9.99999e-01
1.145774156e+00,9.24330e-01,9.99999e-01,9.99999e-01,9.24330e-01,9.99999e-01
1.151503026e+00,9.25768e-01,9.99999e-01,9.99999e-01,9.25768e-01,9.99999e-01
1.157260541e+00,9.27179e-01,9.99999e-01,9.99999e-01,9.27179e-01,9.99999e-01
1.163046844e+00,9.28565e-01,9.99999e-01,9.99999e-01,9.28565e-01,9.99999e-01
1.168862078e+00,9.29925e-01,9.99999e-01,9.99999e-01,9.29925e-01,9.99999e-01
1.174706389e+00,9.31261e-01,9.99999e-01,9.99999e-01,9.31261e-01,9.99999e-01
1.180579921e+00,9.32572e-01,9.99999e-01,9.99999e-01,9.32572e-01,9.99999e-01
1.186482820e+00,9.33855e-01,9.99999e-01,9.99996e-01,9.33858e-01,9.99999e-01
1.192415234e+00,9.28659e-01,9.99999e-01,9.93088e-01,9.35121e-01,9.99999e-01
1.198377311e+00,5.46009e-01,9.99999e-01,5.83118e-01,9.36361e-01,9.99999e-01
1.204369197e+00,7.66408e-07,9.99999e-01,8.17432e-07,9.37578e-01,9.99999e-01
1.210391043e+00,5.51750e-22,9.99999e-01,5.87735e-22,9.38773e-01,9.99999e-01
1.216442998e+00,2.83528e-19,9.99999e-01,3.01643e-19,9.39945e-01,9.99999e-01
1.222525213e+00,5.35068e-19,9.99999e-01,5.68558e-19,9.41095e-01,9.99999e-01
1.228637839e+00,1.25753e-14,9.99999e-01,1.33464e-14,9.42225e-01,9.99999e-01
1.234781029e+00,4.37096e-10,9.99999e-01,4.63353e-10,9.43333e-01,9.99999e-01
1.240954934e+00,7.48843e-07,9.99999e-01,7.92912e-07,9.44421e-01,9.99999e-01
1.247159708e+00,3.63806e-04,9.99999e-01,3.84781e-04,9.45488e-01,9.99999e-01
1.253395507e+00,1.21841e-02,9.99999e-01,1.28723e-02,9.46535e-01,9.99999e-01
1.259662485e+00,7.99494e-02,9.99999e-01,8.43736e-02,9.47563e-01,9.99999e-01
1.265960797e+00,2.26080e-01,9.99999e-01,2.38337e-01,9.48572e-01,9.99999e-01
1.272290601e+00,5.26983e-01,9.99999e-01,5.54974e-01,9.49561e-01,9.99999e-01
1.278652054e+00,4.65427e-01,9.99999e-01,4.89648e-01,9.50533e-01,9.99999e-01
1.285045314e+00,2.58721e-02,9.99999e-01,2.71912e-02,9.51486e-01,9.99999e-01
1.291470541e+00,2.86081e-03,9.99999e-01,3.00372e-03,9.52421e-01,9.99999e-01
1.297927893e+00,3.78348e-02,9.99999e-01,3.96866e-02,9.53338e-01,9.99999e-01
1.304417533e+00,3.28285e-01,9.99999e-01,3.44028e-01,9.54239e-01,9.99999e-01
1.310939621e+00,9.19079e-02,9.99999e-01,9.62263e-02,9.55122e-01,9.99999e-01
1.317494319e+00,5.33288e-08,9.99999e-01,5.57839e-08,9.55988e-01,9.99999e-01
1.324081790e+00,6.90206e-06,9.99999e-01,7.21339e-06,9.56839e-01,9.99999e-01
1.330702199e+00,1.74980e-03,9.99999e-01,1.82713e-03,9.57673e-01,9.99999e-01
1.337355710e+00,1.28153e-03,9.99999e-01,1.33703e-03,9.58491e-01,9.99999e-01
1.344042489e+00,4.29972e-04,9.99999e-01,4.48216e-04,9.59294e-01,9.99999e-01
1.350762701e+00,1.32821e-03,9.99999e-01,1.38344e-03,9.60082e-01,9.99999e-01
1.357516515e+00,1.26369e-02,9.99999e-01,1.31517e-02,9.60855e-01,9.99999e-01
1.364304097e+00,6.45819e-02,9.99999e-01,6.71599e-02,9.61613e-01,9.99999e-01
1.371125618e+00,2.30927e-01,9.99999e-01,2.39959e-01,9.62357e-01,9.99999e-01
1.377981246e+00,3.07756e-01,9.99999e-01,3.19552e-01,9.63086e-01,9.99999e-01
1.384871152e+00,4.96055e-01,9.99999e-01,5.14685e-01,9.63802e-01,9.99999e-01
1.391795508e+00,5.22360e-01,9.99999e-01,5.41583e-01,9.64504e-01,9.99999e-01
1.398754485e+00,6.62083e-01,9.99999e-01,6.85959e-01,9.65193e-01,9.99999e-01
1.405748258e+00,7.31253e-01,9.99999e-01,7.57093e-01,9.65869e-01,9.99999e-01
1.412776999e+00,8.11026e-01,9.99999e-01,8.39109e-01,9.66531e-01,9.99999e-01
1.419840884e+00,7.50232e-01,9.99999e-01,7.75689e-01,9.67182e-01,9.99999e-01
1.426940089e+00,9.86905e-02,9.99999e-01,1.01972e-01,9.67819e-01,9.99999e-01
1.434074789e+00,4.71587e-311,9.99999e-01,4.86952e-311,9.68445e-01,9.99999e-01
1.441245163e+00,0.00000e+00,9.99999e-01,0.00000e+00,9.69058e-01,9.99999e-01
1.448451389e+00,0.00000e+00,9.99999e-01,0.00000e+00,9.69660e-01,9.99999e-01
1.455693646e+00,8.38372e-169,9.99999e-01,8.64077e-169,9.70250e-01,9.99999e-01
1.462972114e+00,2.34617e-82,9.99999e-01,2.41666e-82,9.70829e-01,9.99999e-01
1.470286975e+00,3.28314e-35,9.99999e-01,3.37981e-35,9.71397e-01,9.99999e-01
