#,Wave/freq,Total,O2,CO2,Rayleigh,CIA
4.000000000e-01,6.15111e-06,9.99999e-01,9.99999e-01,6.15111e-06,9.99999e-01
4.020000000e-01,7.79816e-06,9.99999e-01,9.99999e-01,7.79816e-06,9.99999e-01
4.040100000e-01,9.83757e-06,9.99999e-01,9.99999e-01,9.83757e-06,9.99999e-01
4.060300500e-01,1.23535e-05,9.99999e-01,9.99999e-01,1.23535e-05,9.99999e-01
4.080602003e-01,1.54433e-05,9.99999e-01,9.99999e-01,1.54433e-05,9.99999e-01
4.101005013e-01,1.92209e-05,9.99999e-01,9.99999e-01,1.92209e-05,9.99999e-01
4.121510038e-01,2.38194e-05,9.99999e-01,9.99999e-01,2.38194e-05,9.99999e-01
4.142117588e-01,2.93933e-05,9.99999e-01,9.99999e-01,2.93933e-05,9.99999e-01
4.162828176e-01,3.61212e-05,9.99999e-01,9.99999e-01,3.61212e-05,9.99999e-01
4.183642317e-01,4.42086e-05,9.99999e-01,9.99999e-01,4.42086e-05,9.99999e-01
4.204560528e-01,5.38913e-05,9.99999e-01,9.99999e-01,5.38913e-05,9.99999e-01
4.225583331e-01,6.54383e-05,9.99999e-01,9.99999e-01,6.54383e-05,9.99999e-01
4.246711247e-01,7.91552e-05,9.99999e-01,9.99999e-01,7.91552e-05,9.99999e-01
4.267944804e-01,9.53882e-05,9.99999e-01,9.99999e-01,9.53882e-05,9.99999e-01
4.289284528e-01,1.14527e-04,9.99999e-01,9.99999e-01,1.14527e-04,9.99999e-01
4.310730950e-01,1.37011e-04,9.99999e-01,9.99999e-01,1.37011e-04,9.99999e-01
4.332284605e-01,1.63330e-04,9.99999e-01,9.99999e-01,1.63330e-04,9.99999e-01
4.353946028e-01,1.94029e-04,9.99999e-01,9.99999e-01,1.94029e-04,9.99999e-01
4.375715758e-01,2.29715e-04,9.99999e-01,9.99999e-01,2.29715e-04,9.99999e-01
4.397594337e-01,2.71060e-04,9.99999e-01,9.99999e-01,2.71060e-04,9.99999e-01
4.419582309e-01,3.18802e-04,9.99999e-01,9.99999e-01,3.18802e-04,9.99999e-01
4.441680220e-01,3.73754e-04,9.99999e-01,9.99999e-01,3.73754e-04,9.99999e-01
4.463888621e-01,4.36803e-04,9.99999e-01,9.99999e-01,4.36803e-04,9.99999e-01
4.486208064e-01,5.08918e-04,9.99999e-01,9.99999e-01,5.08918e-04,9.99999e-01
4.508639105e-01,5.91153e-04,9.99999e-01,9.99999e-01,5.91153e-04,9.99999e-01
4.531182300e-01,6.84647e-04,9.99999e-01,9.99999e-01,6.84647e-04,9.99999e-01
4.553838212e-01,7.90631e-04,9.99999e-01,9.99999e-01,7.90631e-04,9.99999e-01
4.576607403e-01,9.10430e-04,9.99999e-01,9.99999e-01,9.10430e-04,9.99999e-01
4.599490440e-01,1.04546e-03,9.99999e-01,9.99999e-01,1.04546e-03,9.99999e-01
4.622487892e-01,1.19725e-03,9.99999e-01,9.99999e-01,1.19725e-03,9.99999e-01
4.645600332e-01,1.36741e-03,9.99999e-01,9.99999e-01,1.36741e-03,9.99999e-01
4.668828333e-01,1.55766e-03,9.99999e-01,9.99999e-01,1.55766e-03,9.99999e-01
4.692172475e-01,1.76981e-03,9.99999e-01,9.99999e-01,1.76981e-03,9.99999e-01
4.715633337e-01,2.00580e-03,9.99999e-01,9.99999e-01,2.00580e-03,9.99999e-01
4.739211504e-01,2.26764e-03,9.99999e-01,9.99999e-01,2.26764e-03,9.99999e-01
4.762907561e-01,2.55745e-03,9.99999e-01,9.99999e-01,2.55745e-03,9.99999e-01
4.786722099e-01,2.87746e-03,9.99999e-01,9.99999e-01,2.87746e-03,9.99999e-01
4.810655710e-01,3.22999e-03,9.99999e-01,9.99999e-01,3.22999e-03,9.99999e-01
4.834708988e-01,3.61743e-03,9.99999e-01,9.99999e-01,3.61743e-03,9.99999e-01
4.858882533e-01,4.04229e-03,9.99999e-01,9.99999e-01,4.04229e-03,9.99999e-01
4.883176946e-01,4.50716e-03,9.99999e-01,9.99999e-01,4.50716e-03,9.99999e-01
4.907592831e-01,5.01469e-03,9.99999e-01,9.99999e-01,5.01469e-03,9.99999e-01
4.932130795e-01,5.56762e-03,9.99999e-01,9.99999e-01,5.56762e-03,9.99999e-01
4.956791449e-01,6.16877e-03,9.99999e-01,9.99999e-01,6.16877e-03,9.99999e-01
4.981575406e-01,6.82099e-03,9.99999e-01,9.99999e-01,6.82099e-03,9.99999e-01
5.006483283e-01,7.52722e-03,9.99999e-01,9.99999e-01,7.52722e-03,9.99999e-01
5.031515699e-01,8.29041e-03,9.99999e-01,9.99999e-01,8.29041e-03,9.99999e-01
5.056673278e-01,9.11359e-03,9.99999e-01,9.99999e-01,9.11359e-03,9.99999e-01
5.081956644e-01,9.99978e-03,9.99999e-01,9.99999e-01,9.99978e-03,9.99999e-01
5.107366428e-01,1.09521e-02,9.99999e-01,9.99999e-01,1.09521e-02,9.99999e-01
5.132903260e-01,1.19735e-02,9.99999e-01,9.99999e-01,1.19735e-02,9.99999e-01
5.158567776e-01,1.30671e-02,9.99999e-01,9.99999e-01,1.30671e-02,9.99999e-01
5.184360615e-01,1.42361e-02,9.99999e-01,9.99999e-01,1.42361e-02,9.99999e-01
5.210282418e-01,1.54834e-02,9.99999e-01,9.99999e-01,1.54834e-02,9.99999e-01
5.236333830e-01,1.68120e-02,9.99999e-01,9.99999e-01,1.68120e-02,9.99999e-01
5.262515499e-01,1.82250e-02,9.99999e-01,9.99999e-01,1.82250e-02,9.99999e-01
5.288828077e-01,1.97254e-02,9.99999e-01,9.99999e-01,1.97254e-02,9.99999e-01
5.315272217e-01,2.13158e-02,9.99999e-01,9.99999e-01,2.13158e-02,9.99999e-01
5.341848578e-01,2.29993e-02,9.99999e-01,9.99999e-01,2.29993e-02,9.99999e-01
5.368557821e-01,2.47785e-02,9.99999e-01,9.99999e-01,2.47785e-02,9.99999e-01
5.395400610e-01,2.66560e-02,9.99999e-01,9.99999e-01,2.66560e-02,9.99999e-01
5.422377613e-01,2.86345e-02,9.99999e-01,9.99999e-01,2.86345e-02,9.99999e-01
5.449489501e-01,3.07164e-02,9.99999e-01,9.99999e-01,3.07164e-02,9.99999e-01
5.476736949e-01,3.29040e-02,9.99999e-01,9.99999e-01,3.29040e-02,9.99999e-01
5.504120634e-01,3.51995e-02,9.99999e-01,9.99999e-01,3.51995e-02,9.99999e-01
5.531641237e-01,3.76050e-02,9.99999e-01,9.99999e-01,3.76050e-02,9.99999e-01
5.559299443e-01,4.01225e-02,9.99999e-01,9.99999e-01,4.01225e-02,9.99999e-01
5.587095940e-01,4.27538e-02,9.99999e-01,9.99999e-01,4.27538e-02,9.99999e-01
5.615031420e-01,4.55005e-02,9.99999e-01,9.99999e-01,4.55005e-02,9.99999e-01
5.643106577e-01,4.83642e-02,9.99999e-01,9.99999e-01,4.83642e-02,9.99999e-01
5.671322110e-01,5.13462e-02,9.99999e-01,9.99999e-01,5.13462e-02,9.99999e-01
5.699678720e-01,5.44476e-02,9.99999e-01,9.99999e-01,5.44476e-02,9.99999e-01
5.728177114e-01,5.76695e-02,9.99999e-01,9.99999e-01,5.76695e-02,9.99999e-01
5.756818000e-01,6.10128e-02,9.99999e-01,9.99999e-01,6.10128e-02,9.99999e-01
5.785602090e-01,6.44780e-02,9.99999e-01,9.99999e-01,6.44780e-02,9.99999e-01
5.814530100e-01,6.80657e-02,9.99999e-01,9.99999e-01,6.80657e-02,9.99999e-01
5.843602750e-01,7.17763e-02,9.99999e-01,9.99999e-01,7.17763e-02,9.99999e-01
5.872820764e-01,7.56098e-02,9.99999e-01,9.99999e-01,7.56098e-02,9.99999e-01
5.902184868e-01,7.95663e-02,9.99999e-01,9.99999e-01,7.95663e-02,9.99999e-01
5.931695792e-01,8.36455e-02,9.99999e-01,9.99999e-01,8.36455e-02,9.99999e-01
5.961354271e-01,8.78470e-02,9.99999e-01,9.99999e-01,8.78470e-02,9.99999e-01
5.991161043e-01,9.21703e-02,9.99999e-01,9.99999e-01,9.21703e-02,9.99999e-01
6.021116848e-01,9.66146e-02,9.99999e-01,9.99999e-01,9.66146e-02,9.99999e-01
6.051222432e-01,1.01179e-01,9.99999e-01,9.99999e-01,1.01179e-01,9.99999e-01
6.081478544e-01,1.05863e-01,9.99999e-01,9.99999e-01,1.05863e-01,9.99999e-01
6.111885937e-01,1.10664e-01,9.99999e-01,9.99999e-01,1.10664e-01,9.99999e-01
6.142445367e-01,1.15582e-01,9.99999e-01,9.99999e-01,1.15582e-01,9.99999e-01
6.173157594e-01,1.20615e-01,9.99999e-01,9.99999e-01,1.20615e-01,9.99999e-01
6.204023382e-01,1.25761e-01,9.99999e-01,9.99999e-01,1.25761e-01,9.99999e-01
6.235043498e-01,1.31018e-01,9.99999e-01,9.99999e-01,1.31018e-01,9.99999e-01
6.266218716e-01,1.36385e-01,9.99999e-01,9.99999e-01,1.36385e-01,9.99999e-01
6.297549810e-01,1.41859e-01,9.99999e-01,9.99999e-01,1.41859e-01,9.99999e-01
6.329037559e-01,1.47438e-01,9.99999e-01,9.99999e-01,1.47438e-01,9.99999e-01
6.360682746e-01,1.53120e-01,9.99999e-01,9.99999e-01,1.53120e-01,9.99999e-01
6.392486160e-01,1.58902e-01,9.99999e-01,9.99999e-01,1.58902e-01,9.99999e-01
6.424448591e-01,1.64781e-01,9.99999e-01,9.99999e-01,1.64781e-01,9.99999e-01
6.456570834e-01,1.70756e-01,9.99999e-01,9.99999e-01,1.70756e-01,9.99999e-01
6.488853688e-01,1.76823e-01,9.99999e-01,9.99999e-01,1.76823e-01,9.99999e-01
6.521297956e-01,1.82979e-01,9.99999e-01,9.99999e-01,1.82979e-01,9.99999e-01
6.553904446e-01,1.89222e-01,9.99999e-01,9.99999e-01,1.89222e-01,9.99999e-01
6.586673968e-01,1.95548e-01,9.99999e-01,9.99999e-01,1.95548e-01,9.99999e-01
6.619607338e-01,2.01954e-01,9.99999e-01,9.99999e-01,2.01954e-01,9.99999e-01
6.652705375e-01,2.08437e-01,9.99999e-01,9.99999e-01,2.08437e-01,9.99999e-01
6.685968902e-01,2.14994e-01,9.99999e-01,9.99999e-01,2.14994e-01,9.99999e-01
6.719398746e-01,2.21622e-01,9.99999e-01,9.99999e-01,2.21622e-01,9.99999e-01
6.752995740e-01,2.28317e-01,9.99999e-01,9.99999e-01,2.28317e-01,9.99999e-01
6.786760719e-01,2.35077e-01,9.99999e-01,9.99999e-01,2.35077e-01,9.99999e-01
6.820694522e-01,2.41897e-01,9.99999e-01,9.99999e-01,2.41897e-01,9.99999e-01
6.854797995e-01,2.48774e-01,9.99999e-01,9.99999e-01,2.48774e-01,9.99999e-01
6.889071985e-01,2.55705e-01,9.99999e-01,9.99999e-01,2.55705e-01,9.99999e-01
6.923517345e-01,2.62686e-01,9.99999e-01,9.99999e-01,2.62686e-01,9.99999e-01
6.958134932e-01,2.69715e-01,9.99999e-01,9.99999e-01,2.69715e-01,9.99999e-01
6.992925606e-01,2.76787e-01,9.99999e-01,9.99999e-01,2.76787e-01,9.99999e-01
7.027890234e-01,2.83900e-01,9.99999e-01,9.99999e-01,2.83900e-01,9.99999e-01
7.063029686e-01,2.91049e-01,9.99999e-01,9.99999e-01,2.91049e-01,9.99999e-01
7.098344834e-01,2.98232e-01,9.99999e-01,9.99999e-01,2.98232e-01,9.99999e-01
7.133836558e-01,3.05445e-01,9.99999e-01,9.99999e-01,3.05445e-01,9.99999e-01
7.169505741e-01,3.12685e-01,9.99999e-01,9.99999e-01,3.12685e-01,9.99999e-01
7.205353270e-01,3.19948e-01,9.99999e-01,9.99999e-01,3.19948e-01,9.99999e-01
7.241380036e-01,3.27232e-01,9.99999e-01,9.99999e-01,3.27232e-01,9.99999e-01
7.277586936e-01,3.34533e-01,9.99999e-01,9.99999e-01,3.34533e-01,9.99999e-01
7.313974871e-01,3.41847e-01,9.99999e-01,9.99999e-01,3.41847e-01,9.99999e-01
7.350544745e-01,3.49173e-01,9.99999e-01,9.99999e-01,3.49173e-01,9.99999e-01
7.387297469e-01,3.56505e-01,9.99999e-01,9.99999e-01,3.56505e-01,9.99999e-01
7.424233956e-01,3.63843e-01,9.99999e-01,9.99999e-01,3.63843e-01,9.99999e-01
7.461355126e-01,3.71182e-01,9.99999e-01,9.99999e-01,3.71182e-01,9.99999e-01
7.498661902e-01,3.78520e-01,9.99999e-01,9.99999e-01,3.78520e-01,9.99999e-01
7.536155211e-01,3.85854e-01,9.99999e-01,9.99999e-01,3.85854e-01,9.99999e-01
7.573835987e-01,3.93180e-01,9.99999e-01,9.99999e-01,3.93180e-01,9.99999e-01
7.611705167e-01,4.00497e-01,9.99999e-01,9.99999e-01,4.00497e-01,9.99999e-01
7.649763693e-01,4.07802e-01,9.99999e-01,9.99999e-01,4.07802e-01,9.99999e-01
7.688012511e-01,4.15091e-01,9.99999e-01,9.99999e-01,4.15091e-01,9.99999e-01
7.726452574e-01,4.22363e-01,9.99999e-01,9.99999e-01,4.22363e-01,9.99999e-01
7.765084837e-01,4.29616e-01,9.99999e-01,9.99999e-01,4.29616e-01,9.99999e-01
7.803910261e-01,4.20481e-01,9.99999e-01,9.62540e-01,4.36845e-01,9.99999e-01
7.842929812e-01,3.72865e-01,9.99999e-01,8.39692e-01,4.44050e-01,9.99999e-01
7.882144461e-01,3.74576e-01,9.99999e-01,8.30125e-01,4.51228e-01,9.99999e-01
7.921555184e-01,4.11030e-01,9.99999e-01,8.96706e-01,4.58377e-01,9.99999e-01
7.961162960e-01,4.32560e-01,9.99999e-01,9.29249e-01,4.65494e-01,9.99999e-01
8.000968774e-01,4.54169e-01,9.99999e-01,9.61044e-01,4.72578e-01,9.99999e-01
8.040973618e-01,4.69832e-01,9.99999e-01,9.79577e-01,4.79627e-01,9.99999e-01
8.081178486e-01,4.82063e-01,9.99999e-01,9.90597e-01,4.86639e-01,9.99999e-01
8.121584379e-01,4.92166e-01,9.99999e-01,9.97072e-01,4.93611e-01,9.99999e-01
8.162192301e-01,5.00219e-01,9.99999e-01,9.99352e-01,5.00543e-01,9.99999e-01
8.203003262e-01,5.07427e-01,9.99999e-01,9.99989e-01,5.07432e-01,9.99999e-01
8.244018279e-01,5.14278e-01,9.99999e-01,9.99999e-01,5.14278e-01,9.99999e-01
8.285238370e-01,5.21077e-01,9.99999e-01,9.99999e-01,5.21077e-01,9.99999e-01
8.326664562e-01,5.27830e-01,9.99999e-01,9.99999e-01,5.27830e-01,9.99999e-01
8.368297885e-01,5.34534e-01,9.99999e-01,9.99999e-01,5.34534e-01,9.99999e-01
8.410139374e-01,5.41189e-01,9.99999e-01,9.99999e-01,5.41189e-01,9.99999e-01
8.452190071e-01,5.47792e-01,9.99999e-01,9.99999e-01,5.47792e-01,9.99999e-01
8.494451021e-01,5.54343e-01,9.99999e-01,9.99999e-01,5.54343e-01,9.99999e-01
8.536923276e-01,5.60841e-01,9.99999e-01,9.99999e-01,5.60841e-01,9.99999e-01
8.579607893e-01,5.67284e-01,9.99999e-01,9.99999e-01,5.67284e-01,9.99999e-01
8.622505932e-01,5.73672e-01,9.99999e-01,9.99999e-01,5.73672e-01,9.99999e-01
8.665618462e-01,5.33862e-01,9.99999e-01,9.20445e-01,5.80004e-01,9.99999e-01
8.708946554e-01,3.77265e-01,9.99999e-01,6.43491e-01,5.86278e-01,9.99999e-01
8.752491287e-01,4.14532e-01,9.99999e-01,6.99638e-01,5.92494e-01,9.99999e-01
8.796253743e-01,4.91653e-01,9.99999e-01,8.21266e-01,5.98652e-01,9.99999e-01
8.840235012e-01,5.45984e-01,9.99999e-01,9.02826e-01,6.04749e-01,9.99999e-01
8.884436187e-01,5.86606e-01,9.99999e-01,9.60409e-01,6.10787e-01,9.99999e-01
8.928858368e-01,6.06770e-01,9.99999e-01,9.83795e-01,6.16764e-01,9.99999e-01
8.973502660e-01,6.20206e-01,9.99999e-01,9.96026e-01,6.22680e-01,9.99999e-01
9.018370173e-01,6.28258e-01,9.99999e-01,9.99560e-01,6.28534e-01,9.99999e-01
9.063462024e-01,6.27359e-01,9.99999e-01,9.89016e-01,6.34325e-01,9.99999e-01
9.108779334e-01,6.23787e-01,9.99999e-01,9.74583e-01,6.40054e-01,9.99999e-01
9.154323231e-01,6.41810e-01,9.99999e-01,9.93943e-01,6.45720e-01,9.99999e-01
9.200094847e-01,5.97604e-01,9.99999e-01,9.17522e-01,6.51323e-01,9.99999e-01
9.246095321e-01,5.79168e-01,9.99999e-01,8.81718e-01,6.56863e-01,9.99999e-01
9.292325798e-01,6.00566e-01,9.99999e-01,9.06735e-01,6.62338e-01,9.99999e-01
9.338787427e-01,6.07058e-01,9.99999e-01,9.09108e-01,6.67750e-01,9.99999e-01
9.385481364e-01,6.27559e-01,9.99999e-01,9.32343e-01,6.73098e-01,9.99999e-01
9.432408771e-01,6.49842e-01,9.99999e-01,9.57928e-01,6.78382e-01,9.99999e-01
9.479570815e-01,6.68717e-01,9.99999e-01,9.78226e-01,6.83601e-01,9.99999e-01
9.526968669e-01,6.81479e-01,9.99999e-01,9.89432e-01,6.88757e-01,9.99999e-01
9.574603512e-01,6.90703e-01,9.99999e-01,9.95466e-01,6.93848e-01,9.99999e-01
9.622476530e-01,6.97886e-01,9.99999e-01,9.98582e-01,6.98876e-01,9.99999e-01
9.670588912e-01,7.03540e-01,9.99999e-01,9.99574e-01,7.03839e-01,9.99999e-01
9.718941857e-01,7.08717e-01,9.99999e-01,9.99969e-01,7.08739e-01,9.99999e-01
9.767536566e-01,7.13575e-01,9.99999e-01,9.99999e-01,7.13575e-01,9.99999e-01
9.816374249e-01,7.18347e-01,9.99999e-01,9.99999e-01,7.18347e-01,9.99999e-01
9.865456120e-01,7.23056e-01,9.99999e-01,9.99999e-01,7.23056e-01,9.99999e-01
9.914783401e-01,7.27703e-01,9.99999e-01,9.99999e-01,7.27703e-01,9.99999e-01
9.964357318e-01,7.32286e-01,9.99999e-01,9.99999e-01,7.32286e-01,9.99999e-01
1.001417910e+00,7.36807e-01,9.99999e-01,9.99999e-01,7.36807e-01,9.99999e-01
1.006425000e+00,7.41265e-01,9.99999e-01,9.99999e-01,7.41265e-01,9.99999e-01
1.011457125e+00,7.45662e-01,9.99999e-01,9.99999e-01,7.45662e-01,9.99999e-01
1.016514411e+00,7.49997e-01,9.99999e-01,9.99999e-01,7.49997e-01,9.99999e-01
1.021596983e+00,7.54230e-01,9.99999e-01,9.99944e-01,7.54271e-01,9.99999e-01
1.026704968e+00,7.55231e-01,9.99999e-01,9.95710e-01,7.58484e-01,9.99999e-01
1.031838492e+00,7.26924e-01,9.99999e-01,9.53171e-01,7.62637e-01,9.99999e-01
1.036997685e+00,1.03221e-01,9.99999e-01,1.34625e-01,7.66730e-01,9.99999e-01
1.042182673e+00,6.79151e-02,9.99999e-01,8.81140e-02,7.70763e-01,9.99999e-01
1.047393587e+00,8.80747e-02,9.99999e-01,1.13683e-01,7.74737e-01,9.99999e-01
1.052630555e+00,1.52544e-03,9.99999e-01,1.95907e-03,7.78653e-01,9.99999e-01
1.057893707e+00,4.13057e-03,9.99999e-01,5.27861e-03,7.82511e-01,9.99999e-01
1.063183176e+00,1.62427e-02,9.99999e-01,2.06569e-02,7.86310e-01,9.99999e-01
1.068499092e+00,5.20572e-02,9.99999e-01,6.58907e-02,7.90053e-01,9.99999e-01
1.073841587e+00,1.41568e-01,9.99999e-01,1.78356e-01,7.93739e-01,9.99999e-01
1.079210795e+00,2.67595e-01,9.99999e-01,3.35597e-01,7.97369e-01,9.99999e-01
1.084606849e+00,4.38130e-01,9.99999e-01,5.47017e-01,8.00944e-01,9.99999e-01
1.090029883e+00,5.88097e-01,9.99999e-01,7.31042e-01,8.04463e-01,9.99999e-01
1.095480033e+00,6.92238e-01,9.99999e-01,8.56806e-01,8.07928e-01,9.99999e-01
1.100957433e+00,7.53113e-01,9.99999e-01,9.28234e-01,8.11339e-01,9.99999e-01
1.106462220e+00,7.89970e-01,9.99999e-01,9.69649e-01,8.14696e-01,9.99999e-01
1.111994531e+00,8.08710e-01,9.99999e-01,9.88641e-01,8.18001e-01,9.99999e-01
1.117554504e+00,8.18960e-01,9.99999e-01,9.97208e-01,8.21253e-01,9.99999e-01
1.123142276e+00,8.24302e-01,9.99999e-01,9.99815e-01,8.24454e-01,9.99999e-01
1.128757988e+00,8.27603e-01,9.99999e-01,9.99999e-01,8.27603e-01,9.99999e-01
1.134401778e+00,8.30702e-01,9.99999e-01,9.99999e-01,8.30702e-01,9.99999e-01
1.140073787e+00,8.33751e-01,9.99999e-01,9.99999e-01,8.33751e-01,9.99999e-01
1.145774156e+00,8.36751e-01,9.99999e-01,9.99999e-01,8.36751e-01,9.99999e-01
1.151503026e+00,8.39702e-01,9.99999e-01,9.99999e-01,8.39702e-01,9.99999e-01
1.157260541e+00,8.42605e-01,9.99999e-01,9.99999e-01,8.42605e-01,9.99999e-01
1.163046844e+00,8.45460e-01,9.99999e-01,9.99999e-01,8.45460e-01,9.99999e-01
1.168862078e+00,8.48268e-01,9.99999e-01,9.99999e-01,8.48268e-01,9.99999e-01
1.174706389e+00,8.51030e-01,9.99999e-01,9.99999e-01,8.51030e-01,9.99999e-01
1.180579921e+00,8.53746e-01,9.99999e-01,9.99999e-01,8.53746e-01,9.99999e-01
1.186482820e+00,8.56411e-01,9.99999e-01,9.99993e-01,8.56416e-01,9.99999e-01
1.192415234e+00,8.46031e-01,9.99999e-01,9.84853e-01,8.59042e-01,9.99999e-01
1.198377311e+00,4.80852e-01,9.99999e-01,5.58075e-01,8.61624e-01,9.99999e-01
1.204369197e+00,1.18359e-12,9.99999e-01,1.36964e-12,8.64163e-01,9.99999e-01
1.210391043e+00,6.03839e-47,9.99999e-01,6.96743e-47,8.66658e-01,9.99999e-01
1.216442998e+00,8.17736e-41,9.99999e-01,9.40886e-41,8.69112e-01,9.99999e-01
1.222525213e+00,3.19522e-40,9.99999e-01,3.66625e-40,8.71523e-01,9.99999e-01
1.228637839e+00,3.71819e-31,9.99999e-01,4.25473e-31,8.73894e-01,9.99999e-01
1.234781029e+00,4.92258e-20,9.99999e-01,5.61795e-20,8.76223e-01,9.99999e-01
1.240954934e+00,1.62692e-13,9.99999e-01,1.85190e-13,8.78513e-01,9.99999e-01
1.247159708e+00,2.41676e-07,9.99999e-01,2.74393e-07,8.80764e-01,9.99999e-01
1.253395507e+00,8.55204e-05,9.99999e-01,9.68547e-05,8.82975e-01,9.99999e-01
1.259662485e+00,4.39283e-03,9.99999e-01,4.96281e-03,8.85149e-01,9.99999e-01
1.265960797e+00,4.12749e-02,9.99999e-01,4.65182e-02,8.87284e-01,9.99999e-01
1.272290601e+00,2.16878e-01,9.99999e-01,2.43852e-01,8.89383e-01,9.99999e-01
1.278652054e+00,2.06513e-01,9.99999e-01,2.31661e-01,8.91445e-01,9.99999e-01
1.285045314e+00,4.31011e-03,9.99999e-01,4.82400e-03,8.93470e-01,9.99999e-01
1.291470541e+00,3.59086e-06,9.99999e-01,4.01006e-06,8.95460e-01,9.99999e-01
1.297927893e+00,2.32772e-03,9.99999e-01,2.59380e-03,8.97415e-01,9.99999e-01
1.304417533e+00,8.27044e-02,9.99999e-01,9.19615e-02,8.99336e-01,9.99999e-01
1.310939621e+00,2.01785e-02,9.99999e-01,2.23901e-02,9.01223e-01,9.99999e-01
1.317494319e+00,1.40883e-16,9.99999e-01,1.56003e-16,9.03076e-01,9.99999e-01
1.324081790e+00,2.22898e-11,9.99999e-01,2.46324e-11,9.04896e-01,9.99999e-01
1.330702199e+00,9.88961e-07,9.99999e-01,1.09074e-06,9.06684e-01,9.99999e-01
1.337355710e+00,1.57654e-06,9.99999e-01,1.73544e-06,9.08441e-01,9.99999e-01
1.344042489e+00,5.08652e-07,9.99999e-01,5.58856e-07,9.10165e-01,9.99999e-01
1.350762701e+00,5.85735e-07,9.99999e-01,6.42352e-07,9.11859e-01,9.99999e-01
1.357516515e+00,1.05999e-04,9.99999e-01,1.16034e-04,9.13522e-01,9.99999e-01
1.364304097e+00,2.32150e-03,9.99999e-01,2.53672e-03,9.15156e-01,9.99999e-01
1.371125618e+00,4.10009e-02,9.99999e-01,4.47236e-02,9.16760e-01,9.99999e-01
1.377981246e+00,7.05827e-02,9.99999e-01,7.68593e-02,9.18335e-01,9.99999e-01
1.384871152e+00,2.06636e-01,9.99999e-01,2.24633e-01,9.19882e-01,9.99999e-01
1.391795508e+00,2.31623e-01,9.99999e-01,2.51381e-01,9.21400e-01,9.99999e-01
1.398754485e+00,3.93060e-01,9.99999e-01,4.25900e-01,9.22891e-01,9.99999e-01
1.405748258e+00,4.93223e-01,9.99999e-01,5.33585e-01,9.24355e-01,9.99999e-01
1.412776999e+00,6.22267e-01,9.99999e-01,6.72145e-01,9.25793e-01,9.99999e-01
1.419840884e+00,5.61442e-01,9.99999e-01,6.05521e-01,9.27204e-01,9.99999e-01
1.426940089e+00,4.69584e-02,9.99999e-01,5.05695e-02,9.28589e-01,9.99999e-01
1.434074789e+00,0.00000e+00,9.99999e-01,0.00000e+00,9.29949e-01,9.99999e-01
1.441245163e+00,0.00000e+00,9.99999e-01,0.00000e+00,9.31284e-01,9.99999e-01
1.448451389e+00,0.00000e+00,9.99999e-01,0.00000e+00,9.32594e-01,9.99999e-01
1.455693646e+00,0.00000e+00,9.99999e-01,0.00000e+00,9.33881e-01,9.99999e-01
1.462972114e+00,1.13622e-183,9.99999e-01,1.21502e-183,9.35143e-01,9.99999e-01
1.470286975e+00,6.70005e-77,9.99999e-01,7.15524e-77,9.36383e-01,9.99999e-01
