#,Wave/freq,Total,O2,CO2,Rayleigh,CIA
4.000000000e-01,5.66522e-03,9.99999e-01,9.99999e-01,5.66522e-03,9.99999e-01
4.020000000e-01,6.27540e-03,9.99999e-01,9.99999e-01,6.27540e-03,9.99999e-01
4.040100000e-01,6.93655e-03,9.99999e-01,9.99999e-01,6.93655e-03,9.99999e-01
4.060300500e-01,7.65220e-03,9.99999e-01,9.99999e-01,7.65220e-03,9.99999e-01
4.080602003e-01,8.42532e-03,9.99999e-01,9.99999e-01,8.42532e-03,9.99999e-01
4.101005013e-01,9.25894e-03,9.99999e-01,9.99999e-01,9.25894e-03,9.99999e-01
4.121510038e-01,1.01561e-02,9.99999e-01,9.99999e-01,1.01561e-02,9.99999e-01
4.142117588e-01,1.11198e-02,9.99999e-01,9.99999e-01,1.11198e-02,9.99999e-01
4.162828176e-01,1.21533e-02,9.99999e-01,9.99999e-01,1.21533e-02,9.99999e-01
4.183642317e-01,1.32594e-02,9.99999e-01,9.99999e-01,1.32594e-02,9.99999e-01
4.204560528e-01,1.44414e-02,9.99999e-01,9.99999e-01,1.44414e-02,9.99999e-01
4.225583331e-01,1.57023e-02,9.99999e-01,9.99999e-01,1.57023e-02,9.99999e-01
4.246711247e-01,1.70450e-02,9.99999e-01,9.99999e-01,1.70450e-02,9.99999e-01
4.267944804e-01,1.84726e-02,9.99999e-01,9.99999e-01,1.84726e-02,9.99999e-01
4.289284528e-01,1.99879e-02,9.99999e-01,9.99999e-01,1.99879e-02,9.99999e-01
4.310730950e-01,2.15939e-02,9.99999e-01,9.99999e-01,2.15939e-02,9.99999e-01
4.332284605e-01,2.32934e-02,9.99999e-01,9.99999e-01,2.32934e-02,9.99999e-01
4.353946028e-01,2.50890e-02,9.99999e-01,9.99999e-01,2.50890e-02,9.99999e-01
4.375715758e-01,2.69835e-02,9.99999e-01,9.99999e-01,2.69835e-02,9.99999e-01
4.397594337e-01,2.89793e-02,9.99999e-01,9.99999e-01,2.89793e-02,9.99999e-01
4.419582309e-01,3.10789e-02,9.99999e-01,9.99999e-01,3.10789e-02,9.99999e-01
4.441680220e-01,3.32845e-02,9.99999e-01,9.99999e-01,3.32845e-02,9.99999e-01
4.463888621e-01,3.55985e-02,9.99999e-01,9.99999e-01,3.55985e-02,9.99999e-01
4.486208064e-01,3.80229e-02,9.99999e-01,9.99999e-01,3.80229e-02,9.99999e-01
4.508639105e-01,4.05595e-02,9.99999e-01,9.99999e-01,4.05595e-02,9.99999e-01
4.531182300e-01,4.32102e-02,9.99999e-01,9.99999e-01,4.32102e-02,9.99999e-01
4.553838212e-01,4.59766e-02,9.99999e-01,9.99999e-01,4.59766e-02,9.99999e-01
4.576607403e-01,4.88601e-02,9.99999e-01,9.99999e-01,4.88601e-02,9.99999e-01
4.599490440e-01,5.18622e-02,9.99999e-01,9.99999e-01,5.18622e-02,9.99999e-01
4.622487892e-01,5.49840e-02,9.99999e-01,9.99999e-01,5.49840e-02,9.99999e-01
4.645600332e-01,5.82263e-02,9.99999e-01,9.99999e-01,5.82263e-02,9.99999e-01
4.668828333e-01,6.15902e-02,9.99999e-01,9.99999e-01,6.15902e-02,9.99999e-01
4.692172475e-01,6.50761e-02,9.99999e-01,9.99999e-01,6.50761e-02,9.99999e-01
4.715633337e-01,6.86846e-02,9.99999e-01,9.99999e-01,6.86846e-02,9.99999e-01
4.739211504e-01,7.24160e-02,9.99999e-01,9.99999e-01,7.24160e-02,9.99999e-01
4.762907561e-01,7.62703e-02,9.99999e-01,9.99999e-01,7.62703e-02,9.99999e-01
4.786722099e-01,8.02475e-02,9.99999e-01,9.99999e-01,8.02475e-02,9.99999e-01
4.810655710e-01,8.43474e-02,9.99999e-01,9.99999e-01,8.43474e-02,9.99999e-01
4.834708988e-01,8.85696e-02,9.99999e-01,9.99999e-01,8.85696e-02,9.99999e-01
4.858882533e-01,9.29134e-02,9.99999e-01,9.99999e-01,9.29134e-02,9.99999e-01
4.883176946e-01,9.73781e-02,9.99999e-01,9.99999e-01,9.73781e-02,9.99999e-01
4.907592831e-01,1.01963e-01,9.99999e-01,9.99999e-01,1.01963e-01,9.99999e-01
4.932130795e-01,1.06666e-01,9.99999e-01,9.99999e-01,1.06666e-01,9.99999e-01
4.956791449e-01,1.11488e-01,9.99999e-01,9.99999e-01,1.11488e-01,9.99999e-01
4.981575406e-01,1.16425e-01,9.99999e-01,9.99999e-01,1.16425e-01,9.99999e-01
5.006483283e-01,1.21477e-01,9.99999e-01,9.99999e-01,1.21477e-01,9.99999e-01
5.031515699e-01,1.26642e-01,9.99999e-01,9.99999e-01,1.26642e-01,9.99999e-01
5.056673278e-01,1.31918e-01,9.99999e-01,9.99999e-01,1.31918e-01,9.99999e-01
5.081956644e-01,1.37303e-01,9.99999e-01,9.99999e-01,1.37303e-01,9.99999e-01
5.107366428e-01,1.42795e-01,9.99999e-01,9.99999e-01,1.42795e-01,9.99999e-01
5.132903260e-01,1.48392e-01,9.99999e-01,9.99999e-01,1.48392e-01,9.99999e-01
5.158567776e-01,1.54091e-01,9.99999e-01,9.99999e-01,1.54091e-01,9.99999e-01
5.184360615e-01,1.59889e-01,9.99999e-01,9.99999e-01,1.59889e-01,9.99999e-01
5.210282418e-01,1.65785e-01,9.99999e-01,9.99999e-01,1.65785e-01,9.99999e-01
5.236333830e-01,1.71776e-01,9.99999e-01,9.99999e-01,1.71776e-01,9.99999e-01
5.262515499e-01,1.77858e-01,9.99999e-01,9.99999e-01,1.77858e-01,9.99999e-01
5.288828077e-01,1.84029e-01,9.99999e-01,9.99999e-01,1.84029e-01,9.99999e-01
5.315272217e-01,1.90286e-01,9.99999e-01,9.99999e-01,1.90286e-01,9.99999e-01
5.341848578e-01,1.96626e-01,9.99999e-01,9.99999e-01,1.96626e-01,9.99999e-01
5.368557821e-01,2.03045e-01,9.99999e-01,9.99999e-01,2.03045e-01,9.99999e-01
5.395400610e-01,2.09541e-01,9.99999e-01,9.99999e-01,2.09541e-01,9.99999e-01
5.422377613e-01,2.16110e-01,9.99999e-01,9.99999e-01,2.16110e-01,9.99999e-01
5.449489501e-01,2.22750e-01,9.99999e-01,9.99999e-01,2.22750e-01,9.99999e-01
5.476736949e-01,2.29456e-01,9.99999e-01,9.99999e-01,2.29456e-01,9.99999e-01
5.504120634e-01,2.36226e-01,9.99999e-01,9.99999e-01,2.36226e-01,9.99999e-01
5.531641237e-01,2.43056e-01,9.99999e-01,9.99999e-01,2.43056e-01,9.99999e-01
5.559299443e-01,2.49942e-01,9.99999e-01,9.99999e-01,2.49942e-01,9.99999e-01
5.587095940e-01,2.56882e-01,9.99999e-01,9.99999e-01,2.56882e-01,9.99999e-01
5.615031420e-01,2.63872e-01,9.99999e-01,9.99999e-01,2.63872e-01,9.99999e-01
5.643106577e-01,2.70908e-01,9.99999e-01,9.99999e-01,2.70908e-01,9.99999e-01
5.671322110e-01,2.77987e-01,9.99999e-01,9.99999e-01,2.77987e-01,9.99999e-01
5.699678720e-01,2.85106e-01,9.99999e-01,9.99999e-01,2.85106e-01,9.99999e-01
5.728177114e-01,2.92262e-01,9.99999e-01,9.99999e-01,2.92262e-01,9.99999e-01
5.756818000e-01,2.99450e-01,9.99999e-01,9.99999e-01,2.99450e-01,9.99999e-01
5.785602090e-01,3.06668e-01,9.99999e-01,9.99999e-01,3.06668e-01,9.99999e-01
5.814530100e-01,3.13912e-01,9.99999e-01,9.99999e-01,3.13912e-01,9.99999e-01
5.843602750e-01,3.21179e-01,9.99999e-01,9.99999e-01,3.21179e-01,9.99999e-01
5.872820764e-01,3.28466e-01,9.99999e-01,9.99999e-01,3.28466e-01,9.99999e-01
5.902184868e-01,3.35769e-01,9.99999e-01,9.99999e-01,3.35769e-01,9.99999e-01
5.931695792e-01,3.43085e-01,9.99999e-01,9.99999e-01,3.43085e-01,9.99999e-01
5.961354271e-01,3.50412e-01,9.99999e-01,9.99999e-01,3.50412e-01,9.99999e-01
5.991161043e-01,3.57746e-01,9.99999e-01,9.99999e-01,3.57746e-01,9.99999e-01
6.021116848e-01,3.65084e-01,9.99999e-01,9.99999e-01,3.65084e-01,9.99999e-01
6.051222432e-01,3.72423e-01,9.99999e-01,9.99999e-01,3.72423e-01,9.99999e-01
6.081478544e-01,3.79760e-01,9.99999e-01,9.99999e-01,3.79760e-01,9.99999e-01
6.111885937e-01,3.87093e-01,9.99999e-01,9.99999e-01,3.87093e-01,9.99999e-01
6.142445367e-01,3.94418e-01,9.99999e-01,9.99999e-01,3.94418e-01,9.99999e-01
6.173157594e-01,4.01733e-01,9.99999e-01,9.99999e-01,4.01733e-01,9.99999e-01
6.204023382e-01,4.09036e-01,9.99999e-01,9.99999e-01,4.09036e-01,9.99999e-01
6.235043498e-01,4.16322e-01,9.99999e-01,9.99999e-01,4.16322e-01,9.99999e-01
6.266218716e-01,4.23591e-01,9.99999e-01,9.99999e-01,4.23591e-01,9.99999e-01
6.297549810e-01,4.30840e-01,9.99999e-01,9.99999e-01,4.30840e-01,9.99999e-01
6.329037559e-01,4.38065e-01,9.99999e-01,9.99999e-01,4.38065e-01,9.99999e-01
6.360682746e-01,4.45266e-01,9.99999e-01,9.99999e-01,4.45266e-01,9.99999e-01
6.392486160e-01,4.52439e-01,9.99999e-01,9.99999e-01,4.52439e-01,9.99999e-01
6.424448591e-01,4.59583e-01,9.99999e-01,9.99999e-01,4.59583e-01,9.99999e-01
6.456570834e-01,4.66695e-01,9.99999e-01,9.99999e-01,4.66695e-01,9.99999e-01
6.488853688e-01,4.73773e-01,9.99999e-01,9.99999e-01,4.73773e-01,9.99999e-01
6.521297956e-01,4.80815e-01,9.99999e-01,9.99999e-01,4.80815e-01,9.99999e-01
6.553904446e-01,4.87821e-01,9.99999e-01,9.99999e-01,4.87821e-01,9.99999e-01
6.586673968e-01,4.94786e-01,9.99999e-01,9.99999e-01,4.94786e-01,9.99999e-01
6.619607338e-01,5.01711e-01,9.99999e-01,9.99999e-01,5.01711e-01,9.99999e-01
6.652705375e-01,5.08593e-01,9.99999e-01,9.99999e-01,5.08593e-01,9.99999e-01
6.685968902e-01,5.15431e-01,9.99999e-01,9.99999e-01,5.15431e-01,9.99999e-01
6.719398746e-01,5.22223e-01,9.99999e-01,9.99999e-01,5.22223e-01,9.99999e-01
6.752995740e-01,5.28967e-01,9.99999e-01,9.99999e-01,5.28967e-01,9.99999e-01
6.786760719e-01,5.35663e-01,9.99999e-01,9.99999e-01,5.35663e-01,9.99999e-01
6.820694522e-01,5.42309e-01,9.99999e-01,9.99999e-01,5.42309e-01,9.99999e-01
6.854797995e-01,5.48904e-01,9.99999e-01,9.99999e-01,5.48904e-01,9.99999e-01
6.889071985e-01,5.55446e-01,9.99999e-01,9.99999e-01,5.55446e-01,9.99999e-01
6.923517345e-01,5.61934e-01,9.99999e-01,9.99999e-01,5.61934e-01,9.99999e-01
6.958134932e-01,5.68368e-01,9.99999e-01,9.99999e-01,5.68368e-01,9.99999e-01
6.992925606e-01,5.74747e-01,9.99999e-01,9.99999e-01,5.74747e-01,9.99999e-01
7.027890234e-01,5.81069e-01,9.99999e-01,9.99999e-01,5.81069e-01,9.99999e-01
7.063029686e-01,5.87333e-01,9.99999e-01,9.99999e-01,5.87333e-01,9.99999e-01
7.098344834e-01,5.93540e-01,9.99999e-01,9.99999e-01,5.93540e-01,9.99999e-01
7.133836558e-01,5.99687e-01,9.99999e-01,9.99999e-01,5.99687e-01,9.99999e-01
7.169505741e-01,6.05775e-01,9.99999e-01,9.99999e-01,6.05775e-01,9.99999e-01
7.205353270e-01,6.11802e-01,9.99999e-01,9.99999e-01,6.11802e-01,9.99999e-01
7.241380036e-01,6.17769e-01,9.99999e-01,9.99999e-01,6.17769e-01,9.99999e-01
7.277586936e-01,6.23674e-01,9.99999e-01,9.99999e-01,6.23674e-01,9.99999e-01
7.313974871e-01,6.29517e-01,9.99999e-01,9.99999e-01,6.29517e-01,9.99999e-01
7.350544745e-01,6.35299e-01,9.99999e-01,9.99999e-01,6.35299e-01,9.99999e-01
7.387297469e-01,6.41017e-01,9.99999e-01,9.99999e-01,6.41017e-01,9.99999e-01
7.424233956e-01,6.46672e-01,9.99999e-01,9.99999e-01,6.46672e-01,9.99999e-01
7.461355126e-01,6.52265e-01,9.99999e-01,9.99999e-01,6.52265e-01,9.99999e-01
7.498661902e-01,6.57793e-01,9.99999e-01,9.99999e-01,6.57793e-01,9.99999e-01
7.536155211e-01,6.63258e-01,9.99999e-01,9.99999e-01,6.63258e-01,9.99999e-01
7.573835987e-01,6.68659e-01,9.99999e-01,9.99999e-01,6.68659e-01,9.99999e-01
7.611705167e-01,6.73996e-01,9.99999e-01,9.99999e-01,6.73996e-01,9.99999e-01
7.649763693e-01,6.79269e-01,9.99999e-01,9.99999e-01,6.79269e-01,9.99999e-01
7.688012511e-01,6.84478e-01,9.99999e-01,9.99999e-01,6.84478e-01,9.99999e-01
7.726452574e-01,6.89623e-01,9.99999e-01,9.99999e-01,6.89623e-01,9.99999e-01
7.765084837e-01,6.94703e-01,9.99999e-01,9.99999e-01,6.94703e-01,9.99999e-01
7.803910261e-01,6.86983e-01,9.99999e-01,9.81796e-01,6.99720e-01,9.99999e-01
7.842929812e-01,6.52808e-01,9.99999e-01,9.26399e-01,7.04672e-01,9.99999e-01
7.882144461e-01,6.53386e-01,9.99999e-01,9.20830e-01,7.09561e-01,9.99999e-01
7.921555184e-01,6.81323e-01,9.99999e-01,9.53717e-01,7.14386e-01,9.99999e-01
7.961162960e-01,6.96858e-01,9.99999e-01,9.69004e-01,7.19148e-01,9.99999e-01
8.000968774e-01,7.11590e-01,9.99999e-01,9.83066e-01,7.23847e-01,9.99999e-01
8.040973618e-01,7.22085e-01,9.99999e-01,9.91218e-01,7.28482e-01,9.99999e-01
8.081178486e-01,7.30087e-01,9.99999e-01,9.95951e-01,7.33055e-01,9.99999e-01
8.121584379e-01,7.36647e-01,9.99999e-01,9.98754e-01,7.37565e-01,9.99999e-01
8.162192301e-01,7.41809e-01,9.99999e-01,9.99724e-01,7.42013e-01,9.99999e-01
8.203003262e-01,7.46396e-01,9.99999e-01,9.99995e-01,7.46399e-01,9.99999e-01
8.244018279e-01,7.50724e-01,9.99999e-01,9.99999e-01,7.50724e-01,9.99999e-01
8.285238370e-01,7.54988e-01,9.99999e-01,9.99999e-01,7.54988e-01,9.99999e-01
8.326664562e-01,7.59191e-01,9.99999e-01,9.99999e-01,7.59191e-01,9.99999e-01
8.368297885e-01,7.63333e-01,9.99999e-01,9.99999e-01,7.63333e-01,9.99999e-01
8.410139374e-01,7.67416e-01,9.99999e-01,9.99999e-01,7.67416e-01,9.99999e-01
8.452190071e-01,7.71439e-01,9.99999e-01,9.99999e-01,7.71439e-01,9.99999e-01
8.494451021e-01,7.75404e-01,9.99999e-01,9.99999e-01,7.75404e-01,9.99999e-01
8.536923276e-01,7.79310e-01,9.99999e-01,9.99999e-01,7.79310e-01,9.99999e-01
8.579607893e-01,7.83157e-01,9.99999e-01,9.99999e-01,7.83157e-01,9.99999e-01
8.622505932e-01,7.86947e-01,9.99999e-01,9.99999e-01,7.86947e-01,9.99999e-01
8.665618462e-01,7.52937e-01,9.99999e-01,9.52263e-01,7.90681e-01,9.99999e-01
8.708946554e-01,6.51899e-01,9.99999e-01,8.20662e-01,7.94357e-01,9.99999e-01
8.752491287e-01,6.82103e-01,9.99999e-01,8.54789e-01,7.97978e-01,9.99999e-01
8.796253743e-01,7.36047e-01,9.99999e-01,9.18288e-01,8.01543e-01,9.99999e-01
8.840235012e-01,7.70411e-01,9.99999e-01,9.56968e-01,8.05053e-01,9.99999e-01
8.884436187e-01,7.94670e-01,9.99999e-01,9.82883e-01,8.08508e-01,9.99999e-01
8.928858368e-01,8.06252e-01,9.99999e-01,9.93031e-01,8.11910e-01,9.99999e-01
8.973502660e-01,8.13881e-01,9.99999e-01,9.98309e-01,8.15259e-01,9.99999e-01
9.018370173e-01,8.18402e-01,9.99999e-01,9.99813e-01,8.18554e-01,9.99999e-01
9.063462024e-01,8.17783e-01,9.99999e-01,9.95113e-01,8.21798e-01,9.99999e-01
9.108779334e-01,8.15919e-01,9.99999e-01,9.89004e-01,8.24990e-01,9.99999e-01
9.154323231e-01,8.25999e-01,9.99999e-01,9.97424e-01,8.28131e-01,9.99999e-01
9.200094847e-01,7.99103e-01,9.99999e-01,9.61359e-01,8.31221e-01,9.99999e-01
9.246095321e-01,7.90217e-01,9.99999e-01,9.47204e-01,8.34262e-01,9.99999e-01
9.292325798e-01,8.02034e-01,9.99999e-01,9.57933e-01,8.37253e-01,9.99999e-01
9.338787427e-01,8.06314e-01,9.99999e-01,9.59673e-01,8.40196e-01,9.99999e-01
9.385481364e-01,8.18019e-01,9.99999e-01,9.70262e-01,8.43091e-01,9.99999e-01
9.432408771e-01,8.30494e-01,9.99999e-01,9.81743e-01,8.45938e-01,9.99999e-01
9.479570815e-01,8.40747e-01,9.99999e-01,9.90583e-01,8.48738e-01,9.99999e-01
9.526968669e-01,8.47622e-01,9.99999e-01,9.95453e-01,8.51492e-01,9.99999e-01
9.574603512e-01,8.52540e-01,9.99999e-01,9.98055e-01,8.54200e-01,9.99999e-01
9.622476530e-01,8.56344e-01,9.99999e-01,9.99393e-01,8.56863e-01,9.99999e-01
9.670588912e-01,8.59326e-01,9.99999e-01,9.99818e-01,8.59482e-01,9.99999e-01
9.718941857e-01,8.62046e-01,9.99999e-01,9.99986e-01,8.62056e-01,9.99999e-01
9.767536566e-01,8.64588e-01,9.99999e-01,9.99999e-01,8.64588e-01,9.99999e-01
9.816374249e-01,8.67076e-01,9.99999e-01,9.99999e-01,8.67076e-01,9.99999e-01
9.865456120e-01,8.69522e-01,9.99999e-01,9.99999e-01,8.69522e-01,9.99999e-01
9.914783401e-01,8.71927e-01,9.99999e-01,9.99999e-01,8.71927e-01,9.99999e-01
9.964357318e-01,8.74290e-01,9.99999e-01,9.99999e-01,8.74290e-01,9.99999e-01
1.001417910e+00,8.76614e-01,9.99999e-01,9.99999e-01,8.76614e-01,9.99999e-01
1.006425000e+00,8.78897e-01,9.99999e-01,9.99999e-01,8.78897e-01,9.99999e-01
1.011457125e+00,8.81141e-01,9.99999e-01,9.99999e-01,8.81141e-01,9.99999e-01
1.016514411e+00,8.83346e-01,9.99999e-01,9.99999e-01,8.83346e-01,9.99999e-01
1.021596983e+00,8.85488e-01,9.99999e-01,9.99971e-01,8.85513e-01,9.99999e-01
1.026704968e+00,8.85951e-01,9.99999e-01,9.98094e-01,8.87642e-01,9.99999e-01
1.031838492e+00,8.64152e-01,9.99999e-01,9.71247e-01,8.89734e-01,9.99999e-01
1.036997685e+00,2.48823e-01,9.99999e-01,2.79015e-01,8.91790e-01,9.99999e-01
1.042182673e+00,2.95736e-01,9.99999e-01,3.30872e-01,8.93809e-01,9.99999e-01
1.047393587e+00,2.74950e-01,9.99999e-01,3.06934e-01,8.95793e-01,9.99999e-01
1.052630555e+00,3.92340e-02,9.99999e-01,4.37029e-02,8.97743e-01,9.99999e-01
1.057893707e+00,7.51788e-02,9.99999e-01,8.35638e-02,8.99658e-01,9.99999e-01
1.063183176e+00,1.48924e-01,9.99999e-01,1.65189e-01,9.01539e-01,9.99999e-01
1.068499092e+00,2.70493e-01,9.99999e-01,2.99421e-01,9.03386e-01,9.99999e-01
1.073841587e+00,4.23872e-01,9.99999e-01,4.68262e-01,9.05201e-01,9.99999e-01
1.079210795e+00,5.61911e-01,9.99999e-01,6.19537e-01,9.06984e-01,9.99999e-01
1.084606849e+00,6.99902e-01,9.99999e-01,7.70193e-01,9.08734e-01,9.99999e-01
1.090029883e+00,7.95267e-01,9.99999e-01,8.73483e-01,9.10454e-01,9.99999e-01
1.095480033e+00,8.53438e-01,9.99999e-01,9.35640e-01,9.12142e-01,9.99999e-01
1.100957433e+00,8.85011e-01,9.99999e-01,9.68494e-01,9.13801e-01,9.99999e-01
1.106462220e+00,9.03408e-01,9.99999e-01,9.86867e-01,9.15429e-01,9.99999e-01
1.111994531e+00,9.12548e-01,9.99999e-01,9.95113e-01,9.17028e-01,9.99999e-01
1.117554504e+00,9.17505e-01,9.99999e-01,9.98808e-01,9.18599e-01,9.99999e-01
1.123142276e+00,9.20069e-01,9.99999e-01,9.99921e-01,9.20141e-01,9.99999e-01
1.128757988e+00,9.21654e-01,9.99999e-01,9.99999e-01,9.21654e-01,9.99999e-01
1.134401778e+00,9.23141e-01,9.99999e-01,9.99999e-01,9.23141e-01,9.99999e-01
1.140073787e+00,9.24600e-01,9.99999e-01,9.99999e-01,9.24600e-01,9.99999e-01
1.145774156e+00,9.26033e-01,9.99999e-01,9.99999e-01,9.26033e-01,9.99999e-01
1.151503026e+00,9.27440e-01,9.99999e-01,9.99999e-01,9.27440e-01,9.99999e-01
1.157260541e+00,9.28821e-01,9.99999e-01,9.99999e-01,9.28821e-01,9.99999e-01
1.163046844e+00,9.30176e-01,9.99999e-01,9.99999e-01,9.30176e-01,9.99999e-01
1.168862078e+00,9.31507e-01,9.99999e-01,9.99999e-01,9.31507e-01,9.99999e-01
1.174706389e+00,9.32814e-01,9.99999e-01,9.99999e-01,9.32814e-01,9.99999e-01
1.180579921e+00,9.34096e-01,9.99999e-01,9.99999e-01,9.34096e-01,9.99999e-01
1.186482820e+00,9.35351e-01,9.99999e-01,9.99995e-01,9.35355e-01,9.99999e-01
1.192415234e+00,9.30167e-01,9.99999e-01,9.93142e-01,9.36590e-01,9.99999e-01
1.198377311e+00,5.46977e-01,9.99999e-01,5.83253e-01,9.37803e-01,9.99999e-01
1.204369197e+00,9.80669e-07,9.99999e-01,1.04438e-06,9.38993e-01,9.99999e-01
1.210391043e+00,1.58999e-21,9.99999e-01,1.69119e-21,9.40161e-01,9.99999e-01
1.216442998e+00,7.07642e-19,9.99999e-01,7.51764e-19,9.41308e-01,9.99999e-01
1.222525213e+00,1.32046e-18,9.99999e-01,1.40112e-18,9.42433e-01,9.99999e-01
1.228637839e+00,2.54710e-14,9.99999e-01,2.69951e-14,9.43537e-01,9.99999e-01
1.234781029e+00,6.69719e-10,9.99999e-01,7.08981e-10,9.44621e-01,9.99999e-01
1.240954934e+00,1.03007e-06,9.99999e-01,1.08923e-06,9.45685e-01,9.99999e-01
1.247159708e+00,4.28485e-04,9.99999e-01,4.52594e-04,9.46729e-01,9.99999e-01
1.253395507e+00,1.34993e-02,9.99999e-01,1.42435e-02,9.47753e-01,9.99999e-01
1.259662485e+00,8.48705e-02,9.99999e-01,8.94542e-02,9.48758e-01,9.99999e-01
1.265960797e+00,2.34650e-01,9.99999e-01,2.47066e-01,9.49744e-01,9.99999e-01
1.272290601e+00,5.35429e-01,9.99999e-01,5.63187e-01,9.50712e-01,9.99999e-01
1.278652054e+00,4.71312e-01,9.99999e-01,4.95252e-01,9.51662e-01,9.99999e-01
1.285045314e+00,2.69009e-02,9.99999e-01,2.82396e-02,9.52593e-01,9.99999e-01
1.291470541e+00,3.25799e-03,9.99999e-01,3.41685e-03,9.53508e-01,9.99999e-01
1.297927893e+00,6.17093e-02,9.99999e-01,6.46573e-02,9.54405e-01,9.99999e-01
1.304417533e+00,3.37344e-01,9.99999e-01,3.53135e-01,9.55285e-01,9.99999e-01
1.310939621e+00,6.38040e-02,9.99999e-01,6.67302e-02,9.56148e-01,9.99999e-01
1.317494319e+00,7.38370e-08,9.99999e-01,7.71549e-08,9.56996e-01,9.99999e-01
1.324081790e+00,8.91355e-06,9.99999e-01,9.30600e-06,9.57827e-01,9.99999e-01
1.330702199e+00,2.01780e-03,9.99999e-01,2.10485e-03,9.58642e-01,9.99999e-01
1.337355710e+00,1.47647e-03,9.99999e-01,1.53889e-03,9.59443e-01,9.99999e-01
1.344042489e+00,4.91260e-04,9.99999e-01,5.11608e-04,9.60227e-01,9.99999e-01
1.350762701e+00,1.55218e-03,9.99999e-01,1.61518e-03,9.60998e-01,9.99999e-01
1.357516515e+00,1.40425e-02,9.99999e-01,1.46009e-02,9.61753e-01,9.99999e-01
1.364304097e+00,6.90039e-02,9.99999e-01,7.16928e-02,9.62494e-01,9.99999e-01
1.371125618e+00,2.39608e-01,9.99999e-01,2.48757e-01,9.63221e-01,9.99999e-01
1.377981246e+00,3.16580e-01,9.99999e-01,3.28425e-01,9.63934e-01,9.99999e-01
1.384871152e+00,5.04682e-01,9.99999e-01,5.23185e-01,9.64634e-01,9.99999e-01
1.391795508e+00,5.30785e-01,9.99999e-01,5.49853e-01,9.65320e-01,9.99999e-01
1.398754485e+00,6.68792e-01,9.99999e-01,6.92335e-01,9.65993e-01,9.99999e-01
1.405748258e+00,7.37008e-01,9.99999e-01,7.62431e-01,9.66654e-01,9.99999e-01
1.412776999e+00,8.15318e-01,9.99999e-01,8.42878e-01,9.67302e-01,9.99999e-01
1.419840884e+00,7.52969e-01,9.99999e-01,7.77910e-01,9.67937e-01,9.99999e-01
1.426940089e+00,9.95289e-02,9.99999e-01,1.02760e-01,9.68560e-01,9.99999e-01
1.434074789e+00,7.34194e-304,9.99999e-01,7.57548e-304,9.69171e-01,9.99999e-01
1.441245163e+00,0.00000e+00,9.99999e-01,0.00000e+00,9.69771e-01,9.99999e-01
1.448451389e+00,0.00000e+00,9.99999e-01,0.00000e+00,9.70359e-01,9.99999e-01
1.455693646e+00,6.34794e-165,9.99999e-01,6.53795e-165,9.70936e-01,9.99999e-01
1.462972114e+00,1.72257e-80,9.99999e-01,1.77309e-80,9.71502e-01,9.99999e-01
1.470286975e+00,1.92760e-34,9.99999e-01,1.98300e-34,9.72057e-01,9.99999e-01
