#,Wave/freq,Total,O2,CO2,Rayleigh,CIA
4.000000000e-01,2.14072e-08,9.99999e-01,9.99999e-01,2.14072e-08,9.99999e-01
4.020000000e-01,3.03533e-08,9.99999e-01,9.99999e-01,3.03533e-08,9.99999e-01
4.040100000e-01,4.27268e-08,9.99999e-01,9.99999e-01,4.27268e-08,9.99999e-01
4.060300500e-01,5.97397e-08,9.99999e-01,9.99999e-01,5.97397e-08,9.99999e-01
4.080602003e-01,8.29754e-08,9.99999e-01,9.99999e-01,8.29754e-08,9.99999e-01
4.101005013e-01,1.14503e-07,9.99999e-01,9.99999e-01,1.14503e-07,9.99999e-01
4.121510038e-01,1.57009e-07,9.99999e-01,9.99999e-01,1.57009e-07,9.99999e-01
4.142117588e-01,2.13954e-07,9.99999e-01,9.99999e-01,2.13954e-07,9.99999e-01
4.162828176e-01,2.89777e-07,9.99999e-01,9.99999e-01,2.89777e-07,9.99999e-01
4.183642317e-01,3.90125e-07,9.99999e-01,9.99999e-01,3.90125e-07,9.99999e-01
4.204560528e-01,5.22148e-07,9.99999e-01,9.99999e-01,5.22148e-07,9.99999e-01
4.225583331e-01,6.94836e-07,9.99999e-01,9.99999e-01,6.94836e-07,9.99999e-01
4.246711247e-01,9.19434e-07,9.99999e-01,9.99999e-01,9.19434e-07,9.99999e-01
4.267944804e-01,1.20992e-06,9.99999e-01,9.99999e-01,1.20992e-06,9.99999e-01
4.289284528e-01,1.58357e-06,9.99999e-01,9.99999e-01,1.58357e-06,9.99999e-01
4.310730950e-01,2.06162e-06,9.99999e-01,9.99999e-01,2.06162e-06,9.99999e-01
4.332284605e-01,2.67003e-06,9.99999e-01,9.99999e-01,2.67003e-06,9.99999e-01
4.353946028e-01,3.44038e-06,9.99999e-01,9.99999e-01,3.44038e-06,9.99999e-01
4.375715758e-01,4.41085e-06,9.99999e-01,9.99999e-01,4.41085e-06,9.99999e-01
4.397594337e-01,5.62738e-06,9.99999e-01,9.99999e-01,5.62738e-06,9.99999e-01
4.419582309e-01,7.14497e-06,9.99999e-01,9.99999e-01,7.14497e-06,9.99999e-01
4.441680220e-01,9.02914e-06,9.99999e-01,9.99999e-01,9.02914e-06,9.99999e-01
4.463888621e-01,1.13576e-05,9.99999e-01,9.99999e-01,1.13576e-05,9.99999e-01
4.486208064e-01,1.42218e-05,9.99999e-01,9.99999e-01,1.42218e-05,9.99999e-01
4.508639105e-01,1.77295e-05,9.99999e-01,9.99999e-01,1.77295e-05,9.99999e-01
4.531182300e-01,2.20063e-05,9.99999e-01,9.99999e-01,2.20063e-05,9.99999e-01
4.553838212e-01,2.71984e-05,9.99999e-01,9.99999e-01,2.71984e-05,9.99999e-01
4.576607403e-01,3.34751e-05,9.99999e-01,9.99999e-01,3.34751e-05,9.99999e-01
4.599490440e-01,4.10317e-05,9.99999e-01,9.99999e-01,4.10317e-05,9.99999e-01
4.622487892e-01,5.00924e-05,9.99999e-01,9.99999e-01,5.00924e-05,9.99999e-01
4.645600332e-01,6.09132e-05,9.99999e-01,9.99999e-01,6.09132e-05,9.99999e-01
4.668828333e-01,7.37860e-05,9.99999e-01,9.99999e-01,7.37860e-05,9.99999e-01
4.692172475e-01,8.90414e-05,9.99999e-01,9.99999e-01,8.90414e-05,9.99999e-01
4.715633337e-01,1.07053e-04,9.99999e-01,9.99999e-01,1.07053e-04,9.99999e-01
4.739211504e-01,1.28240e-04,9.99999e-01,9.99999e-01,1.28240e-04,9.99999e-01
4.762907561e-01,1.53073e-04,9.99999e-01,9.99999e-01,1.53073e-04,9.99999e-01
4.786722099e-01,1.82078e-04,9.99999e-01,9.99999e-01,1.82078e-04,9.99999e-01
4.810655710e-01,2.15837e-04,9.99999e-01,9.99999e-01,2.15837e-04,9.99999e-01
4.834708988e-01,2.54997e-04,9.99999e-01,9.99999e-01,2.54997e-04,9.99999e-01
4.858882533e-01,3.00273e-04,9.99999e-01,9.99999e-01,3.00273e-04,9.99999e-01
4.883176946e-01,3.52447e-04,9.99999e-01,9.99999e-01,3.52447e-04,9.99999e-01
4.907592831e-01,4.12379e-04,9.99999e-01,9.99999e-01,4.12379e-04,9.99999e-01
4.932130795e-01,4.81009e-04,9.99999e-01,9.99999e-01,4.81009e-04,9.99999e-01
4.956791449e-01,5.59357e-04,9.99999e-01,9.99999e-01,5.59357e-04,9.99999e-01
4.981575406e-01,6.48530e-04,9.99999e-01,9.99999e-01,6.48530e-04,9.99999e-01
5.006483283e-01,7.49726e-04,9.99999e-01,9.99999e-01,7.49726e-04,9.99999e-01
5.031515699e-01,8.64233e-04,9.99999e-01,9.99999e-01,8.64233e-04,9.99999e-01
5.056673278e-01,9.93436e-04,9.99999e-01,9.99999e-01,9.93436e-04,9.99999e-01
5.081956644e-01,1.13882e-03,9.99999e-01,9.99999e-01,1.13882e-03,9.99999e-01
5.107366428e-01,1.30196e-03,9.99999e-01,9.99999e-01,1.30196e-03,9.99999e-01
5.132903260e-01,1.48453e-03,9.99999e-01,9.99999e-01,1.48453e-03,9.99999e-01
5.158567776e-01,1.68833e-03,9.99999e-01,9.99999e-01,1.68833e-03,9.99999e-01
5.184360615e-01,1.91524e-03,9.99999e-01,9.99999e-01,1.91524e-03,9.99999e-01
5.210282418e-01,2.16723e-03,9.99999e-01,9.99999e-01,2.16723e-03,9.99999e-01
5.236333830e-01,2.44640e-03,9.99999e-01,9.99999e-01,2.44640e-03,9.99999e-01
5.262515499e-01,2.75493e-03,9.99999e-01,9.99999e-01,2.75493e-03,9.99999e-01
5.288828077e-01,3.09510e-03,9.99999e-01,9.99999e-01,3.09510e-03,9.99999e-01
5.315272217e-01,3.46929e-03,9.99999e-01,9.99999e-01,3.46929e-03,9.99999e-01
5.341848578e-01,3.87996e-03,9.99999e-01,9.99999e-01,3.87996e-03,9.99999e-01
5.368557821e-01,4.32966e-03,9.99999e-01,9.99999e-01,4.32966e-03,9.99999e-01
5.395400610e-01,4.82102e-03,9.99999e-01,9.99999e-01,4.82102e-03,9.99999e-01
5.422377613e-01,5.35677e-03,9.99999e-01,9.99999e-01,5.35677e-03,9.99999e-01
5.449489501e-01,5.93968e-03,9.99999e-01,9.99999e-01,5.93968e-03,9.99999e-01
5.476736949e-01,6.57259e-03,9.99999e-01,9.99999e-01,6.57259e-03,9.99999e-01
5.504120634e-01,7.25841e-03,9.99999e-01,9.99999e-01,7.25841e-03,9.99999e-01
5.531641237e-01,8.00010e-03,9.99999e-01,9.99999e-01,8.00010e-03,9.99999e-01
5.559299443e-01,8.80064e-03,9.99999e-01,9.99999e-01,8.80064e-03,9.99999e-01
5.587095940e-01,9.66307e-03,9.99999e-01,9.99999e-01,9.66307e-03,9.99999e-01
5.615031420e-01,1.05904e-02,9.99999e-01,9.99999e-01,1.05904e-02,9.99999e-01
5.643106577e-01,1.15858e-02,9.99999e-01,9.99999e-01,1.15858e-02,9.99999e-01
5.671322110e-01,1.26523e-02,9.99999e-01,9.99999e-01,1.26523e-02,9.99999e-01
5.699678720e-01,1.37929e-02,9.99999e-01,9.99999e-01,1.37929e-02,9.99999e-01
5.728177114e-01,1.50108e-02,9.99999e-01,9.99999e-01,1.50108e-02,9.99999e-01
5.756818000e-01,1.63088e-02,9.99999e-01,9.99999e-01,1.63088e-02,9.99999e-01
5.785602090e-01,1.76902e-02,9.99999e-01,9.99999e-01,1.76902e-02,9.99999e-01
5.814530100e-01,1.91577e-02,9.99999e-01,9.99999e-01,1.91577e-02,9.99999e-01
5.843602750e-01,2.07144e-02,9.99999e-01,9.99999e-01,2.07144e-02,9.99999e-01
5.872820764e-01,2.23630e-02,9.99999e-01,9.99999e-01,2.23630e-02,9.99999e-01
5.902184868e-01,2.41063e-02,9.99999e-01,9.99999e-01,2.41063e-02,9.99999e-01
5.931695792e-01,2.59470e-02,9.99999e-01,9.99999e-01,2.59470e-02,9.99999e-01
5.961354271e-01,2.78877e-02,9.99999e-01,9.99999e-01,2.78877e-02,9.99999e-01
5.991161043e-01,2.99309e-02,9.99999e-01,9.99999e-01,2.99309e-02,9.99999e-01
6.021116848e-01,3.20790e-02,9.99999e-01,9.99999e-01,3.20790e-02,9.99999e-01
6.051222432e-01,3.43341e-02,9.99999e-01,9.99999e-01,3.43341e-02,9.99999e-01
6.081478544e-01,3.66986e-02,9.99999e-01,9.99999e-01,3.66986e-02,9.99999e-01
6.111885937e-01,3.91743e-02,9.99999e-01,9.99999e-01,3.91743e-02,9.99999e-01
6.142445367e-01,4.17631e-02,9.99999e-01,9.99999e-01,4.17631e-02,9.99999e-01
6.173157594e-01,4.44668e-02,9.99999e-01,9.99999e-01,4.44668e-02,9.99999e-01
6.204023382e-01,4.72868e-02,9.99999e-01,9.99999e-01,4.72868e-02,9.99999e-01
6.235043498e-01,5.02247e-02,9.99999e-01,9.99999e-01,5.02247e-02,9.99999e-01
6.266218716e-01,5.32816e-02,9.99999e-01,9.99999e-01,5.32816e-02,9.99999e-01
6.297549810e-01,5.64587e-02,9.99999e-01,9.99999e-01,5.64587e-02,9.99999e-01
6.329037559e-01,5.97568e-02,9.99999e-01,9.99999e-01,5.97568e-02,9.99999e-01
6.360682746e-01,6.31766e-02,9.99999e-01,9.99999e-01,6.31766e-02,9.99999e-01
6.392486160e-01,6.67188e-02,9.99999e-01,9.99999e-01,6.67188e-02,9.99999e-01
6.424448591e-01,7.03837e-02,9.99999e-01,9.99999e-01,7.03837e-02,9.99999e-01
6.456570834e-01,7.41716e-02,9.99999e-01,9.99999e-01,7.41716e-02,9.99999e-01
6.488853688e-01,7.80824e-02,9.99999e-01,9.99999e-01,7.80824e-02,9.99999e-01
6.521297956e-01,8.21160e-02,9.99999e-01,9.99999e-01,8.21160e-02,9.99999e-01
6.553904446e-01,8.62722e-02,9.99999e-01,9.99999e-01,8.62722e-02,9.99999e-01
6.586673968e-01,9.05503e-02,9.99999e-01,9.99999e-01,9.05503e-02,9.99999e-01
6.619607338e-01,9.49498e-02,9.99999e-01,9.99999e-01,9.49498e-02,9.99999e-01
6.652705375e-01,9.94697e-02,9.99999e-01,9.99999e-01,9.94697e-02,9.99999e-01
6.685968902e-01,1.04109e-01,9.99999e-01,9.99999e-01,1.04109e-01,9.99999e-01
6.719398746e-01,1.08867e-01,9.99999e-01,9.99999e-01,1.08867e-01,9.99999e-01
6.752995740e-01,1.13742e-01,9.99999e-01,9.99999e-01,1.13742e-01,9.99999e-01
6.786760719e-01,1.18732e-01,9.99999e-01,9.99999e-01,1.18732e-01,9.99999e-01
6.820694522e-01,1.23836e-01,9.99999e-01,9.99999e-01,1.23836e-01,9.99999e-01
6.854797995e-01,1.29052e-01,9.99999e-01,9.99999e-01,1.29052e-01,9.99999e-01
6.889071985e-01,1.34379e-01,9.99999e-01,9.99999e-01,1.34379e-01,9.99999e-01
6.923517345e-01,1.39813e-01,9.99999e-01,9.99999e-01,1.39813e-01,9.99999e-01
6.958134932e-01,1.45353e-01,9.99999e-01,9.99999e-01,1.45353e-01,9.99999e-01
6.992925606e-01,1.50997e-01,9.99999e-01,9.99999e-01,1.50997e-01,9.99999e-01
7.027890234e-01,1.56743e-01,9.99999e-01,9.99999e-01,1.56743e-01,9.99999e-01
7.063029686e-01,1.62586e-01,9.99999e-01,9.99999e-01,1.62586e-01,9.99999e-01
7.098344834e-01,1.68526e-01,9.99999e-01,9.99999e-01,1.68526e-01,9.99999e-01
7.133836558e-01,1.74559e-01,9.99999e-01,9.99999e-01,1.74559e-01,9.99999e-01
7.169505741e-01,1.80682e-01,9.99999e-01,9.99999e-01,1.80682e-01,9.99999e-01
7.205353270e-01,1.86893e-01,9.99999e-01,9.99999e-01,1.86893e-01,9.99999e-01
7.241380036e-01,1.93189e-01,9.99999e-01,9.99999e-01,1.93189e-01,9.99999e-01
7.277586936e-01,1.99565e-01,9.99999e-01,9.99999e-01,1.99565e-01,9.99999e-01
7.313974871e-01,2.06020e-01,9.99999e-01,9.99999e-01,2.06020e-01,9.99999e-01
7.350544745e-01,2.12550e-01,9.99999e-01,9.99999e-01,2.12550e-01,9.99999e-01
7.387297469e-01,2.19152e-01,9.99999e-01,9.99999e-01,2.19152e-01,9.99999e-01
7.424233956e-01,2.25823e-01,9.99999e-01,9.99999e-01,2.25823e-01,9.99999e-01
7.461355126e-01,2.32559e-01,9.99999e-01,9.99999e-01,2.32559e-01,9.99999e-01
7.498661902e-01,2.39357e-01,9.99999e-01,9.99999e-01,2.39357e-01,9.99999e-01
7.536155211e-01,2.46213e-01,9.99999e-01,9.99999e-01,2.46213e-01,9.99999e-01
7.573835987e-01,2.53124e-01,9.99999e-01,9.99999e-01,2.53124e-01,9.99999e-01
7.611705167e-01,2.60088e-01,9.99999e-01,9.99999e-01,2.60088e-01,9.99999e-01
7.649763693e-01,2.67099e-01,9.99999e-01,9.99999e-01,2.67099e-01,9.99999e-01
7.688012511e-01,2.74156e-01,9.99999e-01,9.99999e-01,2.74156e-01,9.99999e-01
7.726452574e-01,2.81254e-01,9.99999e-01,9.99999e-01,2.81254e-01,9.99999e-01
7.765084837e-01,2.88390e-01,9.99999e-01,9.99999e-01,2.88390e-01,9.99999e-01
7.803910261e-01,2.79603e-01,9.99999e-01,9.46008e-01,2.95560e-01,9.99999e-01
7.842929812e-01,2.35324e-01,9.99999e-01,7.77256e-01,3.02763e-01,9.99999e-01
7.882144461e-01,2.36885e-01,9.99999e-01,7.64161e-01,3.09993e-01,9.99999e-01
7.921555184e-01,2.70352e-01,9.99999e-01,8.52177e-01,3.17248e-01,9.99999e-01
7.961162960e-01,2.91505e-01,9.99999e-01,8.98251e-01,3.24525e-01,9.99999e-01
8.000968774e-01,3.13052e-01,9.99999e-01,9.43439e-01,3.31819e-01,9.99999e-01
8.040973618e-01,3.29059e-01,9.99999e-01,9.70306e-01,3.39129e-01,9.99999e-01
8.081178486e-01,3.41684e-01,9.99999e-01,9.86240e-01,3.46451e-01,9.99999e-01
8.121584379e-01,3.52275e-01,9.99999e-01,9.95741e-01,3.53781e-01,9.99999e-01
8.162192301e-01,3.60777e-01,9.99999e-01,9.99058e-01,3.61117e-01,9.99999e-01
8.203003262e-01,3.68451e-01,9.99999e-01,9.99985e-01,3.68456e-01,9.99999e-01
8.244018279e-01,3.75795e-01,9.99999e-01,9.99999e-01,3.75795e-01,9.99999e-01
8.285238370e-01,3.83130e-01,9.99999e-01,9.99999e-01,3.83130e-01,9.99999e-01
8.326664562e-01,3.90460e-01,9.99999e-01,9.99999e-01,3.90460e-01,9.99999e-01
8.368297885e-01,3.97781e-01,9.99999e-01,9.99999e-01,3.97781e-01,9.99999e-01
8.410139374e-01,4.05090e-01,9.99999e-01,9.99999e-01,4.05090e-01,9.99999e-01
8.452190071e-01,4.12386e-01,9.99999e-01,9.99999e-01,4.12386e-01,9.99999e-01
8.494451021e-01,4.19665e-01,9.99999e-01,9.99999e-01,4.19665e-01,9.99999e-01
8.536923276e-01,4.26924e-01,9.99999e-01,9.99999e-01,4.26924e-01,9.99999e-01
8.579607893e-01,4.34163e-01,9.99999e-01,9.99999e-01,4.34163e-01,9.99999e-01
8.622505932e-01,4.41377e-01,9.99999e-01,9.99999e-01,4.41377e-01,9.99999e-01
8.665618462e-01,4.03472e-01,9.99999e-01,8.99472e-01,4.48565e-01,9.99999e-01
8.708946554e-01,2.42226e-01,9.99999e-01,5.31517e-01,4.55725e-01,9.99999e-01
8.752491287e-01,2.76440e-01,9.99999e-01,5.97249e-01,4.62854e-01,9.99999e-01
8.796253743e-01,3.53001e-01,9.99999e-01,7.51142e-01,4.69951e-01,9.99999e-01
8.840235012e-01,4.10826e-01,9.99999e-01,8.61246e-01,4.77013e-01,9.99999e-01
8.884436187e-01,4.56333e-01,9.99999e-01,9.42759e-01,4.84039e-01,9.99999e-01
8.928858368e-01,4.79427e-01,9.99999e-01,9.76377e-01,4.91026e-01,9.99999e-01
8.973502660e-01,4.95096e-01,9.99999e-01,9.94221e-01,4.97973e-01,9.99999e-01
9.018370173e-01,5.04557e-01,9.99999e-01,9.99361e-01,5.04879e-01,9.99999e-01
9.063462024e-01,5.03402e-01,9.99999e-01,9.83705e-01,5.11740e-01,9.99999e-01
9.108779334e-01,4.99369e-01,9.99999e-01,9.62996e-01,5.18557e-01,9.99999e-01
9.154323231e-01,5.20710e-01,9.99999e-01,9.91210e-01,5.25328e-01,9.99999e-01
9.200094847e-01,4.70281e-01,9.99999e-01,8.83904e-01,5.32050e-01,9.99999e-01
9.246095321e-01,4.48082e-01,9.99999e-01,8.31747e-01,5.38723e-01,9.99999e-01
9.292325798e-01,4.72296e-01,9.99999e-01,8.66048e-01,5.45345e-01,9.99999e-01
9.338787427e-01,4.80161e-01,9.99999e-01,8.69989e-01,5.51916e-01,9.99999e-01
9.385481364e-01,5.03952e-01,9.99999e-01,9.02438e-01,5.58434e-01,9.99999e-01
9.432408771e-01,5.30452e-01,9.99999e-01,9.39023e-01,5.64897e-01,9.99999e-01
9.479570815e-01,5.53146e-01,9.99999e-01,9.68212e-01,5.71306e-01,9.99999e-01
9.526968669e-01,5.68740e-01,9.99999e-01,9.84559e-01,5.77659e-01,9.99999e-01
9.574603512e-01,5.80082e-01,9.99999e-01,9.93368e-01,5.83954e-01,9.99999e-01
9.622476530e-01,5.88969e-01,9.99999e-01,9.97927e-01,5.90192e-01,9.99999e-01
9.670588912e-01,5.96001e-01,9.99999e-01,9.99378e-01,5.96371e-01,9.99999e-01
9.718941857e-01,6.02465e-01,9.99999e-01,9.99955e-01,6.02492e-01,9.99999e-01
9.767536566e-01,6.08552e-01,9.99999e-01,9.99999e-01,6.08552e-01,9.99999e-01
9.816374249e-01,6.14551e-01,9.99999e-01,9.99999e-01,6.14551e-01,9.99999e-01
9.865456120e-01,6.20490e-01,9.99999e-01,9.99999e-01,6.20490e-01,9.99999e-01
9.914783401e-01,6.26367e-01,9.99999e-01,9.99999e-01,6.26367e-01,9.99999e-01
9.964357318e-01,6.32181e-01,9.99999e-01,9.99999e-01,6.32181e-01,9.99999e-01
1.001417910e+00,6.37934e-01,9.99999e-01,9.99999e-01,6.37934e-01,9.99999e-01
1.006425000e+00,6.43623e-01,9.99999e-01,9.99999e-01,6.43623e-01,9.99999e-01
1.011457125e+00,6.49250e-01,9.99999e-01,9.99999e-01,6.49250e-01,9.99999e-01
1.016514411e+00,6.54813e-01,9.99999e-01,9.99999e-01,6.54813e-01,9.99999e-01
1.021596983e+00,6.60253e-01,9.99999e-01,9.99910e-01,6.60312e-01,9.99999e-01
1.026704968e+00,6.61477e-01,9.99999e-01,9.93584e-01,6.65748e-01,9.99999e-01
1.031838492e+00,6.27834e-01,9.99999e-01,9.35503e-01,6.71119e-01,9.99999e-01
1.036997685e+00,6.29771e-02,9.99999e-01,9.31025e-02,6.76427e-01,9.99999e-01
1.042182673e+00,2.23542e-02,9.99999e-01,3.27932e-02,6.81670e-01,9.99999e-01
1.047393587e+00,3.66461e-02,9.99999e-01,5.33538e-02,6.86850e-01,9.99999e-01
1.052630555e+00,1.39879e-04,9.99999e-01,2.02147e-04,6.91965e-01,9.99999e-01
1.057893707e+00,4.61137e-04,9.99999e-01,6.61586e-04,6.97016e-01,9.99999e-01
1.063183176e+00,3.01036e-03,9.99999e-01,4.28824e-03,7.02003e-01,9.99999e-01
1.068499092e+00,1.38932e-02,9.99999e-01,1.96530e-02,7.06926e-01,9.99999e-01
1.073841587e+00,5.85926e-02,9.99999e-01,8.23176e-02,7.11786e-01,9.99999e-01
1.079210795e+00,1.47579e-01,9.99999e-01,2.05948e-01,7.16582e-01,9.99999e-01
1.084606849e+00,2.99342e-01,9.99999e-01,4.14994e-01,7.21315e-01,9.99999e-01
1.090029883e+00,4.59068e-01,9.99999e-01,6.32339e-01,7.25984e-01,9.99999e-01
1.095480033e+00,5.82766e-01,9.99999e-01,7.97664e-01,7.30591e-01,9.99999e-01
1.100957433e+00,6.59136e-01,9.99999e-01,8.96619e-01,7.35135e-01,9.99999e-01
1.106462220e+00,7.06977e-01,9.99999e-01,9.55869e-01,7.39616e-01,9.99999e-01
1.111994531e+00,7.31688e-01,9.99999e-01,9.83403e-01,7.44036e-01,9.99999e-01
1.117554504e+00,7.45347e-01,9.99999e-01,9.95928e-01,7.48394e-01,9.99999e-01
1.123142276e+00,7.52490e-01,9.99999e-01,9.99732e-01,7.52691e-01,9.99999e-01
1.128757988e+00,7.56926e-01,9.99999e-01,9.99999e-01,7.56926e-01,9.99999e-01
1.134401778e+00,7.61102e-01,9.99999e-01,9.99999e-01,7.61102e-01,9.99999e-01
1.140073787e+00,7.65217e-01,9.99999e-01,9.99999e-01,7.65217e-01,9.99999e-01
1.145774156e+00,7.69272e-01,9.99999e-01,9.99999e-01,7.69272e-01,9.99999e-01
1.151503026e+00,7.73268e-01,9.99999e-01,9.99999e-01,7.73268e-01,9.99999e-01
1.157260541e+00,7.77206e-01,9.99999e-01,9.99999e-01,7.77206e-01,9.99999e-01
1.163046844e+00,7.81085e-01,9.99999e-01,9.99999e-01,7.81085e-01,9.99999e-01
1.168862078e+00,7.84906e-01,9.99999e-01,9.99999e-01,7.84906e-01,9.99999e-01
1.174706389e+00,7.88670e-01,9.99999e-01,9.99999e-01,7.88670e-01,9.99999e-01
1.180579921e+00,7.92377e-01,9.99999e-01,9.99999e-01,7.92377e-01,9.99999e-01
1.186482820e+00,7.96018e-01,9.99999e-01,9.99987e-01,7.96027e-01,9.99999e-01
1.192415234e+00,7.81643e-01,9.99999e-01,9.77515e-01,7.99622e-01,9.99999e-01
1.198377311e+00,4.37900e-01,9.99999e-01,5.45219e-01,8.03162e-01,9.99999e-01
1.204369197e+00,1.45521e-17,9.99999e-01,1.80403e-17,8.06647e-01,9.99999e-01
1.210391043e+00,4.84696e-68,9.99999e-01,5.98332e-68,8.10078e-01,9.99999e-01
1.216442998e+00,5.14316e-59,9.99999e-01,6.32260e-59,8.13455e-01,9.99999e-01
1.222525213e+00,3.82228e-58,9.99999e-01,4.67969e-58,8.16779e-01,9.99999e-01
1.228637839e+00,5.40272e-45,9.99999e-01,6.58827e-45,8.20051e-01,9.99999e-01
1.234781029e+00,1.98688e-28,9.99999e-01,2.41340e-28,8.23271e-01,9.99999e-01
1.240954934e+00,4.87123e-19,9.99999e-01,5.89423e-19,8.26439e-01,9.99999e-01
1.247159708e+00,9.04178e-10,9.99999e-01,1.08995e-09,8.29557e-01,9.99999e-01
1.253395507e+00,1.61083e-06,9.99999e-01,1.93464e-06,8.32625e-01,9.99999e-01
1.259662485e+00,4.44098e-04,9.99999e-01,5.31444e-04,8.35643e-01,9.99999e-01
1.265960797e+00,1.14988e-02,9.99999e-01,1.37117e-02,8.38611e-01,9.99999e-01
1.272290601e+00,1.26721e-01,9.99999e-01,1.50584e-01,8.41532e-01,9.99999e-01
1.278652054e+00,1.08228e-01,9.99999e-01,1.28170e-01,8.44405e-01,9.99999e-01
1.285045314e+00,7.43241e-04,9.99999e-01,8.77259e-04,8.47230e-01,9.99999e-01
1.291470541e+00,1.57000e-08,9.99999e-01,1.84704e-08,8.50009e-01,9.99999e-01
1.297927893e+00,9.83348e-04,9.99999e-01,1.15316e-03,8.52742e-01,9.99999e-01
1.304417533e+00,2.67382e-02,9.99999e-01,3.12570e-02,8.55429e-01,9.99999e-01
1.310939621e+00,6.22347e-03,9.99999e-01,7.25285e-03,8.58072e-01,9.99999e-01
1.317494319e+00,1.17081e-23,9.99999e-01,1.36034e-23,8.60670e-01,9.99999e-01
1.324081790e+00,7.13521e-16,9.99999e-01,8.26576e-16,8.63225e-01,9.99999e-01
1.330702199e+00,2.03620e-09,9.99999e-01,2.35198e-09,8.65736e-01,9.99999e-01
1.337355710e+00,6.91675e-09,9.99999e-01,7.96672e-09,8.68205e-01,9.99999e-01
1.344042489e+00,2.63142e-09,9.99999e-01,3.02242e-09,8.70632e-01,9.99999e-01
1.350762701e+00,1.13561e-09,9.99999e-01,1.30078e-09,8.73018e-01,9.99999e-01
1.357516515e+00,2.78285e-06,9.99999e-01,3.17908e-06,8.75363e-01,9.99999e-01
1.364304097e+00,1.55855e-04,9.99999e-01,1.77578e-04,8.77667e-01,9.99999e-01
1.371125618e+00,1.03518e-02,9.99999e-01,1.17643e-02,8.79933e-01,9.99999e-01
1.377981246e+00,2.08225e-02,9.99999e-01,2.36040e-02,8.82158e-01,9.99999e-01
1.384871152e+00,9.99128e-02,9.99999e-01,1.12979e-01,8.84346e-01,9.99999e-01
1.391795508e+00,1.18286e-01,9.99999e-01,1.33430e-01,8.86495e-01,9.99999e-01
1.398754485e+00,2.53970e-01,9.99999e-01,2.85806e-01,8.88608e-01,9.99999e-01
1.405748258e+00,3.55682e-01,9.99999e-01,3.99336e-01,8.90683e-01,9.99999e-01
1.412776999e+00,4.99008e-01,9.99999e-01,5.58973e-01,8.92722e-01,9.99999e-01
1.419840884e+00,4.47870e-01,9.99999e-01,5.00566e-01,8.94725e-01,9.99999e-01
1.426940089e+00,2.70337e-02,9.99999e-01,3.01482e-02,8.96693e-01,9.99999e-01
1.434074789e+00,0.00000e+00,9.99999e-01,0.00000e+00,8.98627e-01,9.99999e-01
1.441245163e+00,0.00000e+00,9.99999e-01,0.00000e+00,9.00526e-01,9.99999e-01
1.448451389e+00,0.00000e+00,9.99999e-01,0.00000e+00,9.02392e-01,9.99999e-01
1.455693646e+00,0.00000e+00,9.99999e-01,0.00000e+00,9.04224e-01,9.99999e-01
1.462972114e+00,2.69809e-269,9.99999e-01,2.97794e-269,9.06024e-01,9.99999e-01
1.470286975e+00,3.92250e-112,9.99999e-01,4.32092e-112,9.07792e-01,9.99999e-01
