#,Wave/freq,Total,O2,CO2,Rayleigh,CIA
4.000000000e-01,8.08367e-13,9.99999e-01,9.99999e-01,8.08367e-13,9.99999e-01
4.020000000e-01,1.40189e-12,9.99999e-01,9.99999e-01,1.40189e-12,9.99999e-01
4.040100000e-01,2.40351e-12,9.99999e-01,9.99999e-01,2.40351e-12,9.99999e-01
4.060300500e-01,4.07712e-12,9.99999e-01,9.99999e-01,4.07712e-12,9.99999e-01
4.080602003e-01,6.84427e-12,9.99999e-01,9.99999e-01,6.84427e-12,9.99999e-01
4.101005013e-01,1.13725e-11,9.99999e-01,9.99999e-01,1.13725e-11,9.99999e-01
4.121510038e-01,1.87082e-11,9.99999e-01,9.99999e-01,1.87082e-11,9.99999e-01
4.142117588e-01,3.04744e-11,9.99999e-01,9.99999e-01,3.04744e-11,9.99999e-01
4.162828176e-01,4.91647e-11,9.99999e-01,9.99999e-01,4.91647e-11,9.99999e-01
4.183642317e-01,7.85721e-11,9.99999e-01,9.99999e-01,7.85721e-11,9.99999e-01
4.204560528e-01,1.24412e-10,9.99999e-01,9.99999e-01,1.24412e-10,9.99999e-01
4.225583331e-01,1.95215e-10,9.99999e-01,9.99999e-01,1.95215e-10,9.99999e-01
4.246711247e-01,3.03598e-10,9.99999e-01,9.99999e-01,3.03598e-10,9.99999e-01
4.267944804e-01,4.68056e-10,9.99999e-01,9.99999e-01,4.68056e-10,9.99999e-01
4.289284528e-01,7.15455e-10,9.99999e-01,9.99999e-01,7.15455e-10,9.99999e-01
4.310730950e-01,1.08449e-09,9.99999e-01,9.99999e-01,1.08449e-09,9.99999e-01
4.332284605e-01,1.63044e-09,9.99999e-01,9.99999e-01,1.63044e-09,9.99999e-01
4.353946028e-01,2.43154e-09,9.99999e-01,9.99999e-01,2.43154e-09,9.99999e-01
4.375715758e-01,3.59776e-09,9.99999e-01,9.99999e-01,3.59776e-09,9.99999e-01
4.397594337e-01,5.28228e-09,9.99999e-01,9.99999e-01,5.28228e-09,9.99999e-01
4.419582309e-01,7.69691e-09,9.99999e-01,9.99999e-01,7.69691e-09,9.99999e-01
4.441680220e-01,1.11322e-08,9.99999e-01,9.99999e-01,1.11322e-08,9.99999e-01
4.463888621e-01,1.59839e-08,9.99999e-01,9.99999e-01,1.59839e-08,9.99999e-01
4.486208064e-01,2.27865e-08,9.99999e-01,9.99999e-01,2.27865e-08,9.99999e-01
4.508639105e-01,3.22577e-08,9.99999e-01,9.99999e-01,3.22577e-08,9.99999e-01
4.531182300e-01,4.53530e-08,9.99999e-01,9.99999e-01,4.53530e-08,9.99999e-01
4.553838212e-01,6.33368e-08,9.99999e-01,9.99999e-01,6.33368e-08,9.99999e-01
4.576607403e-01,8.78701e-08,9.99999e-01,9.99999e-01,8.78701e-08,9.99999e-01
4.599490440e-01,1.21121e-07,9.99999e-01,9.99999e-01,1.21121e-07,9.99999e-01
4.622487892e-01,1.65898e-07,9.99999e-01,9.99999e-01,1.65898e-07,9.99999e-01
4.645600332e-01,2.25822e-07,9.99999e-01,9.99999e-01,2.25822e-07,9.99999e-01
4.668828333e-01,3.05524e-07,9.99999e-01,9.99999e-01,3.05524e-07,9.99999e-01
4.692172475e-01,4.10897e-07,9.99999e-01,9.99999e-01,4.10897e-07,9.99999e-01
4.715633337e-01,5.49385e-07,9.99999e-01,9.99999e-01,5.49385e-07,9.99999e-01
4.739211504e-01,7.30348e-07,9.99999e-01,9.99999e-01,7.30348e-07,9.99999e-01
4.762907561e-01,9.65474e-07,9.99999e-01,9.99999e-01,9.65474e-07,9.99999e-01
4.786722099e-01,1.26928e-06,9.99999e-01,9.99999e-01,1.26928e-06,9.99999e-01
4.810655710e-01,1.65969e-06,9.99999e-01,9.99999e-01,1.65969e-06,9.99999e-01
4.834708988e-01,2.15871e-06,9.99999e-01,9.99999e-01,2.15871e-06,9.99999e-01
4.858882533e-01,2.79324e-06,9.99999e-01,9.99999e-01,2.79324e-06,9.99999e-01
4.883176946e-01,3.59593e-06,9.99999e-01,9.99999e-01,3.59593e-06,9.99999e-01
4.907592831e-01,4.60625e-06,9.99999e-01,9.99999e-01,4.60625e-06,9.99999e-01
4.932130795e-01,5.87165e-06,9.99999e-01,9.99999e-01,5.87165e-06,9.99999e-01
4.956791449e-01,7.44886e-06,9.99999e-01,9.99999e-01,7.44886e-06,9.99999e-01
4.981575406e-01,9.40544e-06,9.99999e-01,9.99999e-01,9.40544e-06,9.99999e-01
5.006483283e-01,1.18214e-05,9.99999e-01,9.99999e-01,1.18214e-05,9.99999e-01
5.031515699e-01,1.47909e-05,9.99999e-01,9.99999e-01,1.47909e-05,9.99999e-01
5.056673278e-01,1.84246e-05,9.99999e-01,9.99999e-01,1.84246e-05,9.99999e-01
5.081956644e-01,2.28517e-05,9.99999e-01,9.99999e-01,2.28517e-05,9.99999e-01
5.107366428e-01,2.82223e-05,9.99999e-01,9.99999e-01,2.82223e-05,9.99999e-01
5.132903260e-01,3.47099e-05,9.99999e-01,9.99999e-01,3.47099e-05,9.99999e-01
5.158567776e-01,4.25149e-05,9.99999e-01,9.99999e-01,4.25149e-05,9.99999e-01
5.184360615e-01,5.18666e-05,9.99999e-01,9.99999e-01,5.18666e-05,9.99999e-01
5.210282418e-01,6.30274e-05,9.99999e-01,9.99999e-01,6.30274e-05,9.99999e-01
5.236333830e-01,7.62956e-05,9.99999e-01,9.99999e-01,7.62956e-05,9.99999e-01
5.262515499e-01,9.20090e-05,9.99999e-01,9.99999e-01,9.20090e-05,9.99999e-01
5.288828077e-01,1.10549e-04,9.99999e-01,9.99999e-01,1.10549e-04,9.99999e-01
5.315272217e-01,1.32344e-04,9.99999e-01,9.99999e-01,1.32344e-04,9.99999e-01
5.341848578e-01,1.57874e-04,9.99999e-01,9.99999e-01,1.57874e-04,9.99999e-01
5.368557821e-01,1.87673e-04,9.99999e-01,9.99999e-01,1.87673e-04,9.99999e-01
5.395400610e-01,2.22337e-04,9.99999e-01,9.99999e-01,2.22337e-04,9.99999e-01
5.422377613e-01,2.62523e-04,9.99999e-01,9.99999e-01,2.62523e-04,9.99999e-01
5.449489501e-01,3.08957e-04,9.99999e-01,9.99999e-01,3.08957e-04,9.99999e-01
5.476736949e-01,3.62436e-04,9.99999e-01,9.99999e-01,3.62436e-04,9.99999e-01
5.504120634e-01,4.23833e-04,9.99999e-01,9.99999e-01,4.23833e-04,9.99999e-01
5.531641237e-01,4.94102e-04,9.99999e-01,9.99999e-01,4.94102e-04,9.99999e-01
5.559299443e-01,5.74277e-04,9.99999e-01,9.99999e-01,5.74277e-04,9.99999e-01
5.587095940e-01,6.65483e-04,9.99999e-01,9.99999e-01,6.65483e-04,9.99999e-01
5.615031420e-01,7.68932e-04,9.99999e-01,9.99999e-01,7.68932e-04,9.99999e-01
5.643106577e-01,8.85930e-04,9.99999e-01,9.99999e-01,8.85930e-04,9.99999e-01
5.671322110e-01,1.01788e-03,9.99999e-01,9.99999e-01,1.01788e-03,9.99999e-01
5.699678720e-01,1.16628e-03,9.99999e-01,9.99999e-01,1.16628e-03,9.99999e-01
5.728177114e-01,1.33272e-03,9.99999e-01,9.99999e-01,1.33272e-03,9.99999e-01
5.756818000e-01,1.51891e-03,9.99999e-01,9.99999e-01,1.51891e-03,9.99999e-01
5.785602090e-01,1.72665e-03,9.99999e-01,9.99999e-01,1.72665e-03,9.99999e-01
5.814530100e-01,1.95784e-03,9.99999e-01,9.99999e-01,1.95784e-03,9.99999e-01
5.843602750e-01,2.21447e-03,9.99999e-01,9.99999e-01,2.21447e-03,9.99999e-01
5.872820764e-01,2.49866e-03,9.99999e-01,9.99999e-01,2.49866e-03,9.99999e-01
5.902184868e-01,2.81261e-03,9.99999e-01,9.99999e-01,2.81261e-03,9.99999e-01
5.931695792e-01,3.15861e-03,9.99999e-01,9.99999e-01,3.15861e-03,9.99999e-01
5.961354271e-01,3.53905e-03,9.99999e-01,9.99999e-01,3.53905e-03,9.99999e-01
5.991161043e-01,3.95642e-03,9.99999e-01,9.99999e-01,3.95642e-03,9.99999e-01
6.021116848e-01,4.41328e-03,9.99999e-01,9.99999e-01,4.41328e-03,9.99999e-01
6.051222432e-01,4.91229e-03,9.99999e-01,9.99999e-01,4.91229e-03,9.99999e-01
6.081478544e-01,5.45615e-03,9.99999e-01,9.99999e-01,5.45615e-03,9.99999e-01
6.111885937e-01,6.04768e-03,9.99999e-01,9.99999e-01,6.04768e-03,9.99999e-01
6.142445367e-01,6.68972e-03,9.99999e-01,9.99999e-01,6.68972e-03,9.99999e-01
6.173157594e-01,7.38519e-03,9.99999e-01,9.99999e-01,7.38519e-03,9.99999e-01
6.204023382e-01,8.13704e-03,9.99999e-01,9.99999e-01,8.13704e-03,9.99999e-01
6.235043498e-01,8.94829e-03,9.99999e-01,9.99999e-01,8.94829e-03,9.99999e-01
6.266218716e-01,9.82196e-03,9.99999e-01,9.99999e-01,9.82196e-03,9.99999e-01
6.297549810e-01,1.07611e-02,9.99999e-01,9.99999e-01,1.07611e-02,9.99999e-01
6.329037559e-01,1.17688e-02,9.99999e-01,9.99999e-01,1.17688e-02,9.99999e-01
6.360682746e-01,1.28482e-02,9.99999e-01,9.99999e-01,1.28482e-02,9.99999e-01
6.392486160e-01,1.40022e-02,9.99999e-01,9.99999e-01,1.40022e-02,9.99999e-01
6.424448591e-01,1.52340e-02,9.99999e-01,9.99999e-01,1.52340e-02,9.99999e-01
6.456570834e-01,1.65465e-02,9.99999e-01,9.99999e-01,1.65465e-02,9.99999e-01
6.488853688e-01,1.79429e-02,9.99999e-01,9.99999e-01,1.79429e-02,9.99999e-01
6.521297956e-01,1.94259e-02,9.99999e-01,9.99999e-01,1.94259e-02,9.99999e-01
6.553904446e-01,2.09986e-02,9.99999e-01,9.99999e-01,2.09986e-02,9.99999e-01
6.586673968e-01,2.26637e-02,9.99999e-01,9.99999e-01,2.26637e-02,9.99999e-01
6.619607338e-01,2.44241e-02,9.99999e-01,9.99999e-01,2.44241e-02,9.99999e-01
6.652705375e-01,2.62822e-02,9.99999e-01,9.99999e-01,2.62822e-02,9.99999e-01
6.685968902e-01,2.82409e-02,9.99999e-01,9.99999e-01,2.82409e-02,9.99999e-01
6.719398746e-01,3.03024e-02,9.99999e-01,9.99999e-01,3.03024e-02,9.99999e-01
6.752995740e-01,3.24692e-02,9.99999e-01,9.99999e-01,3.24692e-02,9.99999e-01
6.786760719e-01,3.47435e-02,9.99999e-01,9.99999e-01,3.47435e-02,9.99999e-01
6.820694522e-01,3.71274e-02,9.99999e-01,9.99999e-01,3.71274e-02,9.99999e-01
6.854797995e-01,3.96230e-02,9.99999e-01,9.99999e-01,3.96230e-02,9.99999e-01
6.889071985e-01,4.22319e-02,9.99999e-01,9.99999e-01,4.22319e-02,9.99999e-01
6.923517345e-01,4.49560e-02,9.99999e-01,9.99999e-01,4.49560e-02,9.99999e-01
6.958134932e-01,4.77968e-02,9.99999e-01,9.99999e-01,4.77968e-02,9.99999e-01
6.992925606e-01,5.07556e-02,9.99999e-01,9.99999e-01,5.07556e-02,9.99999e-01
7.027890234e-01,5.38336e-02,9.99999e-01,9.99999e-01,5.38336e-02,9.99999e-01
7.063029686e-01,5.70320e-02,9.99999e-01,9.99999e-01,5.70320e-02,9.99999e-01
7.098344834e-01,6.03515e-02,9.99999e-01,9.99999e-01,6.03515e-02,9.99999e-01
7.133836558e-01,6.37930e-02,9.99999e-01,9.99999e-01,6.37930e-02,9.99999e-01
7.169505741e-01,6.73568e-02,9.99999e-01,9.99999e-01,6.73568e-02,9.99999e-01
7.205353270e-01,7.10434e-02,9.99999e-01,9.99999e-01,7.10434e-02,9.99999e-01
7.241380036e-01,7.48530e-02,9.99999e-01,9.99999e-01,7.48530e-02,9.99999e-01
7.277586936e-01,7.87855e-02,9.99999e-01,9.99999e-01,7.87855e-02,9.99999e-01
7.313974871e-01,8.28408e-02,9.99999e-01,9.99999e-01,8.28408e-02,9.99999e-01
7.350544745e-01,8.70185e-02,9.99999e-01,9.99999e-01,8.70185e-02,9.99999e-01
7.387297469e-01,9.13181e-02,9.99999e-01,9.99999e-01,9.13181e-02,9.99999e-01
7.424233956e-01,9.57389e-02,9.99999e-01,9.99999e-01,9.57389e-02,9.99999e-01
7.461355126e-01,1.00280e-01,9.99999e-01,9.99999e-01,1.00280e-01,9.99999e-01
7.498661902e-01,1.04940e-01,9.99999e-01,9.99999e-01,1.04940e-01,9.99999e-01
7.536155211e-01,1.09719e-01,9.99999e-01,9.99999e-01,1.09719e-01,9.99999e-01
7.573835987e-01,1.14614e-01,9.99999e-01,9.99999e-01,1.14614e-01,9.99999e-01
7.611705167e-01,1.19625e-01,9.99999e-01,9.99999e-01,1.19625e-01,9.99999e-01
7.649763693e-01,1.24749e-01,9.99999e-01,9.99999e-01,1.24749e-01,9.99999e-01
7.688012511e-01,1.29985e-01,9.99999e-01,9.99999e-01,1.29985e-01,9.99999e-01
7.726452574e-01,1.35330e-01,9.99999e-01,9.99999e-01,1.35330e-01,9.99999e-01
7.765084837e-01,1.40783e-01,9.99999e-01,9.99999e-01,1.40783e-01,9.99999e-01
7.803910261e-01,1.35457e-01,9.99999e-01,9.25619e-01,1.46342e-01,9.99999e-01
7.842929812e-01,1.02953e-01,9.99999e-01,6.77305e-01,1.52004e-01,9.99999e-01
7.882144461e-01,1.04706e-01,9.99999e-01,6.63677e-01,1.57767e-01,9.99999e-01
7.921555184e-01,1.27480e-01,9.99999e-01,7.79086e-01,1.63628e-01,9.99999e-01
7.961162960e-01,1.43097e-01,9.99999e-01,8.43808e-01,1.69584e-01,9.99999e-01
8.000968774e-01,1.60187e-01,9.99999e-01,9.12052e-01,1.75633e-01,9.99999e-01
8.040973618e-01,1.73261e-01,9.99999e-01,9.53174e-01,1.81772e-01,9.99999e-01
8.081178486e-01,1.83919e-01,9.99999e-01,9.78301e-01,1.87998e-01,9.99999e-01
8.121584379e-01,1.92986e-01,9.99999e-01,9.93192e-01,1.94308e-01,9.99999e-01
8.162192301e-01,2.00397e-01,9.99999e-01,9.98492e-01,2.00699e-01,9.99999e-01
8.203003262e-01,2.07162e-01,9.99999e-01,9.99974e-01,2.07168e-01,9.99999e-01
8.244018279e-01,2.13711e-01,9.99999e-01,9.99999e-01,2.13711e-01,9.99999e-01
8.285238370e-01,2.20325e-01,9.99999e-01,9.99999e-01,2.20325e-01,9.99999e-01
8.326664562e-01,2.27007e-01,9.99999e-01,9.99999e-01,2.27007e-01,9.99999e-01
8.368297885e-01,2.33754e-01,9.99999e-01,9.99999e-01,2.33754e-01,9.99999e-01
8.410139374e-01,2.40563e-01,9.99999e-01,9.99999e-01,2.40563e-01,9.99999e-01
8.452190071e-01,2.47429e-01,9.99999e-01,9.99999e-01,2.47429e-01,9.99999e-01
8.494451021e-01,2.54350e-01,9.99999e-01,9.99999e-01,2.54350e-01,9.99999e-01
8.536923276e-01,2.61322e-01,9.99999e-01,9.99999e-01,2.61322e-01,9.99999e-01
8.579607893e-01,2.68341e-01,9.99999e-01,9.99999e-01,2.68341e-01,9.99999e-01
8.622505932e-01,2.75405e-01,9.99999e-01,9.99999e-01,2.75405e-01,9.99999e-01
8.665618462e-01,2.48862e-01,9.99999e-01,8.80893e-01,2.82510e-01,9.99999e-01
8.708946554e-01,1.11251e-01,9.99999e-01,3.84083e-01,2.89653e-01,9.99999e-01
8.752491287e-01,1.33875e-01,9.99999e-01,4.51017e-01,2.96830e-01,9.99999e-01
8.796253743e-01,1.94299e-01,9.99999e-01,6.39064e-01,3.04037e-01,9.99999e-01
8.840235012e-01,2.45937e-01,9.99999e-01,7.90102e-01,3.11272e-01,9.99999e-01
8.884436187e-01,2.90025e-01,9.99999e-01,9.10506e-01,3.18531e-01,9.99999e-01
8.928858368e-01,3.13679e-01,9.99999e-01,9.62762e-01,3.25811e-01,9.99999e-01
8.973502660e-01,3.30032e-01,9.99999e-01,9.90764e-01,3.33109e-01,9.99999e-01
9.018370173e-01,3.40072e-01,9.99999e-01,9.98975e-01,3.40421e-01,9.99999e-01
9.063462024e-01,3.39138e-01,9.99999e-01,9.75252e-01,3.47744e-01,9.99999e-01
9.108779334e-01,3.34508e-01,9.99999e-01,9.42075e-01,3.55076e-01,9.99999e-01
9.154323231e-01,3.57322e-01,9.99999e-01,9.85952e-01,3.62413e-01,9.99999e-01
9.200094847e-01,3.08917e-01,9.99999e-01,8.35470e-01,3.69752e-01,9.99999e-01
9.246095321e-01,2.82088e-01,9.99999e-01,7.48064e-01,3.77090e-01,9.99999e-01
9.292325798e-01,3.07871e-01,9.99999e-01,8.00860e-01,3.84425e-01,9.99999e-01
9.338787427e-01,3.14810e-01,9.99999e-01,8.03592e-01,3.91753e-01,9.99999e-01
9.385481364e-01,3.39466e-01,9.99999e-01,8.50639e-01,3.99072e-01,9.99999e-01
9.432408771e-01,3.67771e-01,9.99999e-01,9.04994e-01,4.06379e-01,9.99999e-01
9.479570815e-01,3.93063e-01,9.99999e-01,9.50181e-01,4.13672e-01,9.99999e-01
9.526968669e-01,4.10692e-01,9.99999e-01,9.75637e-01,4.20947e-01,9.99999e-01
9.574603512e-01,4.23706e-01,9.99999e-01,9.89495e-01,4.28204e-01,9.99999e-01
9.622476530e-01,4.34005e-01,9.99999e-01,9.96707e-01,4.35438e-01,9.99999e-01
9.670588912e-01,4.42210e-01,9.99999e-01,9.99010e-01,4.42648e-01,9.99999e-01
9.718941857e-01,4.49799e-01,9.99999e-01,9.99928e-01,4.49831e-01,9.99999e-01
9.767536566e-01,4.56986e-01,9.99999e-01,9.99999e-01,4.56986e-01,9.99999e-01
9.816374249e-01,4.64109e-01,9.99999e-01,9.99999e-01,4.64109e-01,9.99999e-01
9.865456120e-01,4.71200e-01,9.99999e-01,9.99999e-01,4.71200e-01,9.99999e-01
9.914783401e-01,4.78256e-01,9.99999e-01,9.99999e-01,4.78256e-01,9.99999e-01
9.964357318e-01,4.85275e-01,9.99999e-01,9.99999e-01,4.85275e-01,9.99999e-01
1.001417910e+00,4.92255e-01,9.99999e-01,9.99999e-01,4.92255e-01,9.99999e-01
1.006425000e+00,4.99195e-01,9.99999e-01,9.99999e-01,4.99195e-01,9.99999e-01
1.011457125e+00,5.06093e-01,9.99999e-01,9.99999e-01,5.06093e-01,9.99999e-01
1.016514411e+00,5.12947e-01,9.99999e-01,9.99999e-01,5.12947e-01,9.99999e-01
1.021596983e+00,5.19692e-01,9.99999e-01,9.99877e-01,5.19756e-01,9.99999e-01
1.026704968e+00,5.21362e-01,9.99999e-01,9.90207e-01,5.26518e-01,9.99999e-01
1.031838492e+00,4.89733e-01,9.99999e-01,9.18423e-01,5.33231e-01,9.99999e-01
1.036997685e+00,3.31263e-02,9.99999e-01,6.13567e-02,5.39896e-01,9.99999e-01
1.042182673e+00,3.58524e-03,9.99999e-01,6.56025e-03,5.46509e-01,9.99999e-01
1.047393587e+00,8.58620e-03,9.99999e-01,1.55246e-02,5.53070e-01,9.99999e-01
1.052630555e+00,2.84238e-06,9.99999e-01,5.07950e-06,5.59579e-01,9.99999e-01
1.057893707e+00,1.03443e-05,9.99999e-01,1.82752e-05,5.66033e-01,9.99999e-01
1.063183176e+00,1.72904e-04,9.99999e-01,3.02052e-04,5.72431e-01,9.99999e-01
1.068499092e+00,1.40818e-03,9.99999e-01,2.43303e-03,5.78774e-01,9.99999e-01
1.073841587e+00,1.22224e-02,9.99999e-01,2.08908e-02,5.85060e-01,9.99999e-01
1.079210795e+00,5.17732e-02,9.99999e-01,8.75601e-02,5.91287e-01,9.99999e-01
1.084606849e+00,1.50665e-01,9.99999e-01,2.52177e-01,5.97456e-01,9.99999e-01
1.090029883e+00,2.93732e-01,9.99999e-01,4.86660e-01,6.03566e-01,9.99999e-01
1.095480033e+00,4.26807e-01,9.99999e-01,7.00124e-01,6.09615e-01,9.99999e-01
1.100957433e+00,5.18065e-01,9.99999e-01,8.41554e-01,6.15604e-01,9.99999e-01
1.106462220e+00,5.78635e-01,9.99999e-01,9.30982e-01,6.21532e-01,9.99999e-01
1.111994531e+00,6.10970e-01,9.99999e-01,9.73815e-01,6.27397e-01,9.99999e-01
1.117554504e+00,6.29095e-01,9.99999e-01,9.93514e-01,6.33201e-01,9.99999e-01
1.123142276e+00,6.38668e-01,9.99999e-01,9.99570e-01,6.38943e-01,9.99999e-01
1.128757988e+00,6.44621e-01,9.99999e-01,9.99999e-01,6.44621e-01,9.99999e-01
1.134401778e+00,6.50236e-01,9.99999e-01,9.99999e-01,6.50236e-01,9.99999e-01
1.140073787e+00,6.55788e-01,9.99999e-01,9.99999e-01,6.55788e-01,9.99999e-01
1.145774156e+00,6.61276e-01,9.99999e-01,9.99999e-01,6.61276e-01,9.99999e-01
1.151503026e+00,6.66700e-01,9.99999e-01,9.99999e-01,6.66700e-01,9.99999e-01
1.157260541e+00,6.72061e-01,9.99999e-01,9.99999e-01,6.72061e-01,9.99999e-01
1.163046844e+00,6.77357e-01,9.99999e-01,9.99999e-01,6.77357e-01,9.99999e-01
1.168862078e+00,6.82589e-01,9.99999e-01,9.99999e-01,6.82589e-01,9.99999e-01
1.174706389e+00,6.87757e-01,9.99999e-01,9.99999e-01,6.87757e-01,9.99999e-01
1.180579921e+00,6.92861e-01,9.99999e-01,9.99999e-01,6.92861e-01,9.99999e-01
1.186482820e+00,6.97892e-01,9.99999e-01,9.99986e-01,6.97901e-01,9.99999e-01
1.192415234e+00,6.79377e-01,9.99999e-01,9.66565e-01,7.02877e-01,9.99999e-01
1.198377311e+00,3.73275e-01,9.99999e-01,5.27382e-01,7.07789e-01,9.99999e-01
1.204369197e+00,2.18363e-26,9.99999e-01,3.06415e-26,7.12637e-01,9.99999e-01
1.210391043e+00,5.94913e-106,9.99999e-01,8.29237e-106,7.17422e-01,9.99999e-01
1.216442998e+00,1.00372e-91,9.99999e-01,1.38992e-91,7.22143e-01,9.99999e-01
1.222525213e+00,2.36778e-90,9.99999e-01,3.25780e-90,7.26802e-01,9.99999e-01
1.228637839e+00,9.45113e-70,9.99999e-01,1.29220e-69,7.31397e-01,9.99999e-01
1.234781029e+00,1.63466e-43,9.99999e-01,2.22121e-43,7.35930e-01,9.99999e-01
1.240954934e+00,6.14505e-29,9.99999e-01,8.29962e-29,7.40401e-01,9.99999e-01
1.247159708e+00,4.17790e-14,9.99999e-01,5.60935e-14,7.44810e-01,9.99999e-01
1.253395507e+00,1.41083e-09,9.99999e-01,1.88323e-09,7.49157e-01,9.99999e-01
1.259662485e+00,4.29781e-06,9.99999e-01,5.70422e-06,7.53443e-01,9.99999e-01
1.265960797e+00,1.31106e-03,9.99999e-01,1.73039e-03,7.57668e-01,9.99999e-01
1.272290601e+00,3.30962e-02,9.99999e-01,4.34428e-02,7.61832e-01,9.99999e-01
1.278652054e+00,3.73819e-02,9.99999e-01,4.88054e-02,7.65937e-01,9.99999e-01
1.285045314e+00,8.20634e-05,9.99999e-01,1.06578e-04,7.69982e-01,9.99999e-01
1.291470541e+00,1.12897e-12,9.99999e-01,1.45867e-12,7.73967e-01,9.99999e-01
1.297927893e+00,1.10899e-05,9.99999e-01,1.42563e-05,7.77894e-01,9.99999e-01
1.304417533e+00,3.60208e-03,9.99999e-01,4.60763e-03,7.81763e-01,9.99999e-01
1.310939621e+00,9.38535e-04,9.99999e-01,1.19471e-03,7.85574e-01,9.99999e-01
1.317494319e+00,3.39213e-36,9.99999e-01,4.29749e-36,7.89328e-01,9.99999e-01
1.324081790e+00,7.45042e-24,9.99999e-01,9.39493e-24,7.93025e-01,9.99999e-01
1.330702199e+00,3.45311e-14,9.99999e-01,4.33445e-14,7.96666e-01,9.99999e-01
1.337355710e+00,4.44790e-13,9.99999e-01,5.55812e-13,8.00251e-01,9.99999e-01
1.344042489e+00,2.23094e-13,9.99999e-01,2.77555e-13,8.03781e-01,9.99999e-01
1.350762701e+00,1.72760e-14,9.99999e-01,2.14009e-14,8.07257e-01,9.99999e-01
1.357516515e+00,5.41100e-09,9.99999e-01,6.67465e-09,8.10678e-01,9.99999e-01
1.364304097e+00,1.35022e-06,9.99999e-01,1.65865e-06,8.14046e-01,9.99999e-01
1.371125618e+00,9.17091e-04,9.99999e-01,1.12201e-03,8.17361e-01,9.99999e-01
1.377981246e+00,2.38019e-03,9.99999e-01,2.90047e-03,8.20623e-01,9.99999e-01
1.384871152e+00,2.73429e-02,9.99999e-01,3.31898e-02,8.23834e-01,9.99999e-01
1.391795508e+00,3.55736e-02,9.99999e-01,4.30156e-02,8.26993e-01,9.99999e-01
1.398754485e+00,1.15237e-01,9.99999e-01,1.38823e-01,8.30102e-01,9.99999e-01
1.405748258e+00,1.97000e-01,9.99999e-01,2.36449e-01,8.33161e-01,9.99999e-01
1.412776999e+00,3.33892e-01,9.99999e-01,3.99311e-01,8.36170e-01,9.99999e-01
1.419840884e+00,3.13734e-01,9.99999e-01,3.73879e-01,8.39131e-01,9.99999e-01
1.426940089e+00,1.29007e-02,9.99999e-01,1.53207e-02,8.42043e-01,9.99999e-01
1.434074789e+00,0.00000e+00,9.99999e-01,0.00000e+00,8.44907e-01,9.99999e-01
1.441245163e+00,0.00000e+00,9.99999e-01,0.00000e+00,8.47724e-01,9.99999e-01
1.448451389e+00,0.00000e+00,9.99999e-01,0.00000e+00,8.50495e-01,9.99999e-01
1.455693646e+00,0.00000e+00,9.99999e-01,0.00000e+00,8.53220e-01,9.99999e-01
1.462972114e+00,0.00000e+00,9.99999e-01,0.00000e+00,8.55899e-01,9.99999e-01
1.470286975e+00,1.91330e-175,9.99999e-01,2.22856e-175,8.58534e-01,9.99999e-01
