#,Wave/freq,Total,O2,CO2,Rayleigh,CIA
4.000000000e-01,1.29878e-02,9.99999e-01,9.99999e-01,1.29878e-02,9.99999e-01
4.020000000e-01,1.41526e-02,9.99999e-01,9.99999e-01,1.41526e-02,9.99999e-01
4.040100000e-01,1.53944e-02,9.99999e-01,9.99999e-01,1.53944e-02,9.99999e-01
4.060300500e-01,1.67173e-02,9.99999e-01,9.99999e-01,1.67173e-02,9.99999e-01
4.080602003e-01,1.81244e-02,9.99999e-01,9.99999e-01,1.81244e-02,9.99999e-01
4.101005013e-01,1.96185e-02,9.99999e-01,9.99999e-01,1.96185e-02,9.99999e-01
4.121510038e-01,2.12027e-02,9.99999e-01,9.99999e-01,2.12027e-02,9.99999e-01
4.142117588e-01,2.28796e-02,9.99999e-01,9.99999e-01,2.28796e-02,9.99999e-01
4.162828176e-01,2.46521e-02,9.99999e-01,9.99999e-01,2.46521e-02,9.99999e-01
4.183642317e-01,2.65227e-02,9.99999e-01,9.99999e-01,2.65227e-02,9.99999e-01
4.204560528e-01,2.84941e-02,9.99999e-01,9.99999e-01,2.84941e-02,9.99999e-01
4.225583331e-01,3.05688e-02,9.99999e-01,9.99999e-01,3.05688e-02,9.99999e-01
4.246711247e-01,3.27490e-02,9.99999e-01,9.99999e-01,3.27490e-02,9.99999e-01
4.267944804e-01,3.50369e-02,9.99999e-01,9.99999e-01,3.50369e-02,9.99999e-01
4.289284528e-01,3.74348e-02,9.99999e-01,9.99999e-01,3.74348e-02,9.99999e-01
4.310730950e-01,3.99445e-02,9.99999e-01,9.99999e-01,3.99445e-02,9.99999e-01
4.332284605e-01,4.25678e-02,9.99999e-01,9.99999e-01,4.25678e-02,9.99999e-01
4.353946028e-01,4.53065e-02,9.99999e-01,9.99999e-01,4.53065e-02,9.99999e-01
4.375715758e-01,4.81620e-02,9.99999e-01,9.99999e-01,4.81620e-02,9.99999e-01
4.397594337e-01,5.11357e-02,9.99999e-01,9.99999e-01,5.11357e-02,9.99999e-01
4.419582309e-01,5.42288e-02,9.99999e-01,9.99999e-01,5.42288e-02,9.99999e-01
4.441680220e-01,5.74423e-02,9.99999e-01,9.99999e-01,5.74423e-02,9.99999e-01
4.463888621e-01,6.07772e-02,9.99999e-01,9.99999e-01,6.07772e-02,9.99999e-01
4.486208064e-01,6.42339e-02,9.99999e-01,9.99999e-01,6.42339e-02,9.99999e-01
4.508639105e-01,6.78132e-02,9.99999e-01,9.99999e-01,6.78132e-02,9.99999e-01
4.531182300e-01,7.15152e-02,9.99999e-01,9.99999e-01,7.15152e-02,9.99999e-01
4.553838212e-01,7.53402e-02,9.99999e-01,9.99999e-01,7.53402e-02,9.99999e-01
4.576607403e-01,7.92882e-02,9.99999e-01,9.99999e-01,7.92882e-02,9.99999e-01
4.599490440e-01,8.33589e-02,9.99999e-01,9.99999e-01,8.33589e-02,9.99999e-01
4.622487892e-01,8.75519e-02,9.99999e-01,9.99999e-01,8.75519e-02,9.99999e-01
4.645600332e-01,9.18668e-02,9.99999e-01,9.99999e-01,9.18668e-02,9.99999e-01
4.668828333e-01,9.63028e-02,9.99999e-01,9.99999e-01,9.63028e-02,9.99999e-01
4.692172475e-01,1.00859e-01,9.99999e-01,9.99999e-01,1.00859e-01,9.99999e-01
4.715633337e-01,1.05534e-01,9.99999e-01,9.99999e-01,1.05534e-01,9.99999e-01
4.739211504e-01,1.10328e-01,9.99999e-01,9.99999e-01,1.10328e-01,9.99999e-01
4.762907561e-01,1.15237e-01,9.99999e-01,9.99999e-01,1.15237e-01,9.99999e-01
4.786722099e-01,1.20262e-01,9.99999e-01,9.99999e-01,1.20262e-01,9.99999e-01
4.810655710e-01,1.25400e-01,9.99999e-01,9.99999e-01,1.25400e-01,9.99999e-01
4.834708988e-01,1.30650e-01,9.99999e-01,9.99999e-01,1.30650e-01,9.99999e-01
4.858882533e-01,1.36009e-01,9.99999e-01,9.99999e-01,1.36009e-01,9.99999e-01
4.883176946e-01,1.41476e-01,9.99999e-01,9.99999e-01,1.41476e-01,9.99999e-01
4.907592831e-01,1.47048e-01,9.99999e-01,9.99999e-01,1.47048e-01,9.99999e-01
4.932130795e-01,1.52723e-01,9.99999e-01,9.99999e-01,1.52723e-01,9.99999e-01
4.956791449e-01,1.58498e-01,9.99999e-01,9.99999e-01,1.58498e-01,9.99999e-01
4.981575406e-01,1.64371e-01,9.99999e-01,9.99999e-01,1.64371e-01,9.99999e-01
5.006483283e-01,1.70339e-01,9.99999e-01,9.99999e-01,1.70339e-01,9.99999e-01
5.031515699e-01,1.76400e-01,9.99999e-01,9.99999e-01,1.76400e-01,9.99999e-01
5.056673278e-01,1.82550e-01,9.99999e-01,9.99999e-01,1.82550e-01,9.99999e-01
5.081956644e-01,1.88787e-01,9.99999e-01,9.99999e-01,1.88787e-01,9.99999e-01
5.107366428e-01,1.95107e-01,9.99999e-01,9.99999e-01,1.95107e-01,9.99999e-01
5.132903260e-01,2.01508e-01,9.99999e-01,9.99999e-01,2.01508e-01,9.99999e-01
5.158567776e-01,2.07986e-01,9.99999e-01,9.99999e-01,2.07986e-01,9.99999e-01
5.184360615e-01,2.14538e-01,9.99999e-01,9.99999e-01,2.14538e-01,9.99999e-01
5.210282418e-01,2.21161e-01,9.99999e-01,9.99999e-01,2.21161e-01,9.99999e-01
5.236333830e-01,2.27851e-01,9.99999e-01,9.99999e-01,2.27851e-01,9.99999e-01
5.262515499e-01,2.34606e-01,9.99999e-01,9.99999e-01,2.34606e-01,9.99999e-01
5.288828077e-01,2.41422e-01,9.99999e-01,9.99999e-01,2.41422e-01,9.99999e-01
5.315272217e-01,2.48295e-01,9.99999e-01,9.99999e-01,2.48295e-01,9.99999e-01
5.341848578e-01,2.55223e-01,9.99999e-01,9.99999e-01,2.55223e-01,9.99999e-01
5.368557821e-01,2.62201e-01,9.99999e-01,9.99999e-01,2.62201e-01,9.99999e-01
5.395400610e-01,2.69227e-01,9.99999e-01,9.99999e-01,2.69227e-01,9.99999e-01
5.422377613e-01,2.76296e-01,9.99999e-01,9.99999e-01,2.76296e-01,9.99999e-01
5.449489501e-01,2.83406e-01,9.99999e-01,9.99999e-01,2.83406e-01,9.99999e-01
5.476736949e-01,2.90553e-01,9.99999e-01,9.99999e-01,2.90553e-01,9.99999e-01
5.504120634e-01,2.97733e-01,9.99999e-01,9.99999e-01,2.97733e-01,9.99999e-01
5.531641237e-01,3.04944e-01,9.99999e-01,9.99999e-01,3.04944e-01,9.99999e-01
5.559299443e-01,3.12183e-01,9.99999e-01,9.99999e-01,3.12183e-01,9.99999e-01
5.587095940e-01,3.19444e-01,9.99999e-01,9.99999e-01,3.19444e-01,9.99999e-01
5.615031420e-01,3.26727e-01,9.99999e-01,9.99999e-01,3.26727e-01,9.99999e-01
5.643106577e-01,3.34026e-01,9.99999e-01,9.99999e-01,3.34026e-01,9.99999e-01
5.671322110e-01,3.41340e-01,9.99999e-01,9.99999e-01,3.41340e-01,9.99999e-01
5.699678720e-01,3.48665e-01,9.99999e-01,9.99999e-01,3.48665e-01,9.99999e-01
5.728177114e-01,3.55997e-01,9.99999e-01,9.99999e-01,3.55997e-01,9.99999e-01
5.756818000e-01,3.63334e-01,9.99999e-01,9.99999e-01,3.63334e-01,9.99999e-01
5.785602090e-01,3.70674e-01,9.99999e-01,9.99999e-01,3.70674e-01,9.99999e-01
5.814530100e-01,3.78012e-01,9.99999e-01,9.99999e-01,3.78012e-01,9.99999e-01
5.843602750e-01,3.85346e-01,9.99999e-01,9.99999e-01,3.85346e-01,9.99999e-01
5.872820764e-01,3.92673e-01,9.99999e-01,9.99999e-01,3.92673e-01,9.99999e-01
5.902184868e-01,3.99991e-01,9.99999e-01,9.99999e-01,3.99991e-01,9.99999e-01
5.931695792e-01,4.07296e-01,9.99999e-01,9.99999e-01,4.07296e-01,9.99999e-01
5.961354271e-01,4.14587e-01,9.99999e-01,9.99999e-01,4.14587e-01,9.99999e-01
5.991161043e-01,4.21860e-01,9.99999e-01,9.99999e-01,4.21860e-01,9.99999e-01
6.021116848e-01,4.29114e-01,9.99999e-01,9.99999e-01,4.29114e-01,9.99999e-01
6.051222432e-01,4.36345e-01,9.99999e-01,9.99999e-01,4.36345e-01,9.99999e-01
6.081478544e-01,4.43552e-01,9.99999e-01,9.99999e-01,4.43552e-01,9.99999e-01
6.111885937e-01,4.50732e-01,9.99999e-01,9.99999e-01,4.50732e-01,9.99999e-01
6.142445367e-01,4.57882e-01,9.99999e-01,9.99999e-01,4.57882e-01,9.99999e-01
6.173157594e-01,4.65002e-01,9.99999e-01,9.99999e-01,4.65002e-01,9.99999e-01
6.204023382e-01,4.72088e-01,9.99999e-01,9.99999e-01,4.72088e-01,9.99999e-01
6.235043498e-01,4.79140e-01,9.99999e-01,9.99999e-01,4.79140e-01,9.99999e-01
6.266218716e-01,4.86154e-01,9.99999e-01,9.99999e-01,4.86154e-01,9.99999e-01
6.297549810e-01,4.93129e-01,9.99999e-01,9.99999e-01,4.93129e-01,9.99999e-01
6.329037559e-01,5.00064e-01,9.99999e-01,9.99999e-01,5.00064e-01,9.99999e-01
6.360682746e-01,5.06956e-01,9.99999e-01,9.99999e-01,5.06956e-01,9.99999e-01
6.392486160e-01,5.13805e-01,9.99999e-01,9.99999e-01,5.13805e-01,9.99999e-01
6.424448591e-01,5.20608e-01,9.99999e-01,9.99999e-01,5.20608e-01,9.99999e-01
6.456570834e-01,5.27364e-01,9.99999e-01,9.99999e-01,5.27364e-01,9.99999e-01
6.488853688e-01,5.34071e-01,9.99999e-01,9.99999e-01,5.34071e-01,9.99999e-01
6.521297956e-01,5.40729e-01,9.99999e-01,9.99999e-01,5.40729e-01,9.99999e-01
6.553904446e-01,5.47336e-01,9.99999e-01,9.99999e-01,5.47336e-01,9.99999e-01
6.586673968e-01,5.53891e-01,9.99999e-01,9.99999e-01,5.53891e-01,9.99999e-01
6.619607338e-01,5.60392e-01,9.99999e-01,9.99999e-01,5.60392e-01,9.99999e-01
6.652705375e-01,5.66840e-01,9.99999e-01,9.99999e-01,5.66840e-01,9.99999e-01
6.685968902e-01,5.73231e-01,9.99999e-01,9.99999e-01,5.73231e-01,9.99999e-01
6.719398746e-01,5.79567e-01,9.99999e-01,9.99999e-01,5.79567e-01,9.99999e-01
6.752995740e-01,5.85845e-01,9.99999e-01,9.99999e-01,5.85845e-01,9.99999e-01
6.786760719e-01,5.92065e-01,9.99999e-01,9.99999e-01,5.92065e-01,9.99999e-01
6.820694522e-01,5.98227e-01,9.99999e-01,9.99999e-01,5.98227e-01,9.99999e-01
6.854797995e-01,6.04329e-01,9.99999e-01,9.99999e-01,6.04329e-01,9.99999e-01
6.889071985e-01,6.10371e-01,9.99999e-01,9.99999e-01,6.10371e-01,9.99999e-01
6.923517345e-01,6.16352e-01,9.99999e-01,9.99999e-01,6.16352e-01,9.99999e-01
6.958134932e-01,6.22272e-01,9.99999e-01,9.99999e-01,6.22272e-01,9.99999e-01
6.992925606e-01,6.28130e-01,9.99999e-01,9.99999e-01,6.28130e-01,9.99999e-01
7.027890234e-01,6.33926e-01,9.99999e-01,9.99999e-01,6.33926e-01,9.99999e-01
7.063029686e-01,6.39659e-01,9.99999e-01,9.99999e-01,6.39659e-01,9.99999e-01
7.098344834e-01,6.45330e-01,9.99999e-01,9.99999e-01,6.45330e-01,9.99999e-01
7.133836558e-01,6.50937e-01,9.99999e-01,9.99999e-01,6.50937e-01,9.99999e-01
7.169505741e-01,6.56481e-01,9.99999e-01,9.99999e-01,6.56481e-01,9.99999e-01
7.205353270e-01,6.61961e-01,9.99999e-01,9.99999e-01,6.61961e-01,9.99999e-01
7.241380036e-01,6.67377e-01,9.99999e-01,9.99999e-01,6.67377e-01,9.99999e-01
7.277586936e-01,6.72730e-01,9.99999e-01,9.99999e-01,6.72730e-01,9.99999e-01
7.313974871e-01,6.78018e-01,9.99999e-01,9.99999e-01,6.78018e-01,9.99999e-01
7.350544745e-01,6.83242e-01,9.99999e-01,9.99999e-01,6.83242e-01,9.99999e-01
7.387297469e-01,6.88402e-01,9.99999e-01,9.99999e-01,6.88402e-01,9.99999e-01
7.424233956e-01,6.93498e-01,9.99999e-01,9.99999e-01,6.93498e-01,9.99999e-01
7.461355126e-01,6.98530e-01,9.99999e-01,9.99999e-01,6.98530e-01,9.99999e-01
7.498661902e-01,7.03497e-01,9.99999e-01,9.99999e-01,7.03497e-01,9.99999e-01
7.536155211e-01,7.08401e-01,9.99999e-01,9.99999e-01,7.08401e-01,9.99999e-01
7.573835987e-01,7.13242e-01,9.99999e-01,9.99999e-01,7.13242e-01,9.99999e-01
7.611705167e-01,7.18019e-01,9.99999e-01,9.99999e-01,7.18019e-01,9.99999e-01
7.649763693e-01,7.22732e-01,9.99999e-01,9.99999e-01,7.22732e-01,9.99999e-01
7.688012511e-01,7.27383e-01,9.99999e-01,9.99999e-01,7.27383e-01,9.99999e-01
7.726452574e-01,7.31970e-01,9.99999e-01,9.99999e-01,7.31970e-01,9.99999e-01
7.765084837e-01,7.36495e-01,9.99999e-01,9.99999e-01,7.36495e-01,9.99999e-01
7.803910261e-01,7.29466e-01,9.99999e-01,9.84489e-01,7.40958e-01,9.99999e-01
7.842929812e-01,6.98930e-01,9.99999e-01,9.37708e-01,7.45359e-01,9.99999e-01
7.882144461e-01,6.99372e-01,9.99999e-01,9.32870e-01,7.49699e-01,9.99999e-01
7.921555184e-01,7.24539e-01,9.99999e-01,9.60955e-01,7.53977e-01,9.99999e-01
7.961162960e-01,7.38423e-01,9.99999e-01,9.73922e-01,7.58194e-01,9.99999e-01
8.000968774e-01,7.51501e-01,9.99999e-01,9.85767e-01,7.62351e-01,9.99999e-01
8.040973618e-01,7.60799e-01,9.99999e-01,9.92628e-01,7.66448e-01,9.99999e-01
8.081178486e-01,7.67867e-01,9.99999e-01,9.96600e-01,7.70486e-01,9.99999e-01
8.121584379e-01,7.73656e-01,9.99999e-01,9.98956e-01,7.74464e-01,9.99999e-01
8.162192301e-01,7.78204e-01,9.99999e-01,9.99769e-01,7.78384e-01,9.99999e-01
8.203003262e-01,7.82243e-01,9.99999e-01,9.99996e-01,7.82245e-01,9.99999e-01
8.244018279e-01,7.86049e-01,9.99999e-01,9.99999e-01,7.86049e-01,9.99999e-01
8.285238370e-01,7.89796e-01,9.99999e-01,9.99999e-01,7.89796e-01,9.99999e-01
8.326664562e-01,7.93486e-01,9.99999e-01,9.99999e-01,7.93486e-01,9.99999e-01
8.368297885e-01,7.97119e-01,9.99999e-01,9.99999e-01,7.97119e-01,9.99999e-01
8.410139374e-01,8.00698e-01,9.99999e-01,9.99999e-01,8.00698e-01,9.99999e-01
8.452190071e-01,8.04221e-01,9.99999e-01,9.99999e-01,8.04221e-01,9.99999e-01
8.494451021e-01,8.07689e-01,9.99999e-01,9.99999e-01,8.07689e-01,9.99999e-01
8.536923276e-01,8.11104e-01,9.99999e-01,9.99999e-01,8.11104e-01,9.99999e-01
8.579607893e-01,8.14465e-01,9.99999e-01,9.99999e-01,8.14465e-01,9.99999e-01
8.622505932e-01,8.17773e-01,9.99999e-01,9.99999e-01,8.17773e-01,9.99999e-01
8.665618462e-01,7.86529e-01,9.99999e-01,9.57978e-01,8.21029e-01,9.99999e-01
8.708946554e-01,6.97576e-01,9.99999e-01,8.46332e-01,8.24234e-01,9.99999e-01
8.752491287e-01,7.25019e-01,9.99999e-01,8.76275e-01,8.27387e-01,9.99999e-01
8.796253743e-01,7.73093e-01,9.99999e-01,9.30888e-01,8.30489e-01,9.99999e-01
8.840235012e-01,8.03327e-01,9.99999e-01,9.63750e-01,8.33542e-01,9.99999e-01
8.884436187e-01,8.24527e-01,9.99999e-01,9.85633e-01,8.36545e-01,9.99999e-01
8.928858368e-01,8.34589e-01,9.99999e-01,9.94150e-01,8.39499e-01,9.99999e-01
8.973502660e-01,8.41211e-01,9.99999e-01,9.98582e-01,8.42405e-01,9.99999e-01
9.018370173e-01,8.45132e-01,9.99999e-01,9.99843e-01,8.45263e-01,9.99999e-01
9.063462024e-01,8.44583e-01,9.99999e-01,9.95882e-01,8.48075e-01,9.99999e-01
9.108779334e-01,8.42982e-01,9.99999e-01,9.90764e-01,8.50840e-01,9.99999e-01
9.154323231e-01,8.51717e-01,9.99999e-01,9.97841e-01,8.53559e-01,9.99999e-01
9.200094847e-01,8.28167e-01,9.99999e-01,9.67221e-01,8.56233e-01,9.99999e-01
9.246095321e-01,8.20627e-01,9.99999e-01,9.55481e-01,8.58862e-01,9.99999e-01
9.292325798e-01,8.30851e-01,9.99999e-01,9.64483e-01,8.61447e-01,9.99999e-01
9.338787427e-01,8.34631e-01,9.99999e-01,9.66020e-01,8.63988e-01,9.99999e-01
9.385481364e-01,8.44800e-01,9.99999e-01,9.74971e-01,8.66487e-01,9.99999e-01
9.432408771e-01,8.55611e-01,9.99999e-01,9.84656e-01,8.68943e-01,9.99999e-01
9.479570815e-01,8.64466e-01,9.99999e-01,9.92090e-01,8.71357e-01,9.99999e-01
9.526968669e-01,8.70397e-01,9.99999e-01,9.96183e-01,8.73731e-01,9.99999e-01
9.574603512e-01,8.74634e-01,9.99999e-01,9.98368e-01,8.76063e-01,9.99999e-01
9.622476530e-01,8.77909e-01,9.99999e-01,9.99490e-01,8.78356e-01,9.99999e-01
9.670588912e-01,8.80475e-01,9.99999e-01,9.99847e-01,8.80609e-01,9.99999e-01
9.718941857e-01,8.82814e-01,9.99999e-01,9.99988e-01,8.82823e-01,9.99999e-01
9.767536566e-01,8.84999e-01,9.99999e-01,9.99999e-01,8.84999e-01,9.99999e-01
9.816374249e-01,8.87138e-01,9.99999e-01,9.99999e-01,8.87138e-01,9.99999e-01
9.865456120e-01,8.89239e-01,9.99999e-01,9.99999e-01,8.89239e-01,9.99999e-01
9.914783401e-01,8.91303e-01,9.99999e-01,9.99999e-01,8.91303e-01,9.99999e-01
9.964357318e-01,8.93331e-01,9.99999e-01,9.99999e-01,8.93331e-01,9.99999e-01
1.001417910e+00,8.95324e-01,9.99999e-01,9.99999e-01,8.95324e-01,9.99999e-01
1.006425000e+00,8.97281e-01,9.99999e-01,9.99999e-01,8.97281e-01,9.99999e-01
1.011457125e+00,8.99204e-01,9.99999e-01,9.99999e-01,8.99204e-01,9.99999e-01
1.016514411e+00,9.01093e-01,9.99999e-01,9.99999e-01,9.01093e-01,9.99999e-01
1.021596983e+00,9.02927e-01,9.99999e-01,9.99975e-01,9.02949e-01,9.99999e-01
1.026704968e+00,9.03319e-01,9.99999e-01,9.98394e-01,9.04771e-01,9.99999e-01
1.031838492e+00,8.83261e-01,9.99999e-01,9.74297e-01,9.06562e-01,9.99999e-01
1.036997685e+00,2.90565e-01,9.99999e-01,3.19892e-01,9.08320e-01,9.99999e-01
1.042182673e+00,3.57089e-01,9.99999e-01,3.92385e-01,9.10047e-01,9.99999e-01
1.047393587e+00,3.21290e-01,9.99999e-01,3.52390e-01,9.11743e-01,9.99999e-01
1.052630555e+00,6.10896e-02,9.99999e-01,6.68809e-02,9.13408e-01,9.99999e-01
1.057893707e+00,1.10300e-01,9.99999e-01,1.20540e-01,9.15044e-01,9.99999e-01
1.063183176e+00,1.98596e-01,9.99999e-01,2.16654e-01,9.16650e-01,9.99999e-01
1.068499092e+00,3.32273e-01,9.99999e-01,3.61863e-01,9.18227e-01,9.99999e-01
1.073841587e+00,4.85452e-01,9.99999e-01,5.27794e-01,9.19776e-01,9.99999e-01
1.079210795e+00,6.15802e-01,9.99999e-01,6.68408e-01,9.21296e-01,9.99999e-01
1.084606849e+00,7.41035e-01,9.99999e-01,8.03038e-01,9.22789e-01,9.99999e-01
1.090029883e+00,8.25007e-01,9.99999e-01,8.92618e-01,9.24255e-01,9.99999e-01
1.095480033e+00,8.75415e-01,9.99999e-01,9.45684e-01,9.25694e-01,9.99999e-01
1.100957433e+00,9.02527e-01,9.99999e-01,9.73487e-01,9.27107e-01,9.99999e-01
1.106462220e+00,9.18251e-01,9.99999e-01,9.88968e-01,9.28494e-01,9.99999e-01
1.111994531e+00,9.26042e-01,9.99999e-01,9.95898e-01,9.29855e-01,9.99999e-01
1.117554504e+00,9.30262e-01,9.99999e-01,9.99000e-01,9.31192e-01,9.99999e-01
1.123142276e+00,9.32444e-01,9.99999e-01,9.99934e-01,9.32504e-01,9.99999e-01
1.128757988e+00,9.33792e-01,9.99999e-01,9.99999e-01,9.33792e-01,9.99999e-01
1.134401778e+00,9.35057e-01,9.99999e-01,9.99999e-01,9.35057e-01,9.99999e-01
1.140073787e+00,9.36298e-01,9.99999e-01,9.99999e-01,9.36298e-01,9.99999e-01
1.145774156e+00,9.37516e-01,9.99999e-01,9.99999e-01,9.37516e-01,9.99999e-01
1.151503026e+00,9.38711e-01,9.99999e-01,9.99999e-01,9.38711e-01,9.99999e-01
1.157260541e+00,9.39885e-01,9.99999e-01,9.99999e-01,9.39885e-01,9.99999e-01
1.163046844e+00,9.41036e-01,9.99999e-01,9.99999e-01,9.41036e-01,9.99999e-01
1.168862078e+00,9.42167e-01,9.99999e-01,9.99999e-01,9.42167e-01,9.99999e-01
1.174706389e+00,9.43276e-01,9.99999e-01,9.99999e-01,9.43276e-01,9.99999e-01
1.180579921e+00,9.44365e-01,9.99999e-01,9.99999e-01,9.44365e-01,9.99999e-01
1.186482820e+00,9.45430e-01,9.99999e-01,9.99996e-01,9.45433e-01,9.99999e-01
1.192415234e+00,9.41001e-01,9.99999e-01,9.94208e-01,9.46482e-01,9.99999e-01
1.198377311e+00,5.60692e-01,9.99999e-01,5.91752e-01,9.47510e-01,9.99999e-01
1.204369197e+00,5.16730e-06,9.99999e-01,5.44775e-06,9.48520e-01,9.99999e-01
1.210391043e+00,1.95992e-18,9.99999e-01,2.06413e-18,9.49511e-01,9.99999e-01
1.216442998e+00,3.34111e-16,9.99999e-01,3.51517e-16,9.50483e-01,9.99999e-01
1.222525213e+00,5.86170e-16,9.99999e-01,6.16088e-16,9.51437e-01,9.99999e-01
1.228637839e+00,3.01728e-12,9.99999e-01,3.16817e-12,9.52373e-01,9.99999e-01
1.234781029e+00,1.20166e-08,9.99999e-01,1.26054e-08,9.53291e-01,9.99999e-01
1.240954934e+00,7.29721e-06,9.99999e-01,7.64752e-06,9.54192e-01,9.99999e-01
1.247159708e+00,1.28084e-03,9.99999e-01,1.34108e-03,9.55076e-01,9.99999e-01
1.253395507e+00,2.58449e-02,9.99999e-01,2.70360e-02,9.55944e-01,9.99999e-01
1.259662485e+00,1.23954e-01,9.99999e-01,1.29551e-01,9.56795e-01,9.99999e-01
1.265960797e+00,2.93581e-01,9.99999e-01,3.06571e-01,9.57630e-01,9.99999e-01
1.272290601e+00,5.91194e-01,9.99999e-01,6.16823e-01,9.58449e-01,9.99999e-01
1.278652054e+00,5.25880e-01,9.99999e-01,5.48217e-01,9.59253e-01,9.99999e-01
1.285045314e+00,3.90484e-02,9.99999e-01,4.06736e-02,9.60042e-01,9.99999e-01
1.291470541e+00,7.74832e-03,9.99999e-01,8.06431e-03,9.60815e-01,9.99999e-01
1.297927893e+00,8.95047e-02,9.99999e-01,9.30813e-02,9.61574e-01,9.99999e-01
1.304417533e+00,4.00952e-01,9.99999e-01,4.16652e-01,9.62319e-01,9.99999e-01
1.310939621e+00,7.93192e-02,9.99999e-01,8.23625e-02,9.63049e-01,9.99999e-01
1.317494319e+00,9.14144e-07,9.99999e-01,9.48512e-07,9.63765e-01,9.99999e-01
1.324081790e+00,4.56610e-05,9.99999e-01,4.73431e-05,9.64468e-01,9.99999e-01
1.330702199e+00,5.23000e-03,9.99999e-01,5.41880e-03,9.65158e-01,9.99999e-01
1.337355710e+00,3.59869e-03,9.99999e-01,3.72598e-03,9.65834e-01,9.99999e-01
1.344042489e+00,1.33067e-03,9.99999e-01,1.37680e-03,9.66497e-01,9.99999e-01
1.350762701e+00,4.21669e-03,9.99999e-01,4.35992e-03,9.67148e-01,9.99999e-01
1.357516515e+00,2.67520e-02,9.99999e-01,2.76424e-02,9.67787e-01,9.99999e-01
1.364304097e+00,1.05215e-01,9.99999e-01,1.08647e-01,9.68413e-01,9.99999e-01
1.371125618e+00,2.99391e-01,9.99999e-01,3.08960e-01,9.69027e-01,9.99999e-01
1.377981246e+00,3.80425e-01,9.99999e-01,3.92340e-01,9.69629e-01,9.99999e-01
1.384871152e+00,5.62976e-01,9.99999e-01,5.80255e-01,9.70220e-01,9.99999e-01
1.391795508e+00,5.87364e-01,9.99999e-01,6.05031e-01,9.70800e-01,9.99999e-01
1.398754485e+00,7.13383e-01,9.99999e-01,7.34410e-01,9.71368e-01,9.99999e-01
1.405748258e+00,7.73935e-01,9.99999e-01,7.96290e-01,9.71926e-01,9.99999e-01
1.412776999e+00,8.42482e-01,9.99999e-01,8.66329e-01,9.72472e-01,9.99999e-01
1.419840884e+00,7.84317e-01,9.99999e-01,8.06073e-01,9.73009e-01,9.99999e-01
1.426940089e+00,1.10246e-01,9.99999e-01,1.13243e-01,9.73535e-01,9.99999e-01
1.434074789e+00,1.69323e-255,9.99999e-01,1.73834e-255,9.74051e-01,9.99999e-01
1.441245163e+00,0.00000e+00,9.99999e-01,0.00000e+00,9.74557e-01,9.99999e-01
1.448451389e+00,9.99161e-310,9.99999e-01,1.02472e-309,9.75053e-01,9.99999e-01
1.455693646e+00,7.71155e-139,9.99999e-01,7.90490e-139,9.75539e-01,9.99999e-01
1.462972114e+00,6.05653e-68,9.99999e-01,6.20535e-68,9.76017e-01,9.99999e-01
1.470286975e+00,2.82872e-29,9.99999e-01,2.89683e-29,9.76485e-01,9.99999e-01
