#,Wave/freq,Total,O2,CO2,Rayleigh,CIA
4.000000000e-01,1.42821e-08,9.99999e-01,9.99999e-01,1.42821e-08,9.99999e-01
4.020000000e-01,2.04133e-08,9.99999e-01,9.99999e-01,2.04133e-08,9.99999e-01
4.040100000e-01,2.89608e-08,9.99999e-01,9.99999e-01,2.89608e-08,9.99999e-01
4.060300500e-01,4.08046e-08,9.99999e-01,9.99999e-01,4.08046e-08,9.99999e-01
4.080602003e-01,5.71039e-08,9.99999e-01,9.99999e-01,5.71039e-08,9.99999e-01
4.101005013e-01,7.93852e-08,9.99999e-01,9.99999e-01,7.93852e-08,9.99999e-01
4.121510038e-01,1.09645e-07,9.99999e-01,9.99999e-01,1.09645e-07,9.99999e-01
4.142117588e-01,1.50475e-07,9.99999e-01,9.99999e-01,1.50475e-07,9.99999e-01
4.162828176e-01,2.05223e-07,9.99999e-01,9.99999e-01,2.05223e-07,9.99999e-01
4.183642317e-01,2.78181e-07,9.99999e-01,9.99999e-01,2.78181e-07,9.99999e-01
4.204560528e-01,3.74816e-07,9.99999e-01,9.99999e-01,3.74816e-07,9.99999e-01
4.225583331e-01,5.02054e-07,9.99999e-01,9.99999e-01,5.02054e-07,9.99999e-01
4.246711247e-01,6.68616e-07,9.99999e-01,9.99999e-01,6.68616e-07,9.99999e-01
4.267944804e-01,8.85410e-07,9.99999e-01,9.99999e-01,8.85410e-07,9.99999e-01
4.289284528e-01,1.16601e-06,9.99999e-01,9.99999e-01,1.16601e-06,9.99999e-01
4.310730950e-01,1.52722e-06,9.99999e-01,9.99999e-01,1.52722e-06,9.99999e-01
4.332284605e-01,1.98968e-06,9.99999e-01,9.99999e-01,1.98968e-06,9.99999e-01
4.353946028e-01,2.57867e-06,9.99999e-01,9.99999e-01,2.57867e-06,9.99999e-01
4.375715758e-01,3.32495e-06,9.99999e-01,9.99999e-01,3.32495e-06,9.99999e-01
4.397594337e-01,4.26573e-06,9.99999e-01,9.99999e-01,4.26573e-06,9.99999e-01
4.419582309e-01,5.44583e-06,9.99999e-01,9.99999e-01,5.44583e-06,9.99999e-01
4.441680220e-01,6.91895e-06,9.99999e-01,9.99999e-01,6.91895e-06,9.99999e-01
4.463888621e-01,8.74907e-06,9.99999e-01,9.99999e-01,8.74907e-06,9.99999e-01
4.486208064e-01,1.10121e-05,9.99999e-01,9.99999e-01,1.10121e-05,9.99999e-01
4.508639105e-01,1.37977e-05,9.99999e-01,9.99999e-01,1.37977e-05,9.99999e-01
4.531182300e-01,1.72110e-05,9.99999e-01,9.99999e-01,1.72110e-05,9.99999e-01
4.553838212e-01,2.13753e-05,9.99999e-01,9.99999e-01,2.13753e-05,9.99999e-01
4.576607403e-01,2.64337e-05,9.99999e-01,9.99999e-01,2.64337e-05,9.99999e-01
4.599490440e-01,3.25523e-05,9.99999e-01,9.99999e-01,3.25523e-05,9.99999e-01
4.622487892e-01,3.99226e-05,9.99999e-01,9.99999e-01,3.99226e-05,9.99999e-01
4.645600332e-01,4.87647e-05,9.99999e-01,9.99999e-01,4.87647e-05,9.99999e-01
4.668828333e-01,5.93303e-05,9.99999e-01,9.99999e-01,5.93303e-05,9.99999e-01
4.692172475e-01,7.19059e-05,9.99999e-01,9.99999e-01,7.19059e-05,9.99999e-01
4.715633337e-01,8.68168e-05,9.99999e-01,9.99999e-01,8.68168e-05,9.99999e-01
4.739211504e-01,1.04430e-04,9.99999e-01,9.99999e-01,1.04430e-04,9.99999e-01
4.762907561e-01,1.25160e-04,9.99999e-01,9.99999e-01,1.25160e-04,9.99999e-01
4.786722099e-01,1.49468e-04,9.99999e-01,9.99999e-01,1.49468e-04,9.99999e-01
4.810655710e-01,1.77873e-04,9.99999e-01,9.99999e-01,1.77873e-04,9.99999e-01
4.834708988e-01,2.10951e-04,9.99999e-01,9.99999e-01,2.10951e-04,9.99999e-01
4.858882533e-01,2.49337e-04,9.99999e-01,9.99999e-01,2.49337e-04,9.99999e-01
4.883176946e-01,2.93738e-04,9.99999e-01,9.99999e-01,2.93738e-04,9.99999e-01
4.907592831e-01,3.44926e-04,9.99999e-01,9.99999e-01,3.44926e-04,9.99999e-01
4.932130795e-01,4.03752e-04,9.99999e-01,9.99999e-01,4.03752e-04,9.99999e-01
4.956791449e-01,4.71143e-04,9.99999e-01,9.99999e-01,4.71143e-04,9.99999e-01
4.981575406e-01,5.48108e-04,9.99999e-01,9.99999e-01,5.48108e-04,9.99999e-01
5.006483283e-01,6.35743e-04,9.99999e-01,9.99999e-01,6.35743e-04,9.99999e-01
5.031515699e-01,7.35232e-04,9.99999e-01,9.99999e-01,7.35232e-04,9.99999e-01
5.056673278e-01,8.47852e-04,9.99999e-01,9.99999e-01,8.47852e-04,9.99999e-01
5.081956644e-01,9.74975e-04,9.99999e-01,9.99999e-01,9.74975e-04,9.99999e-01
5.107366428e-01,1.11807e-03,9.99999e-01,9.99999e-01,1.11807e-03,9.99999e-01
5.132903260e-01,1.27870e-03,9.99999e-01,9.99999e-01,1.27870e-03,9.99999e-01
5.158567776e-01,1.45854e-03,9.99999e-01,9.99999e-01,1.45854e-03,9.99999e-01
5.184360615e-01,1.65934e-03,9.99999e-01,9.99999e-01,1.65934e-03,9.99999e-01
5.210282418e-01,1.88300e-03,9.99999e-01,9.99999e-01,1.88300e-03,9.99999e-01
5.236333830e-01,2.13146e-03,9.99999e-01,9.99999e-01,2.13146e-03,9.99999e-01
5.262515499e-01,2.40682e-03,9.99999e-01,9.99999e-01,2.40682e-03,9.99999e-01
5.288828077e-01,2.71123e-03,9.99999e-01,9.99999e-01,2.71123e-03,9.99999e-01
5.315272217e-01,3.04697e-03,9.99999e-01,9.99999e-01,3.04697e-03,9.99999e-01
5.341848578e-01,3.41639e-03,9.99999e-01,9.99999e-01,3.41639e-03,9.99999e-01
5.368557821e-01,3.82196e-03,9.99999e-01,9.99999e-01,3.82196e-03,9.99999e-01
5.395400610e-01,4.26620e-03,9.99999e-01,9.99999e-01,4.26620e-03,9.99999e-01
5.422377613e-01,4.75176e-03,9.99999e-01,9.99999e-01,4.75176e-03,9.99999e-01
5.449489501e-01,5.28131e-03,9.99999e-01,9.99999e-01,5.28131e-03,9.99999e-01
5.476736949e-01,5.85765e-03,9.99999e-01,9.99999e-01,5.85765e-03,9.99999e-01
5.504120634e-01,6.48360e-03,9.99999e-01,9.99999e-01,6.48360e-03,9.99999e-01
5.531641237e-01,7.16207e-03,9.99999e-01,9.99999e-01,7.16207e-03,9.99999e-01
5.559299443e-01,7.89599e-03,9.99999e-01,9.99999e-01,7.89599e-03,9.99999e-01
5.587095940e-01,8.68837e-03,9.99999e-01,9.99999e-01,8.68837e-03,9.99999e-01
5.615031420e-01,9.54222e-03,9.99999e-01,9.99999e-01,9.54222e-03,9.99999e-01
5.643106577e-01,1.04606e-02,9.99999e-01,9.99999e-01,1.04606e-02,9.99999e-01
5.671322110e-01,1.14466e-02,9.99999e-01,9.99999e-01,1.14466e-02,9.99999e-01
5.699678720e-01,1.25032e-02,9.99999e-01,9.99999e-01,1.25032e-02,9.99999e-01
5.728177114e-01,1.36336e-02,9.99999e-01,9.99999e-01,1.36336e-02,9.99999e-01
5.756818000e-01,1.48407e-02,9.99999e-01,9.99999e-01,1.48407e-02,9.99999e-01
5.785602090e-01,1.61277e-02,9.99999e-01,9.99999e-01,1.61277e-02,9.99999e-01
5.814530100e-01,1.74976e-02,9.99999e-01,9.99999e-01,1.74976e-02,9.99999e-01
5.843602750e-01,1.89533e-02,9.99999e-01,9.99999e-01,1.89533e-02,9.99999e-01
5.872820764e-01,2.04977e-02,9.99999e-01,9.99999e-01,2.04977e-02,9.99999e-01
5.902184868e-01,2.21336e-02,9.99999e-01,9.99999e-01,2.21336e-02,9.99999e-01
5.931695792e-01,2.38639e-02,9.99999e-01,9.99999e-01,2.38639e-02,9.99999e-01
5.961354271e-01,2.56912e-02,9.99999e-01,9.99999e-01,2.56912e-02,9.99999e-01
5.991161043e-01,2.76182e-02,9.99999e-01,9.99999e-01,2.76182e-02,9.99999e-01
6.021116848e-01,2.96474e-02,9.99999e-01,9.99999e-01,2.96474e-02,9.99999e-01
6.051222432e-01,3.17810e-02,9.99999e-01,9.99999e-01,3.17810e-02,9.99999e-01
6.081478544e-01,3.40215e-02,9.99999e-01,9.99999e-01,3.40215e-02,9.99999e-01
6.111885937e-01,3.63710e-02,9.99999e-01,9.99999e-01,3.63710e-02,9.99999e-01
6.142445367e-01,3.88315e-02,9.99999e-01,9.99999e-01,3.88315e-02,9.99999e-01
6.173157594e-01,4.14048e-02,9.99999e-01,9.99999e-01,4.14048e-02,9.99999e-01
6.204023382e-01,4.40928e-02,9.99999e-01,9.99999e-01,4.40928e-02,9.99999e-01
6.235043498e-01,4.68970e-02,9.99999e-01,9.99999e-01,4.68970e-02,9.99999e-01
6.266218716e-01,4.98188e-02,9.99999e-01,9.99999e-01,4.98188e-02,9.99999e-01
6.297549810e-01,5.28595e-02,9.99999e-01,9.99999e-01,5.28595e-02,9.99999e-01
6.329037559e-01,5.60201e-02,9.99999e-01,9.99999e-01,5.60201e-02,9.99999e-01
6.360682746e-01,5.93018e-02,9.99999e-01,9.99999e-01,5.93018e-02,9.99999e-01
6.392486160e-01,6.27050e-02,9.99999e-01,9.99999e-01,6.27050e-02,9.99999e-01
6.424448591e-01,6.62306e-02,9.99999e-01,9.99999e-01,6.62306e-02,9.99999e-01
6.456570834e-01,6.98788e-02,9.99999e-01,9.99999e-01,6.98788e-02,9.99999e-01
6.488853688e-01,7.36500e-02,9.99999e-01,9.99999e-01,7.36500e-02,9.99999e-01
6.521297956e-01,7.75441e-02,9.99999e-01,9.99999e-01,7.75441e-02,9.99999e-01
6.553904446e-01,8.15611e-02,9.99999e-01,9.99999e-01,8.15611e-02,9.99999e-01
6.586673968e-01,8.57006e-02,9.99999e-01,9.99999e-01,8.57006e-02,9.99999e-01
6.619607338e-01,8.99622e-02,9.99999e-01,9.99999e-01,8.99622e-02,9.99999e-01
6.652705375e-01,9.43453e-02,9.99999e-01,9.99999e-01,9.43453e-02,9.99999e-01
6.685968902e-01,9.88489e-02,9.99999e-01,9.99999e-01,9.88489e-02,9.99999e-01
6.719398746e-01,1.03472e-01,9.99999e-01,9.99999e-01,1.03472e-01,9.99999e-01
6.752995740e-01,1.08214e-01,9.99999e-01,9.99999e-01,1.08214e-01,9.99999e-01
6.786760719e-01,1.13073e-01,9.99999e-01,9.99999e-01,1.13073e-01,9.99999e-01
6.820694522e-01,1.18048e-01,9.99999e-01,9.99999e-01,1.18048e-01,9.99999e-01
6.854797995e-01,1.23136e-01,9.99999e-01,9.99999e-01,1.23136e-01,9.99999e-01
6.889071985e-01,1.28337e-01,9.99999e-01,9.99999e-01,1.28337e-01,9.99999e-01
6.923517345e-01,1.33649e-01,9.99999e-01,9.99999e-01,1.33649e-01,9.99999e-01
6.958134932e-01,1.39069e-01,9.99999e-01,9.99999e-01,1.39069e-01,9.99999e-01
6.992925606e-01,1.44595e-01,9.99999e-01,9.99999e-01,1.44595e-01,9.99999e-01
7.027890234e-01,1.50225e-01,9.99999e-01,9.99999e-01,1.50225e-01,9.99999e-01
7.063029686e-01,1.55957e-01,9.99999e-01,9.99999e-01,1.55957e-01,9.99999e-01
7.098344834e-01,1.61787e-01,9.99999e-01,9.99999e-01,1.61787e-01,9.99999e-01
7.133836558e-01,1.67714e-01,9.99999e-01,9.99999e-01,1.67714e-01,9.99999e-01
7.169505741e-01,1.73734e-01,9.99999e-01,9.99999e-01,1.73734e-01,9.99999e-01
7.205353270e-01,1.79846e-01,9.99999e-01,9.99999e-01,1.79846e-01,9.99999e-01
7.241380036e-01,1.86045e-01,9.99999e-01,9.99999e-01,1.86045e-01,9.99999e-01
7.277586936e-01,1.92329e-01,9.99999e-01,9.99999e-01,1.92329e-01,9.99999e-01
7.313974871e-01,1.98695e-01,9.99999e-01,9.99999e-01,1.98695e-01,9.99999e-01
7.350544745e-01,2.05139e-01,9.99999e-01,9.99999e-01,2.05139e-01,9.99999e-01
7.387297469e-01,2.11659e-01,9.99999e-01,9.99999e-01,2.11659e-01,9.99999e-01
7.424233956e-01,2.18252e-01,9.99999e-01,9.99999e-01,2.18252e-01,9.99999e-01
7.461355126e-01,2.24913e-01,9.99999e-01,9.99999e-01,2.24913e-01,9.99999e-01
7.498661902e-01,2.31640e-01,9.99999e-01,9.99999e-01,2.31640e-01,9.99999e-01
7.536155211e-01,2.38430e-01,9.99999e-01,9.99999e-01,2.38430e-01,9.99999e-01
7.573835987e-01,2.45279e-01,9.99999e-01,9.99999e-01,2.45279e-01,9.99999e-01
7.611705167e-01,2.52183e-01,9.99999e-01,9.99999e-01,2.52183e-01,9.99999e-01
7.649763693e-01,2.59139e-01,9.99999e-01,9.99999e-01,2.59139e-01,9.99999e-01
7.688012511e-01,2.66144e-01,9.99999e-01,9.99999e-01,2.66144e-01,9.99999e-01
7.726452574e-01,2.73195e-01,9.99999e-01,9.99999e-01,2.73195e-01,9.99999e-01
7.765084837e-01,2.80287e-01,9.99999e-01,9.99999e-01,2.80287e-01,9.99999e-01
7.803910261e-01,2.71485e-01,9.99999e-01,9.44563e-01,2.87418e-01,9.99999e-01
7.842929812e-01,2.27772e-01,9.99999e-01,7.73195e-01,2.94585e-01,9.99999e-01
7.882144461e-01,2.29263e-01,9.99999e-01,7.59693e-01,3.01783e-01,9.99999e-01
7.921555184e-01,2.62367e-01,9.99999e-01,8.49056e-01,3.09010e-01,9.99999e-01
7.961162960e-01,2.83423e-01,9.99999e-01,8.96165e-01,3.16261e-01,9.99999e-01
8.000968774e-01,3.04844e-01,9.99999e-01,9.42226e-01,3.23535e-01,9.99999e-01
8.040973618e-01,3.20798e-01,9.99999e-01,9.69682e-01,3.30828e-01,9.99999e-01
8.081178486e-01,3.33381e-01,9.99999e-01,9.85937e-01,3.38136e-01,9.99999e-01
8.121584379e-01,3.43955e-01,9.99999e-01,9.95654e-01,3.45456e-01,9.99999e-01
8.162192301e-01,3.52446e-01,9.99999e-01,9.99038e-01,3.52785e-01,9.99999e-01
8.203003262e-01,3.60116e-01,9.99999e-01,9.99985e-01,3.60121e-01,9.99999e-01
8.244018279e-01,3.67459e-01,9.99999e-01,9.99999e-01,3.67459e-01,9.99999e-01
8.285238370e-01,3.74798e-01,9.99999e-01,9.99999e-01,3.74798e-01,9.99999e-01
8.326664562e-01,3.82134e-01,9.99999e-01,9.99999e-01,3.82134e-01,9.99999e-01
8.368297885e-01,3.89465e-01,9.99999e-01,9.99999e-01,3.89465e-01,9.99999e-01
8.410139374e-01,3.96787e-01,9.99999e-01,9.99999e-01,3.96787e-01,9.99999e-01
8.452190071e-01,4.04098e-01,9.99999e-01,9.99999e-01,4.04098e-01,9.99999e-01
8.494451021e-01,4.11396e-01,9.99999e-01,9.99999e-01,4.11396e-01,9.99999e-01
8.536923276e-01,4.18677e-01,9.99999e-01,9.99999e-01,4.18677e-01,9.99999e-01
8.579607893e-01,4.25940e-01,9.99999e-01,9.99999e-01,4.25940e-01,9.99999e-01
8.622505932e-01,4.33181e-01,9.99999e-01,9.99999e-01,4.33181e-01,9.99999e-01
8.665618462e-01,3.95333e-01,9.99999e-01,8.97670e-01,4.40399e-01,9.99999e-01
8.708946554e-01,2.34728e-01,9.99999e-01,5.24425e-01,4.47591e-01,9.99999e-01
8.752491287e-01,2.68669e-01,9.99999e-01,5.90800e-01,4.54754e-01,9.99999e-01
8.796253743e-01,3.44838e-01,9.99999e-01,7.46582e-01,4.61888e-01,9.99999e-01
8.840235012e-01,4.02611e-01,9.99999e-01,8.58465e-01,4.68989e-01,9.99999e-01
8.884436187e-01,4.48250e-01,9.99999e-01,9.41589e-01,4.76056e-01,9.99999e-01
8.928858368e-01,4.71435e-01,9.99999e-01,9.75880e-01,4.83087e-01,9.99999e-01
8.973502660e-01,4.87190e-01,9.99999e-01,9.94104e-01,4.90080e-01,9.99999e-01
9.018370173e-01,4.96709e-01,9.99999e-01,9.99349e-01,4.97032e-01,9.99999e-01
9.063462024e-01,4.95518e-01,9.99999e-01,9.83281e-01,5.03943e-01,9.99999e-01
9.108779334e-01,4.91503e-01,9.99999e-01,9.62200e-01,5.10811e-01,9.99999e-01
9.154323231e-01,5.12994e-01,9.99999e-01,9.91036e-01,5.17634e-01,9.99999e-01
9.200094847e-01,4.62224e-01,9.99999e-01,8.81416e-01,5.24411e-01,9.99999e-01
9.246095321e-01,4.39984e-01,9.99999e-01,8.28375e-01,5.31140e-01,9.99999e-01
9.292325798e-01,4.64194e-01,9.99999e-01,8.63102e-01,5.37820e-01,9.99999e-01
9.338787427e-01,4.72217e-01,9.99999e-01,8.67328e-01,5.44449e-01,9.99999e-01
9.385481364e-01,4.96134e-01,9.99999e-01,9.00380e-01,5.51027e-01,9.99999e-01
9.432408771e-01,5.22837e-01,9.99999e-01,9.37736e-01,5.57552e-01,9.99999e-01
9.479570815e-01,5.45701e-01,9.99999e-01,9.67516e-01,5.64023e-01,9.99999e-01
9.526968669e-01,5.61441e-01,9.99999e-01,9.84225e-01,5.70439e-01,9.99999e-01
9.574603512e-01,5.72892e-01,9.99999e-01,9.93225e-01,5.76799e-01,9.99999e-01
9.622476530e-01,5.81869e-01,9.99999e-01,9.97883e-01,5.83103e-01,9.99999e-01
9.670588912e-01,5.88975e-01,9.99999e-01,9.99365e-01,5.89348e-01,9.99999e-01
9.718941857e-01,5.95509e-01,9.99999e-01,9.99955e-01,5.95536e-01,9.99999e-01
9.767536566e-01,6.01664e-01,9.99999e-01,9.99999e-01,6.01664e-01,9.99999e-01
9.816374249e-01,6.07732e-01,9.99999e-01,9.99999e-01,6.07732e-01,9.99999e-01
9.865456120e-01,6.13740e-01,9.99999e-01,9.99999e-01,6.13740e-01,9.99999e-01
9.914783401e-01,6.19687e-01,9.99999e-01,9.99999e-01,6.19687e-01,9.99999e-01
9.964357318e-01,6.25572e-01,9.99999e-01,9.99999e-01,6.25572e-01,9.99999e-01
1.001417910e+00,6.31395e-01,9.99999e-01,9.99999e-01,6.31395e-01,9.99999e-01
1.006425000e+00,6.37156e-01,9.99999e-01,9.99999e-01,6.37156e-01,9.99999e-01
1.011457125e+00,6.42854e-01,9.99999e-01,9.99999e-01,6.42854e-01,9.99999e-01
1.016514411e+00,6.48489e-01,9.99999e-01,9.99999e-01,6.48489e-01,9.99999e-01
1.021596983e+00,6.53999e-01,9.99999e-01,9.99904e-01,6.54061e-01,9.99999e-01
1.026704968e+00,6.55223e-01,9.99999e-01,9.93409e-01,6.59569e-01,9.99999e-01
1.031838492e+00,6.20974e-01,9.99999e-01,9.33776e-01,6.65013e-01,9.99999e-01
1.036997685e+00,6.08822e-02,9.99999e-01,9.08155e-02,6.70393e-01,9.99999e-01
1.042182673e+00,2.07360e-02,9.99999e-01,3.06878e-02,6.75710e-01,9.99999e-01
1.047393587e+00,3.44122e-02,9.99999e-01,5.05347e-02,6.80962e-01,9.99999e-01
1.052630555e+00,1.18645e-04,9.99999e-01,1.72914e-04,6.86150e-01,9.99999e-01
1.057893707e+00,3.96530e-04,9.99999e-01,5.73621e-04,6.91274e-01,9.99999e-01
1.063183176e+00,2.68150e-03,9.99999e-01,3.85087e-03,6.96334e-01,9.99999e-01
1.068499092e+00,1.26570e-02,9.99999e-01,1.80472e-02,7.01330e-01,9.99999e-01
1.073841587e+00,5.50821e-02,9.99999e-01,7.79910e-02,7.06262e-01,9.99999e-01
1.079210795e+00,1.41578e-01,9.99999e-01,1.99089e-01,7.11130e-01,9.99999e-01
1.084606849e+00,2.91481e-01,9.99999e-01,4.07133e-01,7.15934e-01,9.99999e-01
1.090029883e+00,4.51118e-01,9.99999e-01,6.25964e-01,7.20676e-01,9.99999e-01
1.095480033e+00,5.75732e-01,9.99999e-01,7.93725e-01,7.25354e-01,9.99999e-01
1.100957433e+00,6.52929e-01,9.99999e-01,8.94461e-01,7.29969e-01,9.99999e-01
1.106462220e+00,7.01416e-01,9.99999e-01,9.54928e-01,7.34521e-01,9.99999e-01
1.111994531e+00,7.26481e-01,9.99999e-01,9.83044e-01,7.39011e-01,9.99999e-01
1.117554504e+00,7.40350e-01,9.99999e-01,9.95843e-01,7.43439e-01,9.99999e-01
1.123142276e+00,7.47602e-01,9.99999e-01,9.99727e-01,7.47806e-01,9.99999e-01
1.128757988e+00,7.52111e-01,9.99999e-01,9.99999e-01,7.52111e-01,9.99999e-01
1.134401778e+00,7.56355e-01,9.99999e-01,9.99999e-01,7.56355e-01,9.99999e-01
1.140073787e+00,7.60538e-01,9.99999e-01,9.99999e-01,7.60538e-01,9.99999e-01
1.145774156e+00,7.64661e-01,9.99999e-01,9.99999e-01,7.64661e-01,9.99999e-01
1.151503026e+00,7.68725e-01,9.99999e-01,9.99999e-01,7.68725e-01,9.99999e-01
1.157260541e+00,7.72729e-01,9.99999e-01,9.99999e-01,7.72729e-01,9.99999e-01
1.163046844e+00,7.76674e-01,9.99999e-01,9.99999e-01,7.76674e-01,9.99999e-01
1.168862078e+00,7.80561e-01,9.99999e-01,9.99999e-01,7.80561e-01,9.99999e-01
1.174706389e+00,7.84390e-01,9.99999e-01,9.99999e-01,7.84390e-01,9.99999e-01
1.180579921e+00,7.88162e-01,9.99999e-01,9.99999e-01,7.88162e-01,9.99999e-01
1.186482820e+00,7.91866e-01,9.99999e-01,9.99986e-01,7.91877e-01,9.99999e-01
1.192415234e+00,7.77163e-01,9.99999e-01,9.76905e-01,7.95535e-01,9.99999e-01
1.198377311e+00,4.34840e-01,9.99999e-01,5.44135e-01,7.99137e-01,9.99999e-01
1.204369197e+00,6.47881e-18,9.99999e-01,8.07142e-18,8.02685e-01,9.99999e-01
1.210391043e+00,1.49806e-69,9.99999e-01,1.85823e-69,8.06177e-01,9.99999e-01
1.216442998e+00,2.56127e-60,9.99999e-01,3.16357e-60,8.09615e-01,9.99999e-01
1.222525213e+00,1.99309e-59,9.99999e-01,2.45152e-59,8.13000e-01,9.99999e-01
1.228637839e+00,5.55133e-46,9.99999e-01,6.80034e-46,8.16331e-01,9.99999e-01
1.234781029e+00,4.98164e-29,9.99999e-01,6.07806e-29,8.19610e-01,9.99999e-01
1.240954934e+00,1.97361e-19,9.99999e-01,2.39854e-19,8.22837e-01,9.99999e-01
1.247159708e+00,6.07361e-10,9.99999e-01,7.35293e-10,8.26012e-01,9.99999e-01
1.253395507e+00,1.22059e-06,9.99999e-01,1.47212e-06,8.29137e-01,9.99999e-01
1.259662485e+00,3.79125e-04,9.99999e-01,4.55563e-04,8.32211e-01,9.99999e-01
1.265960797e+00,1.05758e-02,9.99999e-01,1.26621e-02,8.35236e-01,9.99999e-01
1.272290601e+00,1.21229e-01,9.99999e-01,1.44628e-01,8.38211e-01,9.99999e-01
1.278652054e+00,1.03316e-01,9.99999e-01,1.22828e-01,8.41138e-01,9.99999e-01
1.285045314e+00,6.69965e-04,9.99999e-01,7.93780e-04,8.44017e-01,9.99999e-01
1.291470541e+00,1.06870e-08,9.99999e-01,1.26197e-08,8.46849e-01,9.99999e-01
1.297927893e+00,8.86201e-04,9.99999e-01,1.04304e-03,8.49635e-01,9.99999e-01
1.304417533e+00,2.46856e-02,9.99999e-01,2.89609e-02,8.52374e-01,9.99999e-01
1.310939621e+00,5.70826e-03,9.99999e-01,6.67580e-03,8.55067e-01,9.99999e-01
1.317494319e+00,3.67724e-24,9.99999e-01,4.28725e-24,8.57716e-01,9.99999e-01
1.324081790e+00,3.42482e-16,9.99999e-01,3.98087e-16,8.60320e-01,9.99999e-01
1.330702199e+00,1.31155e-09,9.99999e-01,1.51996e-09,8.62880e-01,9.99999e-01
1.337355710e+00,4.71554e-09,9.99999e-01,5.44898e-09,8.65398e-01,9.99999e-01
1.344042489e+00,1.80976e-09,9.99999e-01,2.08529e-09,8.67872e-01,9.99999e-01
1.350762701e+00,7.32037e-10,9.99999e-01,8.41126e-10,8.70305e-01,9.99999e-01
1.357516515e+00,2.17197e-06,9.99999e-01,2.48880e-06,8.72696e-01,9.99999e-01
1.364304097e+00,1.29102e-04,9.99999e-01,1.47537e-04,8.75047e-01,9.99999e-01
1.371125618e+00,9.41466e-03,9.99999e-01,1.07307e-02,8.77357e-01,9.99999e-01
1.377981246e+00,1.91104e-02,9.99999e-01,2.17255e-02,8.79627e-01,9.99999e-01
1.384871152e+00,9.49284e-02,9.99999e-01,1.07646e-01,8.81858e-01,9.99999e-01
1.391795508e+00,1.12874e-01,9.99999e-01,1.27678e-01,8.84051e-01,9.99999e-01
1.398754485e+00,2.46254e-01,9.99999e-01,2.77874e-01,8.86206e-01,9.99999e-01
1.405748258e+00,3.47664e-01,9.99999e-01,3.91371e-01,8.88323e-01,9.99999e-01
1.412776999e+00,4.91374e-01,9.99999e-01,5.51855e-01,8.90403e-01,9.99999e-01
1.419840884e+00,4.40414e-01,9.99999e-01,4.93489e-01,8.92447e-01,9.99999e-01
1.426940089e+00,2.59947e-02,9.99999e-01,2.90620e-02,8.94455e-01,9.99999e-01
1.434074789e+00,0.00000e+00,9.99999e-01,0.00000e+00,8.96428e-01,9.99999e-01
1.441245163e+00,0.00000e+00,9.99999e-01,0.00000e+00,8.98366e-01,9.99999e-01
1.448451389e+00,0.00000e+00,9.99999e-01,0.00000e+00,9.00270e-01,9.99999e-01
1.455693646e+00,0.00000e+00,9.99999e-01,0.00000e+00,9.02140e-01,9.99999e-01
1.462972114e+00,2.00835e-275,9.99999e-01,2.22168e-275,9.03977e-01,9.99999e-01
1.470286975e+00,1.18020e-114,9.99999e-01,1.30296e-114,9.05782e-01,9.99999e-01
