#,Wave/freq,Total,O2,CO2,Rayleigh,CIA
4.000000000e-01,2.95017e-06,9.99999e-01,9.99999e-01,2.95017e-06,9.99999e-01
4.020000000e-01,3.79486e-06,9.99999e-01,9.99999e-01,3.79486e-06,9.99999e-01
4.040100000e-01,4.85590e-06,9.99999e-01,9.99999e-01,4.85590e-06,9.99999e-01
4.060300500e-01,6.18342e-06,9.99999e-01,9.99999e-01,6.18342e-06,9.99999e-01
4.080602003e-01,7.83638e-06,9.99999e-01,9.99999e-01,7.83638e-06,9.99999e-01
4.101005013e-01,9.88483e-06,9.99999e-01,9.99999e-01,9.88483e-06,9.99999e-01
4.121510038e-01,1.24117e-05,9.99999e-01,9.99999e-01,1.24117e-05,9.99999e-01
4.142117588e-01,1.55146e-05,9.99999e-01,9.99999e-01,1.55146e-05,9.99999e-01
4.162828176e-01,1.93079e-05,9.99999e-01,9.99999e-01,1.93079e-05,9.99999e-01
4.183642317e-01,2.39251e-05,9.99999e-01,9.99999e-01,2.39251e-05,9.99999e-01
4.204560528e-01,2.95211e-05,9.99999e-01,9.99999e-01,2.95211e-05,9.99999e-01
4.225583331e-01,3.62751e-05,9.99999e-01,9.99999e-01,3.62751e-05,9.99999e-01
4.246711247e-01,4.43933e-05,9.99999e-01,9.99999e-01,4.43933e-05,9.99999e-01
4.267944804e-01,5.41120e-05,9.99999e-01,9.99999e-01,5.41120e-05,9.99999e-01
4.289284528e-01,6.57009e-05,9.99999e-01,9.99999e-01,6.57009e-05,9.99999e-01
4.310730950e-01,7.94666e-05,9.99999e-01,9.99999e-01,7.94666e-05,9.99999e-01
4.332284605e-01,9.57560e-05,9.99999e-01,9.99999e-01,9.57560e-05,9.99999e-01
4.353946028e-01,1.14960e-04,9.99999e-01,9.99999e-01,1.14960e-04,9.99999e-01
4.375715758e-01,1.37519e-04,9.99999e-01,9.99999e-01,1.37519e-04,9.99999e-01
4.397594337e-01,1.63923e-04,9.99999e-01,9.99999e-01,1.63923e-04,9.99999e-01
4.419582309e-01,1.94719e-04,9.99999e-01,9.99999e-01,1.94719e-04,9.99999e-01
4.441680220e-01,2.30517e-04,9.99999e-01,9.99999e-01,2.30517e-04,9.99999e-01
4.463888621e-01,2.71987e-04,9.99999e-01,9.99999e-01,2.71987e-04,9.99999e-01
4.486208064e-01,3.19871e-04,9.99999e-01,9.99999e-01,3.19871e-04,9.99999e-01
4.508639105e-01,3.74982e-04,9.99999e-01,9.99999e-01,3.74982e-04,9.99999e-01
4.531182300e-01,4.38210e-04,9.99999e-01,9.99999e-01,4.38210e-04,9.99999e-01
4.553838212e-01,5.10525e-04,9.99999e-01,9.99999e-01,5.10525e-04,9.99999e-01
4.576607403e-01,5.92982e-04,9.99999e-01,9.99999e-01,5.92982e-04,9.99999e-01
4.599490440e-01,6.86724e-04,9.99999e-01,9.99999e-01,6.86724e-04,9.99999e-01
4.622487892e-01,7.92982e-04,9.99999e-01,9.99999e-01,7.92982e-04,9.99999e-01
4.645600332e-01,9.13084e-04,9.99999e-01,9.99999e-01,9.13084e-04,9.99999e-01
4.668828333e-01,1.04845e-03,9.99999e-01,9.99999e-01,1.04845e-03,9.99999e-01
4.692172475e-01,1.20060e-03,9.99999e-01,9.99999e-01,1.20060e-03,9.99999e-01
4.715633337e-01,1.37116e-03,9.99999e-01,9.99999e-01,1.37116e-03,9.99999e-01
4.739211504e-01,1.56185e-03,9.99999e-01,9.99999e-01,1.56185e-03,9.99999e-01
4.762907561e-01,1.77448e-03,9.99999e-01,9.99999e-01,1.77448e-03,9.99999e-01
4.786722099e-01,2.01098e-03,9.99999e-01,9.99999e-01,2.01098e-03,9.99999e-01
4.810655710e-01,2.27339e-03,9.99999e-01,9.99999e-01,2.27339e-03,9.99999e-01
4.834708988e-01,2.56381e-03,9.99999e-01,9.99999e-01,2.56381e-03,9.99999e-01
4.858882533e-01,2.88447e-03,9.99999e-01,9.99999e-01,2.88447e-03,9.99999e-01
4.883176946e-01,3.23770e-03,9.99999e-01,9.99999e-01,3.23770e-03,9.99999e-01
4.907592831e-01,3.62589e-03,9.99999e-01,9.99999e-01,3.62589e-03,9.99999e-01
4.932130795e-01,4.05156e-03,9.99999e-01,9.99999e-01,4.05156e-03,9.99999e-01
4.956791449e-01,4.51729e-03,9.99999e-01,9.99999e-01,4.51729e-03,9.99999e-01
4.981575406e-01,5.02574e-03,9.99999e-01,9.99999e-01,5.02574e-03,9.99999e-01
5.006483283e-01,5.57965e-03,9.99999e-01,9.99999e-01,5.57965e-03,9.99999e-01
5.031515699e-01,6.18183e-03,9.99999e-01,9.99999e-01,6.18183e-03,9.99999e-01
5.056673278e-01,6.83515e-03,9.99999e-01,9.99999e-01,6.83515e-03,9.99999e-01
5.081956644e-01,7.54253e-03,9.99999e-01,9.99999e-01,7.54253e-03,9.99999e-01
5.107366428e-01,8.30695e-03,9.99999e-01,9.99999e-01,8.30695e-03,9.99999e-01
5.132903260e-01,9.13140e-03,9.99999e-01,9.99999e-01,9.13140e-03,9.99999e-01
5.158567776e-01,1.00189e-02,9.99999e-01,9.99999e-01,1.00189e-02,9.99999e-01
5.184360615e-01,1.09726e-02,9.99999e-01,9.99999e-01,1.09726e-02,9.99999e-01
5.210282418e-01,1.19955e-02,9.99999e-01,9.99999e-01,1.19955e-02,9.99999e-01
5.236333830e-01,1.30907e-02,9.99999e-01,9.99999e-01,1.30907e-02,9.99999e-01
5.262515499e-01,1.42613e-02,9.99999e-01,9.99999e-01,1.42613e-02,9.99999e-01
5.288828077e-01,1.55102e-02,9.99999e-01,9.99999e-01,1.55102e-02,9.99999e-01
5.315272217e-01,1.68406e-02,9.99999e-01,9.99999e-01,1.68406e-02,9.99999e-01
5.341848578e-01,1.82554e-02,9.99999e-01,9.99999e-01,1.82554e-02,9.99999e-01
5.368557821e-01,1.97576e-02,9.99999e-01,9.99999e-01,1.97576e-02,9.99999e-01
5.395400610e-01,2.13500e-02,9.99999e-01,9.99999e-01,2.13500e-02,9.99999e-01
5.422377613e-01,2.30354e-02,9.99999e-01,9.99999e-01,2.30354e-02,9.99999e-01
5.449489501e-01,2.48166e-02,9.99999e-01,9.99999e-01,2.48166e-02,9.99999e-01
5.476736949e-01,2.66962e-02,9.99999e-01,9.99999e-01,2.66962e-02,9.99999e-01
5.504120634e-01,2.86769e-02,9.99999e-01,9.99999e-01,2.86769e-02,9.99999e-01
5.531641237e-01,3.07609e-02,9.99999e-01,9.99999e-01,3.07609e-02,9.99999e-01
5.559299443e-01,3.29507e-02,9.99999e-01,9.99999e-01,3.29507e-02,9.99999e-01
5.587095940e-01,3.52485e-02,9.99999e-01,9.99999e-01,3.52485e-02,9.99999e-01
5.615031420e-01,3.76564e-02,9.99999e-01,9.99999e-01,3.76564e-02,9.99999e-01
5.643106577e-01,4.01762e-02,9.99999e-01,9.99999e-01,4.01762e-02,9.99999e-01
5.671322110e-01,4.28099e-02,9.99999e-01,9.99999e-01,4.28099e-02,9.99999e-01
5.699678720e-01,4.55590e-02,9.99999e-01,9.99999e-01,4.55590e-02,9.99999e-01
5.728177114e-01,4.84251e-02,9.99999e-01,9.99999e-01,4.84251e-02,9.99999e-01
5.756818000e-01,5.14096e-02,9.99999e-01,9.99999e-01,5.14096e-02,9.99999e-01
5.785602090e-01,5.45135e-02,9.99999e-01,9.99999e-01,5.45135e-02,9.99999e-01
5.814530100e-01,5.77379e-02,9.99999e-01,9.99999e-01,5.77379e-02,9.99999e-01
5.843602750e-01,6.10837e-02,9.99999e-01,9.99999e-01,6.10837e-02,9.99999e-01
5.872820764e-01,6.45515e-02,9.99999e-01,9.99999e-01,6.45515e-02,9.99999e-01
5.902184868e-01,6.81418e-02,9.99999e-01,9.99999e-01,6.81418e-02,9.99999e-01
5.931695792e-01,7.18550e-02,9.99999e-01,9.99999e-01,7.18550e-02,9.99999e-01
5.961354271e-01,7.56910e-02,9.99999e-01,9.99999e-01,7.56910e-02,9.99999e-01
5.991161043e-01,7.96501e-02,9.99999e-01,9.99999e-01,7.96501e-02,9.99999e-01
6.021116848e-01,8.37318e-02,9.99999e-01,9.99999e-01,8.37318e-02,9.99999e-01
6.051222432e-01,8.79359e-02,9.99999e-01,9.99999e-01,8.79359e-02,9.99999e-01
6.081478544e-01,9.22617e-02,9.99999e-01,9.99999e-01,9.22617e-02,9.99999e-01
6.111885937e-01,9.67085e-02,9.99999e-01,9.99999e-01,9.67085e-02,9.99999e-01
6.142445367e-01,1.01275e-01,9.99999e-01,9.99999e-01,1.01275e-01,9.99999e-01
6.173157594e-01,1.05961e-01,9.99999e-01,9.99999e-01,1.05961e-01,9.99999e-01
6.204023382e-01,1.10765e-01,9.99999e-01,9.99999e-01,1.10765e-01,9.99999e-01
6.235043498e-01,1.15686e-01,9.99999e-01,9.99999e-01,1.15686e-01,9.99999e-01
6.266218716e-01,1.20721e-01,9.99999e-01,9.99999e-01,1.20721e-01,9.99999e-01
6.297549810e-01,1.25869e-01,9.99999e-01,9.99999e-01,1.25869e-01,9.99999e-01
6.329037559e-01,1.31129e-01,9.99999e-01,9.99999e-01,1.31129e-01,9.99999e-01
6.360682746e-01,1.36498e-01,9.99999e-01,9.99999e-01,1.36498e-01,9.99999e-01
6.392486160e-01,1.41974e-01,9.99999e-01,9.99999e-01,1.41974e-01,9.99999e-01
6.424448591e-01,1.47555e-01,9.99999e-01,9.99999e-01,1.47555e-01,9.99999e-01
6.456570834e-01,1.53239e-01,9.99999e-01,9.99999e-01,1.53239e-01,9.99999e-01
6.488853688e-01,1.59023e-01,9.99999e-01,9.99999e-01,1.59023e-01,9.99999e-01
6.521297956e-01,1.64905e-01,9.99999e-01,9.99999e-01,1.64905e-01,9.99999e-01
6.553904446e-01,1.70882e-01,9.99999e-01,9.99999e-01,1.70882e-01,9.99999e-01
6.586673968e-01,1.76950e-01,9.99999e-01,9.99999e-01,1.76950e-01,9.99999e-01
6.619607338e-01,1.83108e-01,9.99999e-01,9.99999e-01,1.83108e-01,9.99999e-01
6.652705375e-01,1.89353e-01,9.99999e-01,9.99999e-01,1.89353e-01,9.99999e-01
6.685968902e-01,1.95680e-01,9.99999e-01,9.99999e-01,1.95680e-01,9.99999e-01
6.719398746e-01,2.02088e-01,9.99999e-01,9.99999e-01,2.02088e-01,9.99999e-01
6.752995740e-01,2.08573e-01,9.99999e-01,9.99999e-01,2.08573e-01,9.99999e-01
6.786760719e-01,2.15132e-01,9.99999e-01,9.99999e-01,2.15132e-01,9.99999e-01
6.820694522e-01,2.21761e-01,9.99999e-01,9.99999e-01,2.21761e-01,9.99999e-01
6.854797995e-01,2.28458e-01,9.99999e-01,9.99999e-01,2.28458e-01,9.99999e-01
6.889071985e-01,2.35218e-01,9.99999e-01,9.99999e-01,2.35218e-01,9.99999e-01
6.923517345e-01,2.42039e-01,9.99999e-01,9.99999e-01,2.42039e-01,9.99999e-01
6.958134932e-01,2.48918e-01,9.99999e-01,9.99999e-01,2.48918e-01,9.99999e-01
6.992925606e-01,2.55850e-01,9.99999e-01,9.99999e-01,2.55850e-01,9.99999e-01
7.027890234e-01,2.62832e-01,9.99999e-01,9.99999e-01,2.62832e-01,9.99999e-01
7.063029686e-01,2.69862e-01,9.99999e-01,9.99999e-01,2.69862e-01,9.99999e-01
7.098344834e-01,2.76935e-01,9.99999e-01,9.99999e-01,2.76935e-01,9.99999e-01
7.133836558e-01,2.84048e-01,9.99999e-01,9.99999e-01,2.84048e-01,9.99999e-01
7.169505741e-01,2.91199e-01,9.99999e-01,9.99999e-01,2.91199e-01,9.99999e-01
7.205353270e-01,2.98382e-01,9.99999e-01,9.99999e-01,2.98382e-01,9.99999e-01
7.241380036e-01,3.05596e-01,9.99999e-01,9.99999e-01,3.05596e-01,9.99999e-01
7.277586936e-01,3.12836e-01,9.99999e-01,9.99999e-01,3.12836e-01,9.99999e-01
7.313974871e-01,3.20100e-01,9.99999e-01,9.99999e-01,3.20100e-01,9.99999e-01
7.350544745e-01,3.27384e-01,9.99999e-01,9.99999e-01,3.27384e-01,9.99999e-01
7.387297469e-01,3.34685e-01,9.99999e-01,9.99999e-01,3.34685e-01,9.99999e-01
7.424233956e-01,3.42000e-01,9.99999e-01,9.99999e-01,3.42000e-01,9.99999e-01
7.461355126e-01,3.49325e-01,9.99999e-01,9.99999e-01,3.49325e-01,9.99999e-01
7.498661902e-01,3.56658e-01,9.99999e-01,9.99999e-01,3.56658e-01,9.99999e-01
7.536155211e-01,3.63996e-01,9.99999e-01,9.99999e-01,3.63996e-01,9.99999e-01
7.573835987e-01,3.71335e-01,9.99999e-01,9.99999e-01,3.71335e-01,9.99999e-01
7.611705167e-01,3.78673e-01,9.99999e-01,9.99999e-01,3.78673e-01,9.99999e-01
7.649763693e-01,3.86006e-01,9.99999e-01,9.99999e-01,3.86006e-01,9.99999e-01
7.688012511e-01,3.93333e-01,9.99999e-01,9.99999e-01,3.93333e-01,9.99999e-01
7.726452574e-01,4.00650e-01,9.99999e-01,9.99999e-01,4.00650e-01,9.99999e-01
7.765084837e-01,4.07954e-01,9.99999e-01,9.99999e-01,4.07954e-01,9.99999e-01
7.803910261e-01,3.99069e-01,9.99999e-01,9.61049e-01,4.15243e-01,9.99999e-01
7.842929812e-01,3.51036e-01,9.99999e-01,8.30826e-01,4.22515e-01,9.99999e-01
7.882144461e-01,3.52929e-01,9.99999e-01,8.21209e-01,4.29766e-01,9.99999e-01
7.921555184e-01,3.89305e-01,9.99999e-01,8.90866e-01,4.36996e-01,9.99999e-01
7.961162960e-01,4.10873e-01,9.99999e-01,9.24972e-01,4.44200e-01,9.99999e-01
8.000968774e-01,4.32719e-01,9.99999e-01,9.58662e-01,4.51377e-01,9.99999e-01
8.040973618e-01,4.48569e-01,9.99999e-01,9.78284e-01,4.58525e-01,9.99999e-01
8.081178486e-01,4.60992e-01,9.99999e-01,9.90012e-01,4.65642e-01,9.99999e-01
8.121584379e-01,4.71251e-01,9.99999e-01,9.96881e-01,4.72726e-01,9.99999e-01
8.162192301e-01,4.79443e-01,9.99999e-01,9.99310e-01,4.79774e-01,9.99999e-01
8.203003262e-01,4.86779e-01,9.99999e-01,9.99988e-01,4.86784e-01,9.99999e-01
8.244018279e-01,4.93756e-01,9.99999e-01,9.99999e-01,4.93756e-01,9.99999e-01
8.285238370e-01,5.00687e-01,9.99999e-01,9.99999e-01,5.00687e-01,9.99999e-01
8.326664562e-01,5.07576e-01,9.99999e-01,9.99999e-01,5.07576e-01,9.99999e-01
8.368297885e-01,5.14420e-01,9.99999e-01,9.99999e-01,5.14420e-01,9.99999e-01
8.410139374e-01,5.21219e-01,9.99999e-01,9.99999e-01,5.21219e-01,9.99999e-01
8.452190071e-01,5.27970e-01,9.99999e-01,9.99999e-01,5.27970e-01,9.99999e-01
8.494451021e-01,5.34673e-01,9.99999e-01,9.99999e-01,5.34673e-01,9.99999e-01
8.536923276e-01,5.41327e-01,9.99999e-01,9.99999e-01,5.41327e-01,9.99999e-01
8.579607893e-01,5.47929e-01,9.99999e-01,9.99999e-01,5.47929e-01,9.99999e-01
8.622505932e-01,5.54479e-01,9.99999e-01,9.99999e-01,5.54479e-01,9.99999e-01
8.665618462e-01,5.15338e-01,9.99999e-01,9.18644e-01,5.60976e-01,9.99999e-01
8.708946554e-01,3.56039e-01,9.99999e-01,6.27471e-01,5.67418e-01,9.99999e-01
8.752491287e-01,3.92928e-01,9.99999e-01,6.84776e-01,5.73805e-01,9.99999e-01
8.796253743e-01,4.70678e-01,9.99999e-01,8.11323e-01,5.80135e-01,9.99999e-01
8.840235012e-01,5.26061e-01,9.99999e-01,8.97090e-01,5.86408e-01,9.99999e-01
8.884436187e-01,5.67686e-01,9.99999e-01,9.57920e-01,5.92623e-01,9.99999e-01
8.928858368e-01,5.88468e-01,9.99999e-01,9.82779e-01,5.98779e-01,9.99999e-01
8.973502660e-01,6.02315e-01,9.99999e-01,9.95765e-01,6.04876e-01,9.99999e-01
9.018370173e-01,6.10626e-01,9.99999e-01,9.99531e-01,6.10912e-01,9.99999e-01
9.063462024e-01,6.09750e-01,9.99999e-01,9.88429e-01,6.16888e-01,9.99999e-01
9.108779334e-01,6.05995e-01,9.99999e-01,9.73012e-01,6.22802e-01,9.99999e-01
9.154323231e-01,6.24597e-01,9.99999e-01,9.93543e-01,6.28655e-01,9.99999e-01
9.200094847e-01,5.79514e-01,9.99999e-01,9.13417e-01,6.34445e-01,9.99999e-01
9.246095321e-01,5.60061e-01,9.99999e-01,8.74858e-01,6.40173e-01,9.99999e-01
9.292325798e-01,5.82298e-01,9.99999e-01,9.01616e-01,6.45838e-01,9.99999e-01
9.338787427e-01,5.88764e-01,9.99999e-01,9.03789e-01,6.51439e-01,9.99999e-01
9.385481364e-01,6.09880e-01,9.99999e-01,9.28310e-01,6.56977e-01,9.99999e-01
9.432408771e-01,6.32855e-01,9.99999e-01,9.55321e-01,6.62452e-01,9.99999e-01
9.479570815e-01,6.52425e-01,9.99999e-01,9.76885e-01,6.67862e-01,9.99999e-01
9.526968669e-01,6.65650e-01,9.99999e-01,9.88771e-01,6.73209e-01,9.99999e-01
9.574603512e-01,6.75222e-01,9.99999e-01,9.95180e-01,6.78491e-01,9.99999e-01
9.622476530e-01,6.82680e-01,9.99999e-01,9.98493e-01,6.83710e-01,9.99999e-01
9.670588912e-01,6.88552e-01,9.99999e-01,9.99547e-01,6.88864e-01,9.99999e-01
9.718941857e-01,6.93931e-01,9.99999e-01,9.99967e-01,6.93954e-01,9.99999e-01
9.767536566e-01,6.98980e-01,9.99999e-01,9.99999e-01,6.98980e-01,9.99999e-01
9.816374249e-01,7.03942e-01,9.99999e-01,9.99999e-01,7.03942e-01,9.99999e-01
9.865456120e-01,7.08840e-01,9.99999e-01,9.99999e-01,7.08840e-01,9.99999e-01
9.914783401e-01,7.13675e-01,9.99999e-01,9.99999e-01,7.13675e-01,9.99999e-01
9.964357318e-01,7.18446e-01,9.99999e-01,9.99999e-01,7.18446e-01,9.99999e-01
1.001417910e+00,7.23154e-01,9.99999e-01,9.99999e-01,7.23154e-01,9.99999e-01
1.006425000e+00,7.27799e-01,9.99999e-01,9.99999e-01,7.27799e-01,9.99999e-01
1.011457125e+00,7.32381e-01,9.99999e-01,9.99999e-01,7.32381e-01,9.99999e-01
1.016514411e+00,7.36900e-01,9.99999e-01,9.99999e-01,7.36900e-01,9.99999e-01
1.021596983e+00,7.41316e-01,9.99999e-01,9.99943e-01,7.41357e-01,9.99999e-01
1.026704968e+00,7.42384e-01,9.99999e-01,9.95482e-01,7.45753e-01,9.99999e-01
1.031838492e+00,7.14254e-01,9.99999e-01,9.52227e-01,7.50087e-01,9.99999e-01
1.036997685e+00,9.66613e-02,9.99999e-01,1.28137e-01,7.54359e-01,9.99999e-01
1.042182673e+00,5.83241e-02,9.99999e-01,7.68867e-02,7.58571e-01,9.99999e-01
1.047393587e+00,7.87825e-02,9.99999e-01,1.03291e-01,7.62723e-01,9.99999e-01
1.052630555e+00,1.10811e-03,9.99999e-01,1.44508e-03,7.66815e-01,9.99999e-01
1.057893707e+00,3.06776e-03,9.99999e-01,3.97973e-03,7.70847e-01,9.99999e-01
1.063183176e+00,1.29316e-02,9.99999e-01,1.66898e-02,7.74820e-01,9.99999e-01
1.068499092e+00,4.37811e-02,9.99999e-01,5.62208e-02,7.78734e-01,9.99999e-01
1.073841587e+00,1.25912e-01,9.99999e-01,1.60891e-01,7.82590e-01,9.99999e-01
1.079210795e+00,2.47237e-01,9.99999e-01,3.14395e-01,7.86389e-01,9.99999e-01
1.084606849e+00,4.16461e-01,9.99999e-01,5.27079e-01,7.90131e-01,9.99999e-01
1.090029883e+00,5.69221e-01,9.99999e-01,7.17069e-01,7.93815e-01,9.99999e-01
1.095480033e+00,6.76718e-01,9.99999e-01,8.48608e-01,7.97444e-01,9.99999e-01
1.100957433e+00,7.40085e-01,9.99999e-01,9.23930e-01,8.01017e-01,9.99999e-01
1.106462220e+00,7.78609e-01,9.99999e-01,9.67773e-01,8.04536e-01,9.99999e-01
1.111994531e+00,7.98249e-01,9.99999e-01,9.87931e-01,8.07999e-01,9.99999e-01
1.117554504e+00,8.08998e-01,9.99999e-01,9.97028e-01,8.11409e-01,9.99999e-01
1.123142276e+00,8.14606e-01,9.99999e-01,9.99803e-01,8.14765e-01,9.99999e-01
1.128757988e+00,8.18069e-01,9.99999e-01,9.99999e-01,8.18069e-01,9.99999e-01
1.134401778e+00,8.21320e-01,9.99999e-01,9.99999e-01,8.21320e-01,9.99999e-01
1.140073787e+00,8.24520e-01,9.99999e-01,9.99999e-01,8.24520e-01,9.99999e-01
1.145774156e+00,8.27668e-01,9.99999e-01,9.99999e-01,8.27668e-01,9.99999e-01
1.151503026e+00,8.30766e-01,9.99999e-01,9.99999e-01,8.30766e-01,9.99999e-01
1.157260541e+00,8.33814e-01,9.99999e-01,9.99999e-01,8.33814e-01,9.99999e-01
1.163046844e+00,8.36813e-01,9.99999e-01,9.99999e-01,8.36813e-01,9.99999e-01
1.168862078e+00,8.39763e-01,9.99999e-01,9.99999e-01,8.39763e-01,9.99999e-01
1.174706389e+00,8.42665e-01,9.99999e-01,9.99999e-01,8.42665e-01,9.99999e-01
1.180579921e+00,8.45519e-01,9.99999e-01,9.99999e-01,8.45519e-01,9.99999e-01
1.186482820e+00,8.48321e-01,9.99999e-01,9.99993e-01,8.48326e-01,9.99999e-01
1.192415234e+00,8.37563e-01,9.99999e-01,9.84109e-01,8.51087e-01,9.99999e-01
1.198377311e+00,4.75344e-01,9.99999e-01,5.56738e-01,8.53802e-01,9.99999e-01
1.204369197e+00,2.73510e-13,9.99999e-01,3.19345e-13,8.56471e-01,9.99999e-01
1.210391043e+00,1.11521e-49,9.99999e-01,1.29812e-49,8.59096e-01,9.99999e-01
1.216442998e+00,3.58178e-43,9.99999e-01,4.15675e-43,8.61677e-01,9.99999e-01
1.222525213e+00,1.52098e-42,9.99999e-01,1.75995e-42,8.64215e-01,9.99999e-01
1.228637839e+00,5.93416e-33,9.99999e-01,6.84676e-33,8.66710e-01,9.99999e-01
1.234781029e+00,4.02254e-21,9.99999e-01,4.62806e-21,8.69162e-01,9.99999e-01
1.240954934e+00,3.06372e-14,9.99999e-01,3.51516e-14,8.71573e-01,9.99999e-01
1.247159708e+00,1.16343e-07,9.99999e-01,1.33124e-07,8.73943e-01,9.99999e-01
1.253395507e+00,5.03138e-05,9.99999e-01,5.74179e-05,8.76272e-01,9.99999e-01
1.259662485e+00,2.16445e-03,9.99999e-01,2.46363e-03,8.78561e-01,9.99999e-01
1.265960797e+00,3.44189e-02,9.99999e-01,3.90763e-02,8.80810e-01,9.99999e-01
1.272290601e+00,1.97767e-01,9.99999e-01,2.23966e-01,8.83021e-01,9.99999e-01
1.278652054e+00,1.90492e-01,9.99999e-01,2.15197e-01,8.85194e-01,9.99999e-01
1.285045314e+00,3.56427e-03,9.99999e-01,4.01685e-03,8.87328e-01,9.99999e-01
1.291470541e+00,1.75920e-06,9.99999e-01,1.97790e-06,8.89426e-01,9.99999e-01
1.297927893e+00,1.76489e-03,9.99999e-01,1.97971e-03,8.91487e-01,9.99999e-01
1.304417533e+00,7.11177e-02,9.99999e-01,7.95933e-02,8.93512e-01,9.99999e-01
1.310939621e+00,1.74845e-02,9.99999e-01,1.95248e-02,8.95501e-01,9.99999e-01
1.317494319e+00,1.67712e-17,9.99999e-01,1.86874e-17,8.97456e-01,9.99999e-01
1.324081790e+00,5.72972e-12,9.99999e-01,6.37077e-12,8.99376e-01,9.99999e-01
1.330702199e+00,4.41306e-07,9.99999e-01,4.89653e-07,9.01262e-01,9.99999e-01
1.337355710e+00,7.68928e-07,9.99999e-01,8.51418e-07,9.03114e-01,9.99999e-01
1.344042489e+00,2.55937e-07,9.99999e-01,2.82824e-07,9.04934e-01,9.99999e-01
1.350762701e+00,2.55784e-07,9.99999e-01,2.82097e-07,9.06721e-01,9.99999e-01
1.357516515e+00,6.44306e-05,9.99999e-01,7.09215e-05,9.08477e-01,9.99999e-01
1.364304097e+00,1.61928e-03,9.99999e-01,1.77903e-03,9.10201e-01,9.99999e-01
1.371125618e+00,3.40259e-02,9.99999e-01,3.73134e-02,9.11894e-01,9.99999e-01
1.377981246e+00,6.00799e-02,9.99999e-01,6.57648e-02,9.13557e-01,9.99999e-01
1.384871152e+00,1.87716e-01,9.99999e-01,2.05111e-01,9.15190e-01,9.99999e-01
1.391795508e+00,2.11782e-01,9.99999e-01,2.31002e-01,9.16793e-01,9.99999e-01
1.398754485e+00,3.71061e-01,9.99999e-01,4.04044e-01,9.18368e-01,9.99999e-01
1.405748258e+00,4.72197e-01,9.99999e-01,5.13306e-01,9.19914e-01,9.99999e-01
1.412776999e+00,6.04213e-01,9.99999e-01,6.55732e-01,9.21432e-01,9.99999e-01
1.419840884e+00,5.46462e-01,9.99999e-01,5.92099e-01,9.22922e-01,9.99999e-01
1.426940089e+00,4.38678e-02,9.99999e-01,4.74561e-02,9.24386e-01,9.99999e-01
1.434074789e+00,0.00000e+00,9.99999e-01,0.00000e+00,9.25822e-01,9.99999e-01
1.441245163e+00,0.00000e+00,9.99999e-01,0.00000e+00,9.27233e-01,9.99999e-01
1.448451389e+00,0.00000e+00,9.99999e-01,0.00000e+00,9.28618e-01,9.99999e-01
1.455693646e+00,0.00000e+00,9.99999e-01,0.00000e+00,9.29977e-01,9.99999e-01
1.462972114e+00,9.14507e-195,9.99999e-01,9.81955e-195,9.31311e-01,9.99999e-01
1.470286975e+00,1.82415e-81,9.99999e-01,1.95594e-81,9.32621e-01,9.99999e-01
