#,Wave/freq,Total,O2,CO2,Rayleigh,CIA
4.000000000e-01,1.21787e-05,9.99999e-01,9.99999e-01,1.21787e-05,9.99999e-01
4.020000000e-01,1.52325e-05,9.99999e-01,9.99999e-01,1.52325e-05,9.99999e-01
4.040100000e-01,1.89638e-05,9.99999e-01,9.99999e-01,1.89638e-05,9.99999e-01
4.060300500e-01,2.35070e-05,9.99999e-01,9.99999e-01,2.35070e-05,9.99999e-01
4.080602003e-01,2.90153e-05,9.99999e-01,9.99999e-01,2.90153e-05,9.99999e-01
4.101005013e-01,3.56658e-05,9.99999e-01,9.99999e-01,3.56658e-05,9.99999e-01
4.121510038e-01,4.36622e-05,9.99999e-01,9.99999e-01,4.36622e-05,9.99999e-01
4.142117588e-01,5.32383e-05,9.99999e-01,9.99999e-01,5.32383e-05,9.99999e-01
4.162828176e-01,6.46610e-05,9.99999e-01,9.99999e-01,6.46610e-05,9.99999e-01
4.183642317e-01,7.82334e-05,9.99999e-01,9.99999e-01,7.82334e-05,9.99999e-01
4.204560528e-01,9.42992e-05,9.99999e-01,9.99999e-01,9.42992e-05,9.99999e-01
4.225583331e-01,1.13246e-04,9.99999e-01,9.99999e-01,1.13246e-04,9.99999e-01
4.246711247e-01,1.35508e-04,9.99999e-01,9.99999e-01,1.35508e-04,9.99999e-01
4.267944804e-01,1.61573e-04,9.99999e-01,9.99999e-01,1.61573e-04,9.99999e-01
4.289284528e-01,1.91983e-04,9.99999e-01,9.99999e-01,1.91983e-04,9.99999e-01
4.310730950e-01,2.27340e-04,9.99999e-01,9.99999e-01,2.27340e-04,9.99999e-01
4.332284605e-01,2.68313e-04,9.99999e-01,9.99999e-01,2.68313e-04,9.99999e-01
4.353946028e-01,3.15634e-04,9.99999e-01,9.99999e-01,3.15634e-04,9.99999e-01
4.375715758e-01,3.70113e-04,9.99999e-01,9.99999e-01,3.70113e-04,9.99999e-01
4.397594337e-01,4.32631e-04,9.99999e-01,9.99999e-01,4.32631e-04,9.99999e-01
4.419582309e-01,5.04154e-04,9.99999e-01,9.99999e-01,5.04154e-04,9.99999e-01
4.441680220e-01,5.85727e-04,9.99999e-01,9.99999e-01,5.85727e-04,9.99999e-01
4.463888621e-01,6.78487e-04,9.99999e-01,9.99999e-01,6.78487e-04,9.99999e-01
4.486208064e-01,7.83658e-04,9.99999e-01,9.99999e-01,7.83658e-04,9.99999e-01
4.508639105e-01,9.02558e-04,9.99999e-01,9.99999e-01,9.02558e-04,9.99999e-01
4.531182300e-01,1.03660e-03,9.99999e-01,9.99999e-01,1.03660e-03,9.99999e-01
4.553838212e-01,1.18730e-03,9.99999e-01,9.99999e-01,1.18730e-03,9.99999e-01
4.576607403e-01,1.35627e-03,9.99999e-01,9.99999e-01,1.35627e-03,9.99999e-01
4.599490440e-01,1.54522e-03,9.99999e-01,9.99999e-01,1.54522e-03,9.99999e-01
4.622487892e-01,1.75596e-03,9.99999e-01,9.99999e-01,1.75596e-03,9.99999e-01
4.645600332e-01,1.99040e-03,9.99999e-01,9.99999e-01,1.99040e-03,9.99999e-01
4.668828333e-01,2.25058e-03,9.99999e-01,9.99999e-01,2.25058e-03,9.99999e-01
4.692172475e-01,2.53859e-03,9.99999e-01,9.99999e-01,2.53859e-03,9.99999e-01
4.715633337e-01,2.85666e-03,9.99999e-01,9.99999e-01,2.85666e-03,9.99999e-01
4.739211504e-01,3.20709e-03,9.99999e-01,9.99999e-01,3.20709e-03,9.99999e-01
4.762907561e-01,3.59229e-03,9.99999e-01,9.99999e-01,3.59229e-03,9.99999e-01
4.786722099e-01,4.01476e-03,9.99999e-01,9.99999e-01,4.01476e-03,9.99999e-01
4.810655710e-01,4.47706e-03,9.99999e-01,9.99999e-01,4.47706e-03,9.99999e-01
4.834708988e-01,4.98186e-03,9.99999e-01,9.99999e-01,4.98186e-03,9.99999e-01
4.858882533e-01,5.53189e-03,9.99999e-01,9.99999e-01,5.53189e-03,9.99999e-01
4.883176946e-01,6.12996e-03,9.99999e-01,9.99999e-01,6.12996e-03,9.99999e-01
4.907592831e-01,6.77893e-03,9.99999e-01,9.99999e-01,6.77893e-03,9.99999e-01
4.932130795e-01,7.48171e-03,9.99999e-01,9.99999e-01,7.48171e-03,9.99999e-01
4.956791449e-01,8.24128e-03,9.99999e-01,9.99999e-01,8.24128e-03,9.99999e-01
4.981575406e-01,9.06064e-03,9.99999e-01,9.99999e-01,9.06064e-03,9.99999e-01
5.006483283e-01,9.94283e-03,9.99999e-01,9.99999e-01,9.94283e-03,9.99999e-01
5.031515699e-01,1.08909e-02,9.99999e-01,9.99999e-01,1.08909e-02,9.99999e-01
5.056673278e-01,1.19079e-02,9.99999e-01,9.99999e-01,1.19079e-02,9.99999e-01
5.081956644e-01,1.29970e-02,9.99999e-01,9.99999e-01,1.29970e-02,9.99999e-01
5.107366428e-01,1.41612e-02,9.99999e-01,9.99999e-01,1.41612e-02,9.99999e-01
5.132903260e-01,1.54035e-02,9.99999e-01,9.99999e-01,1.54035e-02,9.99999e-01
5.158567776e-01,1.67271e-02,9.99999e-01,9.99999e-01,1.67271e-02,9.99999e-01
5.184360615e-01,1.81347e-02,9.99999e-01,9.99999e-01,1.81347e-02,9.99999e-01
5.210282418e-01,1.96295e-02,9.99999e-01,9.99999e-01,1.96295e-02,9.99999e-01
5.236333830e-01,2.12143e-02,9.99999e-01,9.99999e-01,2.12143e-02,9.99999e-01
5.262515499e-01,2.28919e-02,9.99999e-01,9.99999e-01,2.28919e-02,9.99999e-01
5.288828077e-01,2.46651e-02,9.99999e-01,9.99999e-01,2.46651e-02,9.99999e-01
5.315272217e-01,2.65365e-02,9.99999e-01,9.99999e-01,2.65365e-02,9.99999e-01
5.341848578e-01,2.85086e-02,9.99999e-01,9.99999e-01,2.85086e-02,9.99999e-01
5.368557821e-01,3.05840e-02,9.99999e-01,9.99999e-01,3.05840e-02,9.99999e-01
5.395400610e-01,3.27649e-02,9.99999e-01,9.99999e-01,3.27649e-02,9.99999e-01
5.422377613e-01,3.50537e-02,9.99999e-01,9.99999e-01,3.50537e-02,9.99999e-01
5.449489501e-01,3.74523e-02,9.99999e-01,9.99999e-01,3.74523e-02,9.99999e-01
5.476736949e-01,3.99628e-02,9.99999e-01,9.99999e-01,3.99628e-02,9.99999e-01
5.504120634e-01,4.25870e-02,9.99999e-01,9.99999e-01,4.25870e-02,9.99999e-01
5.531641237e-01,4.53265e-02,9.99999e-01,9.99999e-01,4.53265e-02,9.99999e-01
5.559299443e-01,4.81829e-02,9.99999e-01,9.99999e-01,4.81829e-02,9.99999e-01
5.587095940e-01,5.11574e-02,9.99999e-01,9.99999e-01,5.11574e-02,9.99999e-01
5.615031420e-01,5.42514e-02,9.99999e-01,9.99999e-01,5.42514e-02,9.99999e-01
5.643106577e-01,5.74658e-02,9.99999e-01,9.99999e-01,5.74658e-02,9.99999e-01
5.671322110e-01,6.08015e-02,9.99999e-01,9.99999e-01,6.08015e-02,9.99999e-01
5.699678720e-01,6.42591e-02,9.99999e-01,9.99999e-01,6.42591e-02,9.99999e-01
5.728177114e-01,6.78393e-02,9.99999e-01,9.99999e-01,6.78393e-02,9.99999e-01
5.756818000e-01,7.15422e-02,9.99999e-01,9.99999e-01,7.15422e-02,9.99999e-01
5.785602090e-01,7.53681e-02,9.99999e-01,9.99999e-01,7.53681e-02,9.99999e-01
5.814530100e-01,7.93169e-02,9.99999e-01,9.99999e-01,7.93169e-02,9.99999e-01
5.843602750e-01,8.33885e-02,9.99999e-01,9.99999e-01,8.33885e-02,9.99999e-01
5.872820764e-01,8.75824e-02,9.99999e-01,9.99999e-01,8.75824e-02,9.99999e-01
5.902184868e-01,9.18981e-02,9.99999e-01,9.99999e-01,9.18981e-02,9.99999e-01
5.931695792e-01,9.63350e-02,9.99999e-01,9.99999e-01,9.63350e-02,9.99999e-01
5.961354271e-01,1.00892e-01,9.99999e-01,9.99999e-01,1.00892e-01,9.99999e-01
5.991161043e-01,1.05568e-01,9.99999e-01,9.99999e-01,1.05568e-01,9.99999e-01
6.021116848e-01,1.10362e-01,9.99999e-01,9.99999e-01,1.10362e-01,9.99999e-01
6.051222432e-01,1.15273e-01,9.99999e-01,9.99999e-01,1.15273e-01,9.99999e-01
6.081478544e-01,1.20299e-01,9.99999e-01,9.99999e-01,1.20299e-01,9.99999e-01
6.111885937e-01,1.25438e-01,9.99999e-01,9.99999e-01,1.25438e-01,9.99999e-01
6.142445367e-01,1.30688e-01,9.99999e-01,9.99999e-01,1.30688e-01,9.99999e-01
6.173157594e-01,1.36048e-01,9.99999e-01,9.99999e-01,1.36048e-01,9.99999e-01
6.204023382e-01,1.41516e-01,9.99999e-01,9.99999e-01,1.41516e-01,9.99999e-01
6.235043498e-01,1.47088e-01,9.99999e-01,9.99999e-01,1.47088e-01,9.99999e-01
6.266218716e-01,1.52764e-01,9.99999e-01,9.99999e-01,1.52764e-01,9.99999e-01
6.297549810e-01,1.58540e-01,9.99999e-01,9.99999e-01,1.58540e-01,9.99999e-01
6.329037559e-01,1.64413e-01,9.99999e-01,9.99999e-01,1.64413e-01,9.99999e-01
6.360682746e-01,1.70382e-01,9.99999e-01,9.99999e-01,1.70382e-01,9.99999e-01
6.392486160e-01,1.76443e-01,9.99999e-01,9.99999e-01,1.76443e-01,9.99999e-01
6.424448591e-01,1.82594e-01,9.99999e-01,9.99999e-01,1.82594e-01,9.99999e-01
6.456570834e-01,1.88831e-01,9.99999e-01,9.99999e-01,1.88831e-01,9.99999e-01
6.488853688e-01,1.95152e-01,9.99999e-01,9.99999e-01,1.95152e-01,9.99999e-01
6.521297956e-01,2.01554e-01,9.99999e-01,9.99999e-01,2.01554e-01,9.99999e-01
6.553904446e-01,2.08032e-01,9.99999e-01,9.99999e-01,2.08032e-01,9.99999e-01
6.586673968e-01,2.14585e-01,9.99999e-01,9.99999e-01,2.14585e-01,9.99999e-01
6.619607338e-01,2.21208e-01,9.99999e-01,9.99999e-01,2.21208e-01,9.99999e-01
6.652705375e-01,2.27900e-01,9.99999e-01,9.99999e-01,2.27900e-01,9.99999e-01
6.685968902e-01,2.34655e-01,9.99999e-01,9.99999e-01,2.34655e-01,9.99999e-01
6.719398746e-01,2.41471e-01,9.99999e-01,9.99999e-01,2.41471e-01,9.99999e-01
6.752995740e-01,2.48345e-01,9.99999e-01,9.99999e-01,2.48345e-01,9.99999e-01
6.786760719e-01,2.55273e-01,9.99999e-01,9.99999e-01,2.55273e-01,9.99999e-01
6.820694522e-01,2.62251e-01,9.99999e-01,9.99999e-01,2.62251e-01,9.99999e-01
6.854797995e-01,2.69277e-01,9.99999e-01,9.99999e-01,2.69277e-01,9.99999e-01
6.889071985e-01,2.76347e-01,9.99999e-01,9.99999e-01,2.76347e-01,9.99999e-01
6.923517345e-01,2.83457e-01,9.99999e-01,9.99999e-01,2.83457e-01,9.99999e-01
6.958134932e-01,2.90604e-01,9.99999e-01,9.99999e-01,2.90604e-01,9.99999e-01
6.992925606e-01,2.97785e-01,9.99999e-01,9.99999e-01,2.97785e-01,9.99999e-01
7.027890234e-01,3.04996e-01,9.99999e-01,9.99999e-01,3.04996e-01,9.99999e-01
7.063029686e-01,3.12234e-01,9.99999e-01,9.99999e-01,3.12234e-01,9.99999e-01
7.098344834e-01,3.19497e-01,9.99999e-01,9.99999e-01,3.19497e-01,9.99999e-01
7.133836558e-01,3.26779e-01,9.99999e-01,9.99999e-01,3.26779e-01,9.99999e-01
7.169505741e-01,3.34079e-01,9.99999e-01,9.99999e-01,3.34079e-01,9.99999e-01
7.205353270e-01,3.41392e-01,9.99999e-01,9.99999e-01,3.41392e-01,9.99999e-01
7.241380036e-01,3.48717e-01,9.99999e-01,9.99999e-01,3.48717e-01,9.99999e-01
7.277586936e-01,3.56050e-01,9.99999e-01,9.99999e-01,3.56050e-01,9.99999e-01
7.313974871e-01,3.63387e-01,9.99999e-01,9.99999e-01,3.63387e-01,9.99999e-01
7.350544745e-01,3.70726e-01,9.99999e-01,9.99999e-01,3.70726e-01,9.99999e-01
7.387297469e-01,3.78064e-01,9.99999e-01,9.99999e-01,3.78064e-01,9.99999e-01
7.424233956e-01,3.85398e-01,9.99999e-01,9.99999e-01,3.85398e-01,9.99999e-01
7.461355126e-01,3.92725e-01,9.99999e-01,9.99999e-01,3.92725e-01,9.99999e-01
7.498661902e-01,4.00043e-01,9.99999e-01,9.99999e-01,4.00043e-01,9.99999e-01
7.536155211e-01,4.07348e-01,9.99999e-01,9.99999e-01,4.07348e-01,9.99999e-01
7.573835987e-01,4.14639e-01,9.99999e-01,9.99999e-01,4.14639e-01,9.99999e-01
7.611705167e-01,4.21912e-01,9.99999e-01,9.99999e-01,4.21912e-01,9.99999e-01
7.649763693e-01,4.29166e-01,9.99999e-01,9.99999e-01,4.29166e-01,9.99999e-01
7.688012511e-01,4.36397e-01,9.99999e-01,9.99999e-01,4.36397e-01,9.99999e-01
7.726452574e-01,4.43603e-01,9.99999e-01,9.99999e-01,4.43603e-01,9.99999e-01
7.765084837e-01,4.50783e-01,9.99999e-01,9.99999e-01,4.50783e-01,9.99999e-01
7.803910261e-01,4.40730e-01,9.99999e-01,9.62432e-01,4.57933e-01,9.99999e-01
7.842929812e-01,3.94744e-01,9.99999e-01,8.48814e-01,4.65053e-01,9.99999e-01
7.882144461e-01,3.95812e-01,9.99999e-01,8.38337e-01,4.72139e-01,9.99999e-01
7.921555184e-01,4.32229e-01,9.99999e-01,9.01999e-01,4.79190e-01,9.99999e-01
7.961162960e-01,4.53934e-01,9.99999e-01,9.33628e-01,4.86204e-01,9.99999e-01
8.000968774e-01,4.75131e-01,9.99999e-01,9.63403e-01,4.93179e-01,9.99999e-01
8.040973618e-01,4.90578e-01,9.99999e-01,9.80932e-01,5.00114e-01,9.99999e-01
8.081178486e-01,5.02532e-01,9.99999e-01,9.91175e-01,5.07006e-01,9.99999e-01
8.121584379e-01,5.12460e-01,9.99999e-01,9.97287e-01,5.13854e-01,9.99999e-01
8.162192301e-01,5.20344e-01,9.99999e-01,9.99400e-01,5.20656e-01,9.99999e-01
8.203003262e-01,5.27408e-01,9.99999e-01,9.99991e-01,5.27412e-01,9.99999e-01
8.244018279e-01,5.34119e-01,9.99999e-01,9.99999e-01,5.34119e-01,9.99999e-01
8.285238370e-01,5.40777e-01,9.99999e-01,9.99999e-01,5.40777e-01,9.99999e-01
8.326664562e-01,5.47383e-01,9.99999e-01,9.99999e-01,5.47383e-01,9.99999e-01
8.368297885e-01,5.53938e-01,9.99999e-01,9.99999e-01,5.53938e-01,9.99999e-01
8.410139374e-01,5.60439e-01,9.99999e-01,9.99999e-01,5.60439e-01,9.99999e-01
8.452190071e-01,5.66886e-01,9.99999e-01,9.99999e-01,5.66886e-01,9.99999e-01
8.494451021e-01,5.73277e-01,9.99999e-01,9.99999e-01,5.73277e-01,9.99999e-01
8.536923276e-01,5.79612e-01,9.99999e-01,9.99999e-01,5.79612e-01,9.99999e-01
8.579607893e-01,5.85890e-01,9.99999e-01,9.99999e-01,5.85890e-01,9.99999e-01
8.622505932e-01,5.92110e-01,9.99999e-01,9.99999e-01,5.92110e-01,9.99999e-01
8.665618462e-01,5.50064e-01,9.99999e-01,9.19423e-01,5.98271e-01,9.99999e-01
8.708946554e-01,3.98182e-01,9.99999e-01,6.58836e-01,6.04372e-01,9.99999e-01
8.752491287e-01,4.36322e-01,9.99999e-01,7.14796e-01,6.10414e-01,9.99999e-01
8.796253743e-01,5.12517e-01,9.99999e-01,8.31475e-01,6.16395e-01,9.99999e-01
8.840235012e-01,5.65471e-01,9.99999e-01,9.08657e-01,6.22314e-01,9.99999e-01
8.884436187e-01,6.04979e-01,9.99999e-01,9.63078e-01,6.28172e-01,9.99999e-01
8.928858368e-01,6.24363e-01,9.99999e-01,9.84849e-01,6.33967e-01,9.99999e-01
8.973502660e-01,6.37344e-01,9.99999e-01,9.96316e-01,6.39700e-01,9.99999e-01
9.018370173e-01,6.45109e-01,9.99999e-01,9.99594e-01,6.45370e-01,9.99999e-01
9.063462024e-01,6.44054e-01,9.99999e-01,9.89364e-01,6.50977e-01,9.99999e-01
9.108779334e-01,6.40867e-01,9.99999e-01,9.76156e-01,6.56520e-01,9.99999e-01
9.154323231e-01,6.58292e-01,9.99999e-01,9.94397e-01,6.62000e-01,9.99999e-01
9.200094847e-01,6.14293e-01,9.99999e-01,9.20404e-01,6.67416e-01,9.99999e-01
9.246095321e-01,5.97768e-01,9.99999e-01,8.88520e-01,6.72768e-01,9.99999e-01
9.292325798e-01,6.17660e-01,9.99999e-01,9.10928e-01,6.78055e-01,9.99999e-01
9.338787427e-01,6.24759e-01,9.99999e-01,9.14354e-01,6.83279e-01,9.99999e-01
9.385481364e-01,6.44569e-01,9.99999e-01,9.36275e-01,6.88439e-01,9.99999e-01
9.432408771e-01,6.66184e-01,9.99999e-01,9.60563e-01,6.93534e-01,9.99999e-01
9.479570815e-01,6.84272e-01,9.99999e-01,9.79538e-01,6.98565e-01,9.99999e-01
9.526968669e-01,6.96568e-01,9.99999e-01,9.90099e-01,7.03533e-01,9.99999e-01
9.574603512e-01,7.05431e-01,9.99999e-01,9.95757e-01,7.08436e-01,9.99999e-01
9.622476530e-01,7.12332e-01,9.99999e-01,9.98676e-01,7.13276e-01,9.99999e-01
9.670588912e-01,7.17768e-01,9.99999e-01,9.99603e-01,7.18053e-01,9.99999e-01
9.718941857e-01,7.22746e-01,9.99999e-01,9.99972e-01,7.22766e-01,9.99999e-01
9.767536566e-01,7.27416e-01,9.99999e-01,9.99999e-01,7.27416e-01,9.99999e-01
9.816374249e-01,7.32003e-01,9.99999e-01,9.99999e-01,7.32003e-01,9.99999e-01
9.865456120e-01,7.36528e-01,9.99999e-01,9.99999e-01,7.36528e-01,9.99999e-01
9.914783401e-01,7.40990e-01,9.99999e-01,9.99999e-01,7.40990e-01,9.99999e-01
9.964357318e-01,7.45390e-01,9.99999e-01,9.99999e-01,7.45390e-01,9.99999e-01
1.001417910e+00,7.49729e-01,9.99999e-01,9.99999e-01,7.49729e-01,9.99999e-01
1.006425000e+00,7.54007e-01,9.99999e-01,9.99999e-01,7.54007e-01,9.99999e-01
1.011457125e+00,7.58224e-01,9.99999e-01,9.99999e-01,7.58224e-01,9.99999e-01
1.016514411e+00,7.62381e-01,9.99999e-01,9.99999e-01,7.62381e-01,9.99999e-01
1.021596983e+00,7.66430e-01,9.99999e-01,9.99937e-01,7.66477e-01,9.99999e-01
1.026704968e+00,7.67299e-01,9.99999e-01,9.95827e-01,7.70514e-01,9.99999e-01
1.031838492e+00,7.36077e-01,9.99999e-01,9.50399e-01,7.74492e-01,9.99999e-01
1.036997685e+00,1.08460e-01,9.99999e-01,1.39335e-01,7.78412e-01,9.99999e-01
1.042182673e+00,7.89113e-02,9.99999e-01,1.00874e-01,7.82273e-01,9.99999e-01
1.047393587e+00,9.66099e-02,9.99999e-01,1.22901e-01,7.86076e-01,9.99999e-01
1.052630555e+00,2.04960e-03,9.99999e-01,2.59501e-03,7.89822e-01,9.99999e-01
1.057893707e+00,5.53660e-03,9.99999e-01,6.97733e-03,7.93512e-01,9.99999e-01
1.063183176e+00,2.02726e-02,9.99999e-01,2.54314e-02,7.97145e-01,9.99999e-01
1.068499092e+00,6.11215e-02,9.99999e-01,7.63328e-02,8.00723e-01,9.99999e-01
1.073841587e+00,1.58537e-01,9.99999e-01,1.97125e-01,8.04246e-01,9.99999e-01
1.079210795e+00,2.88756e-01,9.99999e-01,3.57498e-01,8.07714e-01,9.99999e-01
1.084606849e+00,4.60321e-01,9.99999e-01,5.67507e-01,8.11128e-01,9.99999e-01
1.090029883e+00,6.06717e-01,9.99999e-01,7.44904e-01,8.14489e-01,9.99999e-01
1.095480033e+00,7.07436e-01,9.99999e-01,8.65050e-01,8.17797e-01,9.99999e-01
1.100957433e+00,7.65636e-01,9.99999e-01,9.32505e-01,8.21052e-01,9.99999e-01
1.106462220e+00,8.00806e-01,9.99999e-01,9.71548e-01,8.24256e-01,9.99999e-01
1.111994531e+00,8.18604e-01,9.99999e-01,9.89358e-01,8.27409e-01,9.99999e-01
1.117554504e+00,8.28354e-01,9.99999e-01,9.97402e-01,8.30511e-01,9.99999e-01
1.123142276e+00,8.33422e-01,9.99999e-01,9.99829e-01,8.33563e-01,9.99999e-01
1.128757988e+00,8.36566e-01,9.99999e-01,9.99999e-01,8.36566e-01,9.99999e-01
1.134401778e+00,8.39520e-01,9.99999e-01,9.99999e-01,8.39520e-01,9.99999e-01
1.140073787e+00,8.42426e-01,9.99999e-01,9.99999e-01,8.42426e-01,9.99999e-01
1.145774156e+00,8.45284e-01,9.99999e-01,9.99999e-01,8.45284e-01,9.99999e-01
1.151503026e+00,8.48095e-01,9.99999e-01,9.99999e-01,8.48095e-01,9.99999e-01
1.157260541e+00,8.50859e-01,9.99999e-01,9.99999e-01,8.50859e-01,9.99999e-01
1.163046844e+00,8.53578e-01,9.99999e-01,9.99999e-01,8.53578e-01,9.99999e-01
1.168862078e+00,8.56252e-01,9.99999e-01,9.99999e-01,8.56252e-01,9.99999e-01
1.174706389e+00,8.58880e-01,9.99999e-01,9.99999e-01,8.58880e-01,9.99999e-01
1.180579921e+00,8.61465e-01,9.99999e-01,9.99999e-01,8.61465e-01,9.99999e-01
1.186482820e+00,8.63998e-01,9.99999e-01,9.99990e-01,8.64006e-01,9.99999e-01
1.192415234e+00,8.53641e-01,9.99999e-01,9.85154e-01,8.66504e-01,9.99999e-01
1.198377311e+00,4.85154e-01,9.99999e-01,5.58315e-01,8.68960e-01,9.99999e-01
1.204369197e+00,4.60166e-12,9.99999e-01,5.28092e-12,8.71375e-01,9.99999e-01
1.210391043e+00,2.06270e-44,9.99999e-01,2.36075e-44,8.73747e-01,9.99999e-01
1.216442998e+00,1.25474e-38,9.99999e-01,1.43222e-38,8.76080e-01,9.99999e-01
1.222525213e+00,4.53889e-38,9.99999e-01,5.16738e-38,8.78372e-01,9.99999e-01
1.228637839e+00,1.72124e-29,9.99999e-01,1.95456e-29,8.80625e-01,9.99999e-01
1.234781029e+00,5.01560e-19,9.99999e-01,5.68121e-19,8.82839e-01,9.99999e-01
1.240954934e+00,8.01363e-13,9.99999e-01,9.05479e-13,8.85015e-01,9.99999e-01
1.247159708e+00,4.78972e-07,9.99999e-01,5.39897e-07,8.87153e-01,9.99999e-01
1.253395507e+00,1.43115e-04,9.99999e-01,1.60939e-04,8.89253e-01,9.99999e-01
1.259662485e+00,5.93246e-03,9.99999e-01,6.65582e-03,8.91317e-01,9.99999e-01
1.265960797e+00,4.97360e-02,9.99999e-01,5.56739e-02,8.93345e-01,9.99999e-01
1.272290601e+00,2.61250e-01,9.99999e-01,2.91789e-01,8.95338e-01,9.99999e-01
1.278652054e+00,2.20753e-01,9.99999e-01,2.46020e-01,8.97295e-01,9.99999e-01
1.285045314e+00,3.75665e-03,9.99999e-01,4.17768e-03,8.99218e-01,9.99999e-01
1.291470541e+00,6.99742e-06,9.99999e-01,7.76536e-06,9.01107e-01,9.99999e-01
1.297927893e+00,6.38453e-03,9.99999e-01,7.07064e-03,9.02962e-01,9.99999e-01
1.304417533e+00,9.56299e-02,9.99999e-01,1.05693e-01,9.04784e-01,9.99999e-01
1.310939621e+00,1.55404e-02,9.99999e-01,1.71418e-02,9.06574e-01,9.99999e-01
1.317494319e+00,8.13402e-16,9.99999e-01,8.95489e-16,9.08332e-01,9.99999e-01
1.324081790e+00,8.04978e-11,9.99999e-01,8.84533e-11,9.10059e-01,9.99999e-01
1.330702199e+00,2.09729e-06,9.99999e-01,2.30027e-06,9.11755e-01,9.99999e-01
1.337355710e+00,3.14015e-06,9.99999e-01,3.43779e-06,9.13420e-01,9.99999e-01
1.344042489e+00,9.57456e-07,9.99999e-01,1.04634e-06,9.15055e-01,9.99999e-01
1.350762701e+00,1.29777e-06,9.99999e-01,1.41576e-06,9.16661e-01,9.99999e-01
1.357516515e+00,1.74535e-04,9.99999e-01,1.90076e-04,9.18238e-01,9.99999e-01
1.364304097e+00,3.28640e-03,9.99999e-01,3.57300e-03,9.19786e-01,9.99999e-01
1.371125618e+00,4.93448e-02,9.99999e-01,5.35595e-02,9.21307e-01,9.99999e-01
1.377981246e+00,8.22830e-02,9.99999e-01,8.91666e-02,9.22800e-01,9.99999e-01
1.384871152e+00,2.26583e-01,9.99999e-01,2.45149e-01,9.24265e-01,9.99999e-01
1.391795508e+00,2.52646e-01,9.99999e-01,2.72923e-01,9.25704e-01,9.99999e-01
1.398754485e+00,4.15402e-01,9.99999e-01,4.48057e-01,9.27117e-01,9.99999e-01
1.405748258e+00,5.14686e-01,9.99999e-01,5.54317e-01,9.28504e-01,9.99999e-01
1.412776999e+00,6.40490e-01,9.99999e-01,6.88798e-01,9.29865e-01,9.99999e-01
1.419840884e+00,5.71908e-01,9.99999e-01,6.14161e-01,9.31202e-01,9.99999e-01
1.426940089e+00,4.90710e-02,9.99999e-01,5.26223e-02,9.32514e-01,9.99999e-01
1.434074789e+00,0.00000e+00,9.99999e-01,0.00000e+00,9.33801e-01,9.99999e-01
1.441245163e+00,0.00000e+00,9.99999e-01,0.00000e+00,9.35066e-01,9.99999e-01
1.448451389e+00,0.00000e+00,9.99999e-01,0.00000e+00,9.36306e-01,9.99999e-01
1.455693646e+00,0.00000e+00,9.99999e-01,0.00000e+00,9.37524e-01,9.99999e-01
1.462972114e+00,2.18000e-173,9.99999e-01,2.32231e-173,9.38720e-01,9.99999e-01
1.470286975e+00,1.14103e-72,9.99999e-01,1.21400e-72,9.39893e-01,9.99999e-01
