#,Wave/freq,Total,O2,CO2,Rayleigh,CIA
4.000000000e-01,2.85436e-23,9.99999e-01,9.99999e-01,2.85436e-23,9.99999e-01
4.020000000e-01,7.96683e-23,9.99999e-01,9.99999e-01,7.96683e-23,9.99999e-01
4.040100000e-01,2.17666e-22,9.99999e-01,9.99999e-01,2.17666e-22,9.99999e-01
4.060300500e-01,5.83005e-22,9.99999e-01,9.99999e-01,5.83005e-22,9.99999e-01
4.080602003e-01,1.53145e-21,9.99999e-01,9.99999e-01,1.53145e-21,9.99999e-01
4.101005013e-01,3.94683e-21,9.99999e-01,9.99999e-01,3.94683e-21,9.99999e-01
4.121510038e-01,9.98328e-21,9.99999e-01,9.99999e-01,9.98328e-21,9.99999e-01
4.142117588e-01,2.47935e-20,9.99999e-01,9.99999e-01,2.47935e-20,9.99999e-01
4.162828176e-01,6.04780e-20,9.99999e-01,9.99999e-01,6.04780e-20,9.99999e-01
4.183642317e-01,1.44947e-19,9.99999e-01,9.99999e-01,1.44947e-19,9.99999e-01
4.204560528e-01,3.41445e-19,9.99999e-01,9.99999e-01,3.41445e-19,9.99999e-01
4.225583331e-01,7.90832e-19,9.99999e-01,9.99999e-01,7.90832e-19,9.99999e-01
4.246711247e-01,1.80153e-18,9.99999e-01,9.99999e-01,1.80153e-18,9.99999e-01
4.267944804e-01,4.03772e-18,9.99999e-01,9.99999e-01,4.03772e-18,9.99999e-01
4.289284528e-01,8.90653e-18,9.99999e-01,9.99999e-01,8.90653e-18,9.99999e-01
4.310730950e-01,1.93417e-17,9.99999e-01,9.99999e-01,1.93417e-17,9.99999e-01
4.332284605e-01,4.13645e-17,9.99999e-01,9.99999e-01,4.13645e-17,9.99999e-01
4.353946028e-01,8.71444e-17,9.99999e-01,9.99999e-01,8.71444e-17,9.99999e-01
4.375715758e-01,1.80909e-16,9.99999e-01,9.99999e-01,1.80909e-16,9.99999e-01
4.397594337e-01,3.70181e-16,9.99999e-01,9.99999e-01,3.70181e-16,9.99999e-01
4.419582309e-01,7.46837e-16,9.99999e-01,9.99999e-01,7.46837e-16,9.99999e-01
4.441680220e-01,1.48599e-15,9.99999e-01,9.99999e-01,1.48599e-15,9.99999e-01
4.463888621e-01,2.91680e-15,9.99999e-01,9.99999e-01,2.91680e-15,9.99999e-01
4.486208064e-01,5.64951e-15,9.99999e-01,9.99999e-01,5.64951e-15,9.99999e-01
4.508639105e-01,1.08005e-14,9.99999e-01,9.99999e-01,1.08005e-14,9.99999e-01
4.531182300e-01,2.03853e-14,9.99999e-01,9.99999e-01,2.03853e-14,9.99999e-01
4.553838212e-01,3.79964e-14,9.99999e-01,9.99999e-01,3.79964e-14,9.99999e-01
4.576607403e-01,6.99562e-14,9.99999e-01,9.99999e-01,6.99562e-14,9.99999e-01
4.599490440e-01,1.27255e-13,9.99999e-01,9.99999e-01,1.27255e-13,9.99999e-01
4.622487892e-01,2.28764e-13,9.99999e-01,9.99999e-01,2.28764e-13,9.99999e-01
4.645600332e-01,4.06510e-13,9.99999e-01,9.99999e-01,4.06510e-13,9.99999e-01
4.668828333e-01,7.14205e-13,9.99999e-01,9.99999e-01,7.14205e-13,9.99999e-01
4.692172475e-01,1.24091e-12,9.99999e-01,9.99999e-01,1.24091e-12,9.99999e-01
4.715633337e-01,2.13264e-12,9.99999e-01,9.99999e-01,2.13264e-12,9.99999e-01
4.739211504e-01,3.62619e-12,9.99999e-01,9.99999e-01,3.62619e-12,9.99999e-01
4.762907561e-01,6.10141e-12,9.99999e-01,9.99999e-01,6.10141e-12,9.99999e-01
4.786722099e-01,1.01612e-11,9.99999e-01,9.99999e-01,1.01612e-11,9.99999e-01
4.810655710e-01,1.67527e-11,9.99999e-01,9.99999e-01,1.67527e-11,9.99999e-01
4.834708988e-01,2.73487e-11,9.99999e-01,9.99999e-01,2.73487e-11,9.99999e-01
4.858882533e-01,4.42164e-11,9.99999e-01,9.99999e-01,4.42164e-11,9.99999e-01
4.883176946e-01,7.08123e-11,9.99999e-01,9.99999e-01,7.08123e-11,9.99999e-01
4.907592831e-01,1.12355e-10,9.99999e-01,9.99999e-01,1.12355e-10,9.99999e-01
4.932130795e-01,1.76652e-10,9.99999e-01,9.99999e-01,1.76652e-10,9.99999e-01
4.956791449e-01,2.75273e-10,9.99999e-01,9.99999e-01,2.75273e-10,9.99999e-01
4.981575406e-01,4.25208e-10,9.99999e-01,9.99999e-01,4.25208e-10,9.99999e-01
5.006483283e-01,6.51193e-10,9.99999e-01,9.99999e-01,6.51193e-10,9.99999e-01
5.031515699e-01,9.88922e-10,9.99999e-01,9.99999e-01,9.88922e-10,9.99999e-01
5.056673278e-01,1.48946e-09,9.99999e-01,9.99999e-01,1.48946e-09,9.99999e-01
5.081956644e-01,2.22528e-09,9.99999e-01,9.99999e-01,2.22528e-09,9.99999e-01
5.107366428e-01,3.29834e-09,9.99999e-01,9.99999e-01,3.29834e-09,9.99999e-01
5.132903260e-01,4.85098e-09,9.99999e-01,9.99999e-01,4.85098e-09,9.99999e-01
5.158567776e-01,7.08035e-09,9.99999e-01,9.99999e-01,7.08035e-09,9.99999e-01
5.184360615e-01,1.02574e-08,9.99999e-01,9.99999e-01,1.02574e-08,9.99999e-01
5.210282418e-01,1.47516e-08,9.99999e-01,9.99999e-01,1.47516e-08,9.99999e-01
5.236333830e-01,2.10631e-08,9.99999e-01,9.99999e-01,2.10631e-08,9.99999e-01
5.262515499e-01,2.98643e-08,9.99999e-01,9.99999e-01,2.98643e-08,9.99999e-01
5.288828077e-01,4.20520e-08,9.99999e-01,9.99999e-01,4.20520e-08,9.99999e-01
5.315272217e-01,5.88147e-08,9.99999e-01,9.99999e-01,5.88147e-08,9.99999e-01
5.341848578e-01,8.17158e-08,9.99999e-01,9.99999e-01,8.17158e-08,9.99999e-01
5.368557821e-01,1.12799e-07,9.99999e-01,9.99999e-01,1.12799e-07,9.99999e-01
5.395400610e-01,1.54718e-07,9.99999e-01,9.99999e-01,1.54718e-07,9.99999e-01
5.422377613e-01,2.10894e-07,9.99999e-01,9.99999e-01,2.10894e-07,9.99999e-01
5.449489501e-01,2.85713e-07,9.99999e-01,9.99999e-01,2.85713e-07,9.99999e-01
5.476736949e-01,3.84761e-07,9.99999e-01,9.99999e-01,3.84761e-07,9.99999e-01
5.504120634e-01,5.15109e-07,9.99999e-01,9.99999e-01,5.15109e-07,9.99999e-01
5.531641237e-01,6.85654e-07,9.99999e-01,9.99999e-01,6.85654e-07,9.99999e-01
5.559299443e-01,9.07522e-07,9.99999e-01,9.99999e-01,9.07522e-07,9.99999e-01
5.587095940e-01,1.19455e-06,9.99999e-01,9.99999e-01,1.19455e-06,9.99999e-01
5.615031420e-01,1.56385e-06,9.99999e-01,9.99999e-01,1.56385e-06,9.99999e-01
5.643106577e-01,2.03645e-06,9.99999e-01,9.99999e-01,2.03645e-06,9.99999e-01
5.671322110e-01,2.63808e-06,9.99999e-01,9.99999e-01,2.63808e-06,9.99999e-01
5.699678720e-01,3.40001e-06,9.99999e-01,9.99999e-01,3.40001e-06,9.99999e-01
5.728177114e-01,4.36011e-06,9.99999e-01,9.99999e-01,4.36011e-06,9.99999e-01
5.756818000e-01,5.56392e-06,9.99999e-01,9.99999e-01,5.56392e-06,9.99999e-01
5.785602090e-01,7.06598e-06,9.99999e-01,9.99999e-01,7.06598e-06,9.99999e-01
5.814530100e-01,8.93129e-06,9.99999e-01,9.99999e-01,8.93129e-06,9.99999e-01
5.843602750e-01,1.12369e-05,9.99999e-01,9.99999e-01,1.12369e-05,9.99999e-01
5.872820764e-01,1.40737e-05,9.99999e-01,9.99999e-01,1.40737e-05,9.99999e-01
5.902184868e-01,1.75485e-05,9.99999e-01,9.99999e-01,1.75485e-05,9.99999e-01
5.931695792e-01,2.17860e-05,9.99999e-01,9.99999e-01,2.17860e-05,9.99999e-01
5.961354271e-01,2.69314e-05,9.99999e-01,9.99999e-01,2.69314e-05,9.99999e-01
5.991161043e-01,3.31530e-05,9.99999e-01,9.99999e-01,3.31530e-05,9.99999e-01
6.021116848e-01,4.06447e-05,9.99999e-01,9.99999e-01,4.06447e-05,9.99999e-01
6.051222432e-01,4.96292e-05,9.99999e-01,9.99999e-01,4.96292e-05,9.99999e-01
6.081478544e-01,6.03611e-05,9.99999e-01,9.99999e-01,6.03611e-05,9.99999e-01
6.111885937e-01,7.31303e-05,9.99999e-01,9.99999e-01,7.31303e-05,9.99999e-01
6.142445367e-01,8.82657e-05,9.99999e-01,9.99999e-01,8.82657e-05,9.99999e-01
6.173157594e-01,1.06138e-04,9.99999e-01,9.99999e-01,1.06138e-04,9.99999e-01
6.204023382e-01,1.27166e-04,9.99999e-01,9.99999e-01,1.27166e-04,9.99999e-01
6.235043498e-01,1.51817e-04,9.99999e-01,9.99999e-01,1.51817e-04,9.99999e-01
6.266218716e-01,1.80613e-04,9.99999e-01,9.99999e-01,1.80613e-04,9.99999e-01
6.297549810e-01,2.14134e-04,9.99999e-01,9.99999e-01,2.14134e-04,9.99999e-01
6.329037559e-01,2.53026e-04,9.99999e-01,9.99999e-01,2.53026e-04,9.99999e-01
6.360682746e-01,2.97996e-04,9.99999e-01,9.99999e-01,2.97996e-04,9.99999e-01
6.392486160e-01,3.49828e-04,9.99999e-01,9.99999e-01,3.49828e-04,9.99999e-01
6.424448591e-01,4.09375e-04,9.99999e-01,9.99999e-01,4.09375e-04,9.99999e-01
6.456570834e-01,4.77574e-04,9.99999e-01,9.99999e-01,4.77574e-04,9.99999e-01
6.488853688e-01,5.55441e-04,9.99999e-01,9.99999e-01,5.55441e-04,9.99999e-01
6.521297956e-01,6.44079e-04,9.99999e-01,9.99999e-01,6.44079e-04,9.99999e-01
6.553904446e-01,7.44681e-04,9.99999e-01,9.99999e-01,7.44681e-04,9.99999e-01
6.586673968e-01,8.58532e-04,9.99999e-01,9.99999e-01,8.58532e-04,9.99999e-01
6.619607338e-01,9.87012e-04,9.99999e-01,9.99999e-01,9.87012e-04,9.99999e-01
6.652705375e-01,1.13160e-03,9.99999e-01,9.99999e-01,1.13160e-03,9.99999e-01
6.685968902e-01,1.29387e-03,9.99999e-01,9.99999e-01,1.29387e-03,9.99999e-01
6.719398746e-01,1.47549e-03,9.99999e-01,9.99999e-01,1.47549e-03,9.99999e-01
6.752995740e-01,1.67825e-03,9.99999e-01,9.99999e-01,1.67825e-03,9.99999e-01
6.786760719e-01,1.90403e-03,9.99999e-01,9.99999e-01,1.90403e-03,9.99999e-01
6.820694522e-01,2.15480e-03,9.99999e-01,9.99999e-01,2.15480e-03,9.99999e-01
6.854797995e-01,2.43264e-03,9.99999e-01,9.99999e-01,2.43264e-03,9.99999e-01
6.889071985e-01,2.73974e-03,9.99999e-01,9.99999e-01,2.73974e-03,9.99999e-01
6.923517345e-01,3.07837e-03,9.99999e-01,9.99999e-01,3.07837e-03,9.99999e-01
6.958134932e-01,3.45090e-03,9.99999e-01,9.99999e-01,3.45090e-03,9.99999e-01
6.992925606e-01,3.85980e-03,9.99999e-01,9.99999e-01,3.85980e-03,9.99999e-01
7.027890234e-01,4.30761e-03,9.99999e-01,9.99999e-01,4.30761e-03,9.99999e-01
7.063029686e-01,4.79696e-03,9.99999e-01,9.99999e-01,4.79696e-03,9.99999e-01
7.098344834e-01,5.33055e-03,9.99999e-01,9.99999e-01,5.33055e-03,9.99999e-01
7.133836558e-01,5.91118e-03,9.99999e-01,9.99999e-01,5.91118e-03,9.99999e-01
7.169505741e-01,6.54168e-03,9.99999e-01,9.99999e-01,6.54168e-03,9.99999e-01
7.205353270e-01,7.22495e-03,9.99999e-01,9.99999e-01,7.22495e-03,9.99999e-01
7.241380036e-01,7.96394e-03,9.99999e-01,9.99999e-01,7.96394e-03,9.99999e-01
7.277586936e-01,8.76165e-03,9.99999e-01,9.99999e-01,8.76165e-03,9.99999e-01
7.313974871e-01,9.62111e-03,9.99999e-01,9.99999e-01,9.62111e-03,9.99999e-01
7.350544745e-01,1.05454e-02,9.99999e-01,9.99999e-01,1.05454e-02,9.99999e-01
7.387297469e-01,1.15375e-02,9.99999e-01,9.99999e-01,1.15375e-02,9.99999e-01
7.424233956e-01,1.26005e-02,9.99999e-01,9.99999e-01,1.26005e-02,9.99999e-01
7.461355126e-01,1.37376e-02,9.99999e-01,9.99999e-01,1.37376e-02,9.99999e-01
7.498661902e-01,1.49517e-02,9.99999e-01,9.99999e-01,1.49517e-02,9.99999e-01
7.536155211e-01,1.62460e-02,9.99999e-01,9.99999e-01,1.62460e-02,9.99999e-01
7.573835987e-01,1.76233e-02,9.99999e-01,9.99999e-01,1.76233e-02,9.99999e-01
7.611705167e-01,1.90868e-02,9.99999e-01,9.99999e-01,1.90868e-02,9.99999e-01
7.649763693e-01,2.06392e-02,9.99999e-01,9.99999e-01,2.06392e-02,9.99999e-01
7.688012511e-01,2.22834e-02,9.99999e-01,9.99999e-01,2.22834e-02,9.99999e-01
7.726452574e-01,2.40222e-02,9.99999e-01,9.99999e-01,2.40222e-02,9.99999e-01
7.765084837e-01,2.58583e-02,9.99999e-01,9.99999e-01,2.58583e-02,9.99999e-01
7.803910261e-01,2.45141e-02,9.99999e-01,8.81986e-01,2.77942e-02,9.99999e-01
7.842929812e-01,1.49513e-02,9.99999e-01,5.01172e-01,2.98325e-02,9.99999e-01
7.882144461e-01,1.55957e-02,9.99999e-01,4.87738e-01,3.19756e-02,9.99999e-01
7.921555184e-01,2.16611e-02,9.99999e-01,6.32888e-01,3.42257e-02,9.99999e-01
7.961162960e-01,2.67191e-02,9.99999e-01,7.30329e-01,3.65850e-02,9.99999e-01
8.000968774e-01,3.29265e-02,9.99999e-01,8.43071e-01,3.90554e-02,9.99999e-01
8.040973618e-01,3.80913e-02,9.99999e-01,9.14800e-01,4.16389e-02,9.99999e-01
8.081178486e-01,4.25637e-02,9.99999e-01,9.60002e-01,4.43371e-02,9.99999e-01
8.121584379e-01,4.65569e-02,9.99999e-01,9.87387e-01,4.71516e-02,9.99999e-01
8.162192301e-01,4.99437e-02,9.99999e-01,9.97199e-01,5.00839e-02,9.99999e-01
8.203003262e-01,5.31328e-02,9.99999e-01,9.99953e-01,5.31352e-02,9.99999e-01
8.244018279e-01,5.63066e-02,9.99999e-01,9.99999e-01,5.63066e-02,9.99999e-01
8.285238370e-01,5.95990e-02,9.99999e-01,9.99999e-01,5.95990e-02,9.99999e-01
8.326664562e-01,6.30131e-02,9.99999e-01,9.99999e-01,6.30131e-02,9.99999e-01
8.368297885e-01,6.65496e-02,9.99999e-01,9.99999e-01,6.65496e-02,9.99999e-01
8.410139374e-01,7.02087e-02,9.99999e-01,9.99999e-01,7.02087e-02,9.99999e-01
8.452190071e-01,7.39908e-02,9.99999e-01,9.99999e-01,7.39908e-02,9.99999e-01
8.494451021e-01,7.78958e-02,9.99999e-01,9.99999e-01,7.78958e-02,9.99999e-01
8.536923276e-01,8.19237e-02,9.99999e-01,9.99999e-01,8.19237e-02,9.99999e-01
8.579607893e-01,8.60741e-02,9.99999e-01,9.99999e-01,8.60741e-02,9.99999e-01
8.622505932e-01,9.03465e-02,9.99999e-01,9.99999e-01,9.03465e-02,9.99999e-01
8.665618462e-01,8.01350e-02,9.99999e-01,8.45838e-01,9.47403e-02,9.99999e-01
8.708946554e-01,1.89518e-02,9.99999e-01,1.90941e-01,9.92546e-02,9.99999e-01
8.752491287e-01,2.50257e-02,9.99999e-01,2.40890e-01,1.03888e-01,9.99999e-01
8.796253743e-01,4.83533e-02,9.99999e-01,4.45075e-01,1.08641e-01,9.99999e-01
8.840235012e-01,7.35990e-02,9.99999e-01,6.48391e-01,1.13510e-01,9.99999e-01
8.884436187e-01,9.96151e-02,9.99999e-01,8.40669e-01,1.18495e-01,9.99999e-01
8.928858368e-01,1.15178e-01,9.99999e-01,9.31906e-01,1.23594e-01,9.99999e-01
8.973502660e-01,1.26604e-01,9.99999e-01,9.82915e-01,1.28805e-01,9.99999e-01
9.018370173e-01,1.33871e-01,9.99999e-01,9.98098e-01,1.34126e-01,9.99999e-01
9.063462024e-01,1.33297e-01,9.99999e-01,9.55154e-01,1.39555e-01,9.99999e-01
9.108779334e-01,1.29892e-01,9.99999e-01,8.95244e-01,1.45091e-01,9.99999e-01
9.154323231e-01,1.46830e-01,9.99999e-01,9.74126e-01,1.50730e-01,9.99999e-01
9.200094847e-01,1.16760e-01,9.99999e-01,7.46209e-01,1.56470e-01,9.99999e-01
9.246095321e-01,9.50560e-02,9.99999e-01,5.85646e-01,1.62309e-01,9.99999e-01
9.292325798e-01,1.12347e-01,9.99999e-01,6.67762e-01,1.68245e-01,9.99999e-01
9.338787427e-01,1.16720e-01,9.99999e-01,6.69753e-01,1.74273e-01,9.99999e-01
9.385481364e-01,1.33795e-01,9.99999e-01,7.41686e-01,1.80393e-01,9.99999e-01
9.432408771e-01,1.55025e-01,9.99999e-01,8.30788e-01,1.86599e-01,9.99999e-01
9.479570815e-01,1.75395e-01,9.99999e-01,9.09298e-01,1.92891e-01,9.99999e-01
9.526968669e-01,1.90337e-01,9.99999e-01,9.55198e-01,1.99264e-01,9.99999e-01
9.574603512e-01,2.01713e-01,9.99999e-01,9.80544e-01,2.05715e-01,9.99999e-01
9.622476530e-01,2.10944e-01,9.99999e-01,9.93882e-01,2.12242e-01,9.99999e-01
9.670588912e-01,2.18438e-01,9.99999e-01,9.98159e-01,2.18841e-01,9.99999e-01
9.718941857e-01,2.25478e-01,9.99999e-01,9.99867e-01,2.25508e-01,9.99999e-01
9.767536566e-01,2.32241e-01,9.99999e-01,9.99999e-01,2.32241e-01,9.99999e-01
9.816374249e-01,2.39036e-01,9.99999e-01,9.99999e-01,2.39036e-01,9.99999e-01
9.865456120e-01,2.45889e-01,9.99999e-01,9.99999e-01,2.45889e-01,9.99999e-01
9.914783401e-01,2.52798e-01,9.99999e-01,9.99999e-01,2.52798e-01,9.99999e-01
9.964357318e-01,2.59759e-01,9.99999e-01,9.99999e-01,2.59759e-01,9.99999e-01
1.001417910e+00,2.66768e-01,9.99999e-01,9.99999e-01,2.66768e-01,9.99999e-01
1.006425000e+00,2.73823e-01,9.99999e-01,9.99999e-01,2.73823e-01,9.99999e-01
1.011457125e+00,2.80919e-01,9.99999e-01,9.99999e-01,2.80919e-01,9.99999e-01
1.016514411e+00,2.88053e-01,9.99999e-01,9.99999e-01,2.88053e-01,9.99999e-01
1.021596983e+00,2.95154e-01,9.99999e-01,9.99767e-01,2.95223e-01,9.99999e-01
1.026704968e+00,2.96942e-01,9.99999e-01,9.81872e-01,3.02424e-01,9.99999e-01
1.031838492e+00,2.71319e-01,9.99999e-01,8.76202e-01,3.09653e-01,9.99999e-01
1.036997685e+00,9.06220e-03,9.99999e-01,2.85958e-02,3.16907e-01,9.99999e-01
1.042182673e+00,1.14226e-04,9.99999e-01,3.52350e-04,3.24182e-01,9.99999e-01
1.047393587e+00,3.40006e-04,9.99999e-01,1.02573e-03,3.31476e-01,9.99999e-01
1.052630555e+00,5.72136e-10,9.99999e-01,1.68879e-09,3.38785e-01,9.99999e-01
1.057893707e+00,2.10462e-09,9.99999e-01,6.08083e-09,3.46106e-01,9.99999e-01
1.063183176e+00,4.21213e-07,9.99999e-01,1.19176e-06,3.53436e-01,9.99999e-01
1.068499092e+00,9.13856e-06,9.99999e-01,2.53305e-05,3.60772e-01,9.99999e-01
1.073841587e+00,3.48496e-04,9.99999e-01,9.46713e-04,3.68111e-01,9.99999e-01
1.079210795e+00,4.96160e-03,9.99999e-01,1.32151e-02,3.75450e-01,9.99999e-01
1.084606849e+00,3.11096e-02,9.99999e-01,8.12715e-02,3.82786e-01,9.99999e-01
1.090029883e+00,1.03991e-01,9.99999e-01,2.66565e-01,3.90116e-01,9.99999e-01
1.095480033e+00,2.06008e-01,9.99999e-01,5.18340e-01,3.97437e-01,9.99999e-01
1.100957433e+00,2.93967e-01,9.99999e-01,7.26298e-01,4.04747e-01,9.99999e-01
1.106462220e+00,3.60800e-01,9.99999e-01,8.75636e-01,4.12043e-01,9.99999e-01
1.111994531e+00,3.99132e-01,9.99999e-01,9.51847e-01,4.19323e-01,9.99999e-01
1.117554504e+00,4.21456e-01,9.99999e-01,9.87979e-01,4.26584e-01,9.99999e-01
1.123142276e+00,4.33477e-01,9.99999e-01,9.99202e-01,4.33823e-01,9.99999e-01
1.128757988e+00,4.41038e-01,9.99999e-01,9.99999e-01,4.41038e-01,9.99999e-01
1.134401778e+00,4.48228e-01,9.99999e-01,9.99999e-01,4.48228e-01,9.99999e-01
1.140073787e+00,4.55389e-01,9.99999e-01,9.99999e-01,4.55389e-01,9.99999e-01
1.145774156e+00,4.62520e-01,9.99999e-01,9.99999e-01,4.62520e-01,9.99999e-01
1.151503026e+00,4.69618e-01,9.99999e-01,9.99999e-01,4.69618e-01,9.99999e-01
1.157260541e+00,4.76682e-01,9.99999e-01,9.99999e-01,4.76682e-01,9.99999e-01
1.163046844e+00,4.83709e-01,9.99999e-01,9.99999e-01,4.83709e-01,9.99999e-01
1.168862078e+00,4.90699e-01,9.99999e-01,9.99999e-01,4.90699e-01,9.99999e-01
1.174706389e+00,4.97648e-01,9.99999e-01,9.99999e-01,4.97648e-01,9.99999e-01
1.180579921e+00,5.04555e-01,9.99999e-01,9.99999e-01,5.04555e-01,9.99999e-01
1.186482820e+00,5.11406e-01,9.99999e-01,9.99973e-01,5.11419e-01,9.99999e-01
1.192415234e+00,4.87500e-01,9.99999e-01,9.40687e-01,5.18238e-01,9.99999e-01
1.198377311e+00,2.54946e-01,9.99999e-01,4.85601e-01,5.25010e-01,9.99999e-01
1.204369197e+00,3.01950e-47,9.99999e-01,5.67858e-47,5.31735e-01,9.99999e-01
1.210391043e+00,1.41172e-195,9.99999e-01,2.62201e-195,5.38410e-01,9.99999e-01
1.216442998e+00,4.72008e-169,9.99999e-01,8.66013e-169,5.45035e-01,9.99999e-01
1.222525213e+00,1.70716e-166,9.99999e-01,3.09488e-166,5.51608e-01,9.99999e-01
1.228637839e+00,3.85187e-128,9.99999e-01,6.90140e-128,5.58129e-01,9.99999e-01
1.234781029e+00,3.56643e-79,9.99999e-01,6.31679e-79,5.64595e-01,9.99999e-01
1.240954934e+00,3.80351e-52,9.99999e-01,6.66107e-52,5.71006e-01,9.99999e-01
1.247159708e+00,2.37195e-24,9.99999e-01,4.10826e-24,5.77361e-01,9.99999e-01
1.253395507e+00,1.30711e-16,9.99999e-01,2.23951e-16,5.83660e-01,9.99999e-01
1.259662485e+00,3.85130e-10,9.99999e-01,6.52873e-10,5.89900e-01,9.99999e-01
1.265960797e+00,1.43549e-05,9.99999e-01,2.40821e-05,5.96082e-01,9.99999e-01
1.272290601e+00,2.30349e-03,9.99999e-01,3.82508e-03,6.02205e-01,9.99999e-01
1.278652054e+00,3.49135e-03,9.99999e-01,5.73982e-03,6.08268e-01,9.99999e-01
1.285045314e+00,3.21316e-07,9.99999e-01,5.23085e-07,6.14271e-01,9.99999e-01
1.291470541e+00,3.39479e-22,9.99999e-01,5.47359e-22,6.20212e-01,9.99999e-01
1.297927893e+00,6.40411e-09,9.99999e-01,1.02287e-08,6.26092e-01,9.99999e-01
1.304417533e+00,3.89121e-05,9.99999e-01,6.15786e-05,6.31909e-01,9.99999e-01
1.310939621e+00,1.23002e-05,9.99999e-01,1.92895e-05,6.37665e-01,9.99999e-01
1.317494319e+00,1.31905e-65,9.99999e-01,2.05025e-65,6.43357e-01,9.99999e-01
1.324081790e+00,1.42809e-42,9.99999e-01,2.20049e-42,6.48987e-01,9.99999e-01
1.330702199e+00,2.54504e-25,9.99999e-01,3.88820e-25,6.54553e-01,9.99999e-01
1.337355710e+00,8.08868e-23,9.99999e-01,1.22545e-22,6.60055e-01,9.99999e-01
1.344042489e+00,5.37325e-23,9.99999e-01,8.07407e-23,6.65493e-01,9.99999e-01
1.350762701e+00,1.10192e-25,9.99999e-01,1.64252e-25,6.70868e-01,9.99999e-01
1.357516515e+00,4.43873e-15,9.99999e-01,6.56443e-15,6.76179e-01,9.99999e-01
1.364304097e+00,3.06175e-11,9.99999e-01,4.49316e-11,6.81425e-01,9.99999e-01
1.371125618e+00,3.81787e-06,9.99999e-01,5.56047e-06,6.86608e-01,9.99999e-01
1.377981246e+00,1.78362e-05,9.99999e-01,2.57851e-05,6.91726e-01,9.99999e-01
1.384871152e+00,1.39612e-03,9.99999e-01,2.00367e-03,6.96780e-01,9.99999e-01
1.391795508e+00,2.40631e-03,9.99999e-01,3.42891e-03,7.01770e-01,9.99999e-01
1.398754485e+00,1.81627e-02,9.99999e-01,2.57008e-02,7.06696e-01,9.99999e-01
1.405748258e+00,5.05600e-02,9.99999e-01,7.10552e-02,7.11559e-01,9.99999e-01
1.412776999e+00,1.31444e-01,9.99999e-01,1.83488e-01,7.16358e-01,9.99999e-01
1.419840884e+00,1.38006e-01,9.99999e-01,1.91384e-01,7.21094e-01,9.99999e-01
1.426940089e+00,3.59567e-03,9.99999e-01,4.95430e-03,7.25766e-01,9.99999e-01
1.434074789e+00,0.00000e+00,9.99999e-01,0.00000e+00,7.30376e-01,9.99999e-01
1.441245163e+00,0.00000e+00,9.99999e-01,0.00000e+00,7.34923e-01,9.99999e-01
1.448451389e+00,0.00000e+00,9.99999e-01,0.00000e+00,7.39407e-01,9.99999e-01
1.455693646e+00,0.00000e+00,9.99999e-01,0.00000e+00,7.43830e-01,9.99999e-01
1.462972114e+00,0.00000e+00,9.99999e-01,0.00000e+00,7.48191e-01,9.99999e-01
1.470286975e+00,0.00000e+00,9.99999e-01,0.00000e+00,7.52490e-01,9.99999e-01
