#,Wave/freq,Total,O2,CO2,Rayleigh,CIA
4.000000000e-01,9.27612e-06,9.99999e-01,9.99999e-01,9.27612e-06,9.99999e-01
4.020000000e-01,1.16647e-05,9.99999e-01,9.99999e-01,1.16647e-05,9.99999e-01
4.040100000e-01,1.45988e-05,9.99999e-01,9.99999e-01,1.45988e-05,9.99999e-01
4.060300500e-01,1.81900e-05,9.99999e-01,9.99999e-01,1.81900e-05,9.99999e-01
4.080602003e-01,2.25664e-05,9.99999e-01,9.99999e-01,2.25664e-05,9.99999e-01
4.101005013e-01,2.78769e-05,9.99999e-01,9.99999e-01,2.78769e-05,9.99999e-01
4.121510038e-01,3.42935e-05,9.99999e-01,9.99999e-01,3.42935e-05,9.99999e-01
4.142117588e-01,4.20148e-05,9.99999e-01,9.99999e-01,4.20148e-05,9.99999e-01
4.162828176e-01,5.12685e-05,9.99999e-01,9.99999e-01,5.12685e-05,9.99999e-01
4.183642317e-01,6.23149e-05,9.99999e-01,9.99999e-01,6.23149e-05,9.99999e-01
4.204560528e-01,7.54500e-05,9.99999e-01,9.99999e-01,7.54500e-05,9.99999e-01
4.225583331e-01,9.10093e-05,9.99999e-01,9.99999e-01,9.10093e-05,9.99999e-01
4.246711247e-01,1.09371e-04,9.99999e-01,9.99999e-01,1.09371e-04,9.99999e-01
4.267944804e-01,1.30962e-04,9.99999e-01,9.99999e-01,1.30962e-04,9.99999e-01
4.289284528e-01,1.56258e-04,9.99999e-01,9.99999e-01,1.56258e-04,9.99999e-01
4.310730950e-01,1.85790e-04,9.99999e-01,9.99999e-01,1.85790e-04,9.99999e-01
4.332284605e-01,2.20150e-04,9.99999e-01,9.99999e-01,2.20150e-04,9.99999e-01
4.353946028e-01,2.59991e-04,9.99999e-01,9.99999e-01,2.59991e-04,9.99999e-01
4.375715758e-01,3.06036e-04,9.99999e-01,9.99999e-01,3.06036e-04,9.99999e-01
4.397594337e-01,3.59076e-04,9.99999e-01,9.99999e-01,3.59076e-04,9.99999e-01
4.419582309e-01,4.19982e-04,9.99999e-01,9.99999e-01,4.19982e-04,9.99999e-01
4.441680220e-01,4.89700e-04,9.99999e-01,9.99999e-01,4.89700e-04,9.99999e-01
4.463888621e-01,5.69262e-04,9.99999e-01,9.99999e-01,5.69262e-04,9.99999e-01
4.486208064e-01,6.59785e-04,9.99999e-01,9.99999e-01,6.59785e-04,9.99999e-01
4.508639105e-01,7.62478e-04,9.99999e-01,9.99999e-01,7.62478e-04,9.99999e-01
4.531182300e-01,8.78640e-04,9.99999e-01,9.99999e-01,8.78640e-04,9.99999e-01
4.553838212e-01,1.00967e-03,9.99999e-01,9.99999e-01,1.00967e-03,9.99999e-01
4.576607403e-01,1.15705e-03,9.99999e-01,9.99999e-01,1.15705e-03,9.99999e-01
4.599490440e-01,1.32239e-03,9.99999e-01,9.99999e-01,1.32239e-03,9.99999e-01
4.622487892e-01,1.50737e-03,9.99999e-01,9.99999e-01,1.50737e-03,9.99999e-01
4.645600332e-01,1.71379e-03,9.99999e-01,9.99999e-01,1.71379e-03,9.99999e-01
4.668828333e-01,1.94354e-03,9.99999e-01,9.99999e-01,1.94354e-03,9.99999e-01
4.692172475e-01,2.19862e-03,9.99999e-01,9.99999e-01,2.19862e-03,9.99999e-01
4.715633337e-01,2.48113e-03,9.99999e-01,9.99999e-01,2.48113e-03,9.99999e-01
4.739211504e-01,2.79326e-03,9.99999e-01,9.99999e-01,2.79326e-03,9.99999e-01
4.762907561e-01,3.13730e-03,9.99999e-01,9.99999e-01,3.13730e-03,9.99999e-01
4.786722099e-01,3.51565e-03,9.99999e-01,9.99999e-01,3.51565e-03,9.99999e-01
4.810655710e-01,3.93078e-03,9.99999e-01,9.99999e-01,3.93078e-03,9.99999e-01
4.834708988e-01,4.38524e-03,9.99999e-01,9.99999e-01,4.38524e-03,9.99999e-01
4.858882533e-01,4.88169e-03,9.99999e-01,9.99999e-01,4.88169e-03,9.99999e-01
4.883176946e-01,5.42283e-03,9.99999e-01,9.99999e-01,5.42283e-03,9.99999e-01
4.907592831e-01,6.01147e-03,9.99999e-01,9.99999e-01,6.01147e-03,9.99999e-01
4.932130795e-01,6.65046e-03,9.99999e-01,9.99999e-01,6.65046e-03,9.99999e-01
4.956791449e-01,7.34270e-03,9.99999e-01,9.99999e-01,7.34270e-03,9.99999e-01
4.981575406e-01,8.09115e-03,9.99999e-01,9.99999e-01,8.09115e-03,9.99999e-01
5.006483283e-01,8.89882e-03,9.99999e-01,9.99999e-01,8.89882e-03,9.99999e-01
5.031515699e-01,9.76873e-03,9.99999e-01,9.99999e-01,9.76873e-03,9.99999e-01
5.056673278e-01,1.07039e-02,9.99999e-01,9.99999e-01,1.07039e-02,9.99999e-01
5.081956644e-01,1.17075e-02,9.99999e-01,9.99999e-01,1.17075e-02,9.99999e-01
5.107366428e-01,1.27826e-02,9.99999e-01,9.99999e-01,1.27826e-02,9.99999e-01
5.132903260e-01,1.39321e-02,9.99999e-01,9.99999e-01,1.39321e-02,9.99999e-01
5.158567776e-01,1.51592e-02,9.99999e-01,9.99999e-01,1.51592e-02,9.99999e-01
5.184360615e-01,1.64669e-02,9.99999e-01,9.99999e-01,1.64669e-02,9.99999e-01
5.210282418e-01,1.78583e-02,9.99999e-01,9.99999e-01,1.78583e-02,9.99999e-01
5.236333830e-01,1.93361e-02,9.99999e-01,9.99999e-01,1.93361e-02,9.99999e-01
5.262515499e-01,2.09035e-02,9.99999e-01,9.99999e-01,2.09035e-02,9.99999e-01
5.288828077e-01,2.25631e-02,9.99999e-01,9.99999e-01,2.25631e-02,9.99999e-01
5.315272217e-01,2.43177e-02,9.99999e-01,9.99999e-01,2.43177e-02,9.99999e-01
5.341848578e-01,2.61701e-02,9.99999e-01,9.99999e-01,2.61701e-02,9.99999e-01
5.368557821e-01,2.81227e-02,9.99999e-01,9.99999e-01,2.81227e-02,9.99999e-01
5.395400610e-01,3.01781e-02,9.99999e-01,9.99999e-01,3.01781e-02,9.99999e-01
5.422377613e-01,3.23386e-02,9.99999e-01,9.99999e-01,3.23386e-02,9.99999e-01
5.449489501e-01,3.46066e-02,9.99999e-01,9.99999e-01,3.46066e-02,9.99999e-01
5.476736949e-01,3.69840e-02,9.99999e-01,9.99999e-01,3.69840e-02,9.99999e-01
5.504120634e-01,3.94729e-02,9.99999e-01,9.99999e-01,3.94729e-02,9.99999e-01
5.531641237e-01,4.20751e-02,9.99999e-01,9.99999e-01,4.20751e-02,9.99999e-01
5.559299443e-01,4.47924e-02,9.99999e-01,9.99999e-01,4.47924e-02,9.99999e-01
5.587095940e-01,4.76262e-02,9.99999e-01,9.99999e-01,4.76262e-02,9.99999e-01
5.615031420e-01,5.05781e-02,9.99999e-01,9.99999e-01,5.05781e-02,9.99999e-01
5.643106577e-01,5.36491e-02,9.99999e-01,9.99999e-01,5.36491e-02,9.99999e-01
5.671322110e-01,5.68403e-02,9.99999e-01,9.99999e-01,5.68403e-02,9.99999e-01
5.699678720e-01,6.01527e-02,9.99999e-01,9.99999e-01,6.01527e-02,9.99999e-01
5.728177114e-01,6.35869e-02,9.99999e-01,9.99999e-01,6.35869e-02,9.99999e-01
5.756818000e-01,6.71435e-02,9.99999e-01,9.99999e-01,6.71435e-02,9.99999e-01
5.785602090e-01,7.08229e-02,9.99999e-01,9.99999e-01,7.08229e-02,9.99999e-01
5.814530100e-01,7.46252e-02,9.99999e-01,9.99999e-01,7.46252e-02,9.99999e-01
5.843602750e-01,7.85505e-02,9.99999e-01,9.99999e-01,7.85505e-02,9.99999e-01
5.872820764e-01,8.25986e-02,9.99999e-01,9.99999e-01,8.25986e-02,9.99999e-01
5.902184868e-01,8.67691e-02,9.99999e-01,9.99999e-01,8.67691e-02,9.99999e-01
5.931695792e-01,9.10615e-02,9.99999e-01,9.99999e-01,9.10615e-02,9.99999e-01
5.961354271e-01,9.54752e-02,9.99999e-01,9.99999e-01,9.54752e-02,9.99999e-01
5.991161043e-01,1.00009e-01,9.99999e-01,9.99999e-01,1.00009e-01,9.99999e-01
6.021116848e-01,1.04663e-01,9.99999e-01,9.99999e-01,1.04663e-01,9.99999e-01
6.051222432e-01,1.09434e-01,9.99999e-01,9.99999e-01,1.09434e-01,9.99999e-01
6.081478544e-01,1.14323e-01,9.99999e-01,9.99999e-01,1.14323e-01,9.99999e-01
6.111885937e-01,1.19326e-01,9.99999e-01,9.99999e-01,1.19326e-01,9.99999e-01
6.142445367e-01,1.24444e-01,9.99999e-01,9.99999e-01,1.24444e-01,9.99999e-01
6.173157594e-01,1.29673e-01,9.99999e-01,9.99999e-01,1.29673e-01,9.99999e-01
6.204023382e-01,1.35012e-01,9.99999e-01,9.99999e-01,1.35012e-01,9.99999e-01
6.235043498e-01,1.40459e-01,9.99999e-01,9.99999e-01,1.40459e-01,9.99999e-01
6.266218716e-01,1.46012e-01,9.99999e-01,9.99999e-01,1.46012e-01,9.99999e-01
6.297549810e-01,1.51668e-01,9.99999e-01,9.99999e-01,1.51668e-01,9.99999e-01
6.329037559e-01,1.57425e-01,9.99999e-01,9.99999e-01,1.57425e-01,9.99999e-01
6.360682746e-01,1.63280e-01,9.99999e-01,9.99999e-01,1.63280e-01,9.99999e-01
6.392486160e-01,1.69231e-01,9.99999e-01,9.99999e-01,1.69231e-01,9.99999e-01
6.424448591e-01,1.75275e-01,9.99999e-01,9.99999e-01,1.75275e-01,9.99999e-01
6.456570834e-01,1.81408e-01,9.99999e-01,9.99999e-01,1.81408e-01,9.99999e-01
6.488853688e-01,1.87629e-01,9.99999e-01,9.99999e-01,1.87629e-01,9.99999e-01
6.521297956e-01,1.93934e-01,9.99999e-01,9.99999e-01,1.93934e-01,9.99999e-01
6.553904446e-01,2.00321e-01,9.99999e-01,9.99999e-01,2.00321e-01,9.99999e-01
6.586673968e-01,2.06785e-01,9.99999e-01,9.99999e-01,2.06785e-01,9.99999e-01
6.619607338e-01,2.13323e-01,9.99999e-01,9.99999e-01,2.13323e-01,9.99999e-01
6.652705375e-01,2.19934e-01,9.99999e-01,9.99999e-01,2.19934e-01,9.99999e-01
6.685968902e-01,2.26612e-01,9.99999e-01,9.99999e-01,2.26612e-01,9.99999e-01
6.719398746e-01,2.33355e-01,9.99999e-01,9.99999e-01,2.33355e-01,9.99999e-01
6.752995740e-01,2.40160e-01,9.99999e-01,9.99999e-01,2.40160e-01,9.99999e-01
6.786760719e-01,2.47023e-01,9.99999e-01,9.99999e-01,2.47023e-01,9.99999e-01
6.820694522e-01,2.53941e-01,9.99999e-01,9.99999e-01,2.53941e-01,9.99999e-01
6.854797995e-01,2.60910e-01,9.99999e-01,9.99999e-01,2.60910e-01,9.99999e-01
6.889071985e-01,2.67927e-01,9.99999e-01,9.99999e-01,2.67927e-01,9.99999e-01
6.923517345e-01,2.74988e-01,9.99999e-01,9.99999e-01,2.74988e-01,9.99999e-01
6.958134932e-01,2.82091e-01,9.99999e-01,9.99999e-01,2.82091e-01,9.99999e-01
6.992925606e-01,2.89231e-01,9.99999e-01,9.99999e-01,2.89231e-01,9.99999e-01
7.027890234e-01,2.96406e-01,9.99999e-01,9.99999e-01,2.96406e-01,9.99999e-01
7.063029686e-01,3.03612e-01,9.99999e-01,9.99999e-01,3.03612e-01,9.99999e-01
7.098344834e-01,3.10845e-01,9.99999e-01,9.99999e-01,3.10845e-01,9.99999e-01
7.133836558e-01,3.18103e-01,9.99999e-01,9.99999e-01,3.18103e-01,9.99999e-01
7.169505741e-01,3.25382e-01,9.99999e-01,9.99999e-01,3.25382e-01,9.99999e-01
7.205353270e-01,3.32678e-01,9.99999e-01,9.99999e-01,3.32678e-01,9.99999e-01
7.241380036e-01,3.39990e-01,9.99999e-01,9.99999e-01,3.39990e-01,9.99999e-01
7.277586936e-01,3.47313e-01,9.99999e-01,9.99999e-01,3.47313e-01,9.99999e-01
7.313974871e-01,3.54644e-01,9.99999e-01,9.99999e-01,3.54644e-01,9.99999e-01
7.350544745e-01,3.61980e-01,9.99999e-01,9.99999e-01,3.61980e-01,9.99999e-01
7.387297469e-01,3.69319e-01,9.99999e-01,9.99999e-01,3.69319e-01,9.99999e-01
7.424233956e-01,3.76658e-01,9.99999e-01,9.99999e-01,3.76658e-01,9.99999e-01
7.461355126e-01,3.83993e-01,9.99999e-01,9.99999e-01,3.83993e-01,9.99999e-01
7.498661902e-01,3.91322e-01,9.99999e-01,9.99999e-01,3.91322e-01,9.99999e-01
7.536155211e-01,3.98641e-01,9.99999e-01,9.99999e-01,3.98641e-01,9.99999e-01
7.573835987e-01,4.05949e-01,9.99999e-01,9.99999e-01,4.05949e-01,9.99999e-01
7.611705167e-01,4.13243e-01,9.99999e-01,9.99999e-01,4.13243e-01,9.99999e-01
7.649763693e-01,4.20520e-01,9.99999e-01,9.99999e-01,4.20520e-01,9.99999e-01
7.688012511e-01,4.27777e-01,9.99999e-01,9.99999e-01,4.27777e-01,9.99999e-01
7.726452574e-01,4.35012e-01,9.99999e-01,9.99999e-01,4.35012e-01,9.99999e-01
7.765084837e-01,4.42224e-01,9.99999e-01,9.99999e-01,4.42224e-01,9.99999e-01
7.803910261e-01,4.32564e-01,9.99999e-01,9.62516e-01,4.49409e-01,9.99999e-01
7.842929812e-01,3.85863e-01,9.99999e-01,8.45143e-01,4.56565e-01,9.99999e-01
7.882144461e-01,3.87208e-01,9.99999e-01,8.35055e-01,4.63691e-01,9.99999e-01
7.921555184e-01,4.23653e-01,9.99999e-01,8.99889e-01,4.70784e-01,9.99999e-01
7.961162960e-01,4.45287e-01,9.99999e-01,9.31872e-01,4.77841e-01,9.99999e-01
8.000968774e-01,4.66662e-01,9.99999e-01,9.62462e-01,4.84863e-01,9.99999e-01
8.040973618e-01,4.82202e-01,9.99999e-01,9.80392e-01,4.91845e-01,9.99999e-01
8.081178486e-01,4.94271e-01,9.99999e-01,9.90944e-01,4.98788e-01,9.99999e-01
8.121584379e-01,5.04272e-01,9.99999e-01,9.97200e-01,5.05688e-01,9.99999e-01
8.162192301e-01,5.12228e-01,9.99999e-01,9.99381e-01,5.12545e-01,9.99999e-01
8.203003262e-01,5.19351e-01,9.99999e-01,9.99990e-01,5.19356e-01,9.99999e-01
8.244018279e-01,5.26121e-01,9.99999e-01,9.99999e-01,5.26121e-01,9.99999e-01
8.285238370e-01,5.32837e-01,9.99999e-01,9.99999e-01,5.32837e-01,9.99999e-01
8.326664562e-01,5.39505e-01,9.99999e-01,9.99999e-01,5.39505e-01,9.99999e-01
8.368297885e-01,5.46121e-01,9.99999e-01,9.99999e-01,5.46121e-01,9.99999e-01
8.410139374e-01,5.52685e-01,9.99999e-01,9.99999e-01,5.52685e-01,9.99999e-01
8.452190071e-01,5.59197e-01,9.99999e-01,9.99999e-01,5.59197e-01,9.99999e-01
8.494451021e-01,5.65654e-01,9.99999e-01,9.99999e-01,5.65654e-01,9.99999e-01
8.536923276e-01,5.72056e-01,9.99999e-01,9.99999e-01,5.72056e-01,9.99999e-01
8.579607893e-01,5.78402e-01,9.99999e-01,9.99999e-01,5.78402e-01,9.99999e-01
8.622505932e-01,5.84691e-01,9.99999e-01,9.99999e-01,5.84691e-01,9.99999e-01
8.665618462e-01,5.43602e-01,9.99999e-01,9.19920e-01,5.90922e-01,9.99999e-01
8.708946554e-01,3.89700e-01,9.99999e-01,6.52661e-01,5.97094e-01,9.99999e-01
8.752491287e-01,4.27480e-01,9.99999e-01,7.08678e-01,6.03207e-01,9.99999e-01
8.796253743e-01,5.04087e-01,9.99999e-01,8.27374e-01,6.09260e-01,9.99999e-01
8.840235012e-01,5.57608e-01,9.99999e-01,9.06307e-01,6.15253e-01,9.99999e-01
8.884436187e-01,5.97573e-01,9.99999e-01,9.61990e-01,6.21184e-01,9.99999e-01
8.928858368e-01,6.17285e-01,9.99999e-01,9.84421e-01,6.27054e-01,9.99999e-01
8.973502660e-01,6.30457e-01,9.99999e-01,9.96200e-01,6.32861e-01,9.99999e-01
9.018370173e-01,6.38339e-01,9.99999e-01,9.99580e-01,6.38606e-01,9.99999e-01
9.063462024e-01,6.37350e-01,9.99999e-01,9.89230e-01,6.44288e-01,9.99999e-01
9.108779334e-01,6.34002e-01,9.99999e-01,9.75526e-01,6.49907e-01,9.99999e-01
9.154323231e-01,6.51670e-01,9.99999e-01,9.94213e-01,6.55463e-01,9.99999e-01
9.200094847e-01,6.07605e-01,9.99999e-01,9.19283e-01,6.60955e-01,9.99999e-01
9.246095321e-01,5.90278e-01,9.99999e-01,8.85794e-01,6.66383e-01,9.99999e-01
9.292325798e-01,6.10798e-01,9.99999e-01,9.09268e-01,6.71747e-01,9.99999e-01
9.338787427e-01,6.17636e-01,9.99999e-01,9.12249e-01,6.77047e-01,9.99999e-01
9.385481364e-01,6.37732e-01,9.99999e-01,9.34703e-01,6.82283e-01,9.99999e-01
9.432408771e-01,6.59624e-01,9.99999e-01,9.59515e-01,6.87455e-01,9.99999e-01
9.479570815e-01,6.78029e-01,9.99999e-01,9.79014e-01,6.92562e-01,9.99999e-01
9.526968669e-01,6.90513e-01,9.99999e-01,9.89832e-01,6.97606e-01,9.99999e-01
9.574603512e-01,6.99523e-01,9.99999e-01,9.95640e-01,7.02586e-01,9.99999e-01
9.622476530e-01,7.06539e-01,9.99999e-01,9.98638e-01,7.07501e-01,9.99999e-01
9.670588912e-01,7.12063e-01,9.99999e-01,9.99591e-01,7.12353e-01,9.99999e-01
9.718941857e-01,7.17121e-01,9.99999e-01,9.99970e-01,7.17142e-01,9.99999e-01
9.767536566e-01,7.21867e-01,9.99999e-01,9.99999e-01,7.21867e-01,9.99999e-01
9.816374249e-01,7.26529e-01,9.99999e-01,9.99999e-01,7.26529e-01,9.99999e-01
9.865456120e-01,7.31128e-01,9.99999e-01,9.99999e-01,7.31128e-01,9.99999e-01
9.914783401e-01,7.35665e-01,9.99999e-01,9.99999e-01,7.35665e-01,9.99999e-01
9.964357318e-01,7.40139e-01,9.99999e-01,9.99999e-01,7.40139e-01,9.99999e-01
1.001417910e+00,7.44552e-01,9.99999e-01,9.99999e-01,7.44552e-01,9.99999e-01
1.006425000e+00,7.48903e-01,9.99999e-01,9.99999e-01,7.48903e-01,9.99999e-01
1.011457125e+00,7.53192e-01,9.99999e-01,9.99999e-01,7.53192e-01,9.99999e-01
1.016514411e+00,7.57421e-01,9.99999e-01,9.99999e-01,7.57421e-01,9.99999e-01
1.021596983e+00,7.61544e-01,9.99999e-01,9.99941e-01,7.61589e-01,9.99999e-01
1.026704968e+00,7.62469e-01,9.99999e-01,9.95783e-01,7.65697e-01,9.99999e-01
1.031838492e+00,7.32445e-01,9.99999e-01,9.51542e-01,7.69745e-01,9.99999e-01
1.036997685e+00,1.06360e-01,9.99999e-01,1.37463e-01,7.73734e-01,9.99999e-01
1.042182673e+00,7.43053e-02,9.99999e-01,9.55491e-02,7.77665e-01,9.99999e-01
1.047393587e+00,9.31445e-02,9.99999e-01,1.19181e-01,7.81537e-01,9.99999e-01
1.052630555e+00,1.82140e-03,9.99999e-01,2.31922e-03,7.85351e-01,9.99999e-01
1.057893707e+00,4.92269e-03,9.99999e-01,6.23829e-03,7.89109e-01,9.99999e-01
1.063183176e+00,1.85489e-02,9.99999e-01,2.33964e-02,7.92809e-01,9.99999e-01
1.068499092e+00,5.73311e-02,9.99999e-01,7.19829e-02,7.96453e-01,9.99999e-01
1.073841587e+00,1.51507e-01,9.99999e-01,1.89374e-01,8.00042e-01,9.99999e-01
1.079210795e+00,2.80087e-01,9.99999e-01,3.48551e-01,8.03575e-01,9.99999e-01
1.084606849e+00,4.51311e-01,9.99999e-01,5.59208e-01,8.07053e-01,9.99999e-01
1.090029883e+00,5.99210e-01,9.99999e-01,7.39329e-01,8.10478e-01,9.99999e-01
1.095480033e+00,7.01325e-01,9.99999e-01,8.61738e-01,8.13849e-01,9.99999e-01
1.100957433e+00,7.60617e-01,9.99999e-01,9.30797e-01,8.17167e-01,9.99999e-01
1.106462220e+00,7.96465e-01,9.99999e-01,9.70786e-01,8.20432e-01,9.99999e-01
1.111994531e+00,8.14645e-01,9.99999e-01,9.89070e-01,8.23646e-01,9.99999e-01
1.117554504e+00,8.24596e-01,9.99999e-01,9.97323e-01,8.26809e-01,9.99999e-01
1.123142276e+00,8.29775e-01,9.99999e-01,9.99824e-01,8.29920e-01,9.99999e-01
1.128757988e+00,8.32982e-01,9.99999e-01,9.99999e-01,8.32982e-01,9.99999e-01
1.134401778e+00,8.35994e-01,9.99999e-01,9.99999e-01,8.35994e-01,9.99999e-01
1.140073787e+00,8.38958e-01,9.99999e-01,9.99999e-01,8.38958e-01,9.99999e-01
1.145774156e+00,8.41872e-01,9.99999e-01,9.99999e-01,8.41872e-01,9.99999e-01
1.151503026e+00,8.44740e-01,9.99999e-01,9.99999e-01,8.44740e-01,9.99999e-01
1.157260541e+00,8.47560e-01,9.99999e-01,9.99999e-01,8.47560e-01,9.99999e-01
1.163046844e+00,8.50333e-01,9.99999e-01,9.99999e-01,8.50333e-01,9.99999e-01
1.168862078e+00,8.53061e-01,9.99999e-01,9.99999e-01,8.53061e-01,9.99999e-01
1.174706389e+00,8.55743e-01,9.99999e-01,9.99999e-01,8.55743e-01,9.99999e-01
1.180579921e+00,8.58380e-01,9.99999e-01,9.99999e-01,8.58380e-01,9.99999e-01
1.186482820e+00,8.60966e-01,9.99999e-01,9.99991e-01,8.60973e-01,9.99999e-01
1.192415234e+00,8.50609e-01,9.99999e-01,9.85044e-01,8.63522e-01,9.99999e-01
1.198377311e+00,4.83477e-01,9.99999e-01,5.58268e-01,8.66029e-01,9.99999e-01
1.204369197e+00,2.67844e-12,9.99999e-01,3.08401e-12,8.68493e-01,9.99999e-01
1.210391043e+00,2.01713e-45,9.99999e-01,2.31611e-45,8.70915e-01,9.99999e-01
1.216442998e+00,1.68798e-39,9.99999e-01,1.93288e-39,8.73296e-01,9.99999e-01
1.222525213e+00,6.29669e-39,9.99999e-01,7.19099e-39,8.75636e-01,9.99999e-01
1.228637839e+00,3.73217e-30,9.99999e-01,4.25107e-30,8.77936e-01,9.99999e-01
1.234781029e+00,1.98856e-19,9.99999e-01,2.25922e-19,8.80196e-01,9.99999e-01
1.240954934e+00,4.23481e-13,9.99999e-01,4.79909e-13,8.82418e-01,9.99999e-01
1.247159708e+00,3.64381e-07,9.99999e-01,4.11916e-07,8.84601e-01,9.99999e-01
1.253395507e+00,1.16455e-04,9.99999e-01,1.31328e-04,8.86746e-01,9.99999e-01
1.259662485e+00,5.26005e-03,9.99999e-01,5.91778e-03,8.88854e-01,9.99999e-01
1.265960797e+00,4.61548e-02,9.99999e-01,5.18055e-02,8.90925e-01,9.99999e-01
1.272290601e+00,2.52602e-01,9.99999e-01,2.82882e-01,8.92959e-01,9.99999e-01
1.278652054e+00,2.14980e-01,9.99999e-01,2.40212e-01,8.94959e-01,9.99999e-01
1.285045314e+00,3.54388e-03,9.99999e-01,3.95115e-03,8.96923e-01,9.99999e-01
1.291470541e+00,5.36434e-06,9.99999e-01,5.96799e-06,8.98852e-01,9.99999e-01
1.297927893e+00,2.76166e-03,9.99999e-01,3.06596e-03,9.00747e-01,9.99999e-01
1.304417533e+00,9.04162e-02,9.99999e-01,1.00172e-01,9.02609e-01,9.99999e-01
1.310939621e+00,2.14582e-02,9.99999e-01,2.37254e-02,9.04438e-01,9.99999e-01
1.317494319e+00,4.62344e-16,9.99999e-01,5.10181e-16,9.06234e-01,9.99999e-01
1.324081790e+00,4.81793e-11,9.99999e-01,5.30610e-11,9.07998e-01,9.99999e-01
1.330702199e+00,1.55385e-06,9.99999e-01,1.70803e-06,9.09730e-01,9.99999e-01
1.337355710e+00,2.38347e-06,9.99999e-01,2.61508e-06,9.11432e-01,9.99999e-01
1.344042489e+00,7.44201e-07,9.99999e-01,8.15023e-07,9.13103e-01,9.99999e-01
1.350762701e+00,9.44244e-07,9.99999e-01,1.03225e-06,9.14744e-01,9.99999e-01
1.357516515e+00,1.42625e-04,9.99999e-01,1.55644e-04,9.16356e-01,9.99999e-01
1.364304097e+00,2.85996e-03,9.99999e-01,3.11563e-03,9.17938e-01,9.99999e-01
1.371125618e+00,4.58096e-02,9.99999e-01,4.98205e-02,9.19492e-01,9.99999e-01
1.377981246e+00,7.73942e-02,9.99999e-01,8.40311e-02,9.21018e-01,9.99999e-01
1.384871152e+00,2.18356e-01,9.99999e-01,2.36696e-01,9.22516e-01,9.99999e-01
1.391795508e+00,2.44025e-01,9.99999e-01,2.64100e-01,9.23986e-01,9.99999e-01
1.398754485e+00,4.06351e-01,9.99999e-01,4.39093e-01,9.25430e-01,9.99999e-01
1.405748258e+00,5.05982e-01,9.99999e-01,5.45917e-01,9.26848e-01,9.99999e-01
1.412776999e+00,6.33149e-01,9.99999e-01,6.82095e-01,9.28240e-01,9.99999e-01
1.419840884e+00,5.67795e-01,9.99999e-01,6.10791e-01,9.29606e-01,9.99999e-01
1.426940089e+00,4.82560e-02,9.99999e-01,5.18353e-02,9.30947e-01,9.99999e-01
1.434074789e+00,0.00000e+00,9.99999e-01,0.00000e+00,9.32264e-01,9.99999e-01
1.441245163e+00,0.00000e+00,9.99999e-01,0.00000e+00,9.33556e-01,9.99999e-01
1.448451389e+00,0.00000e+00,9.99999e-01,0.00000e+00,9.34825e-01,9.99999e-01
1.455693646e+00,0.00000e+00,9.99999e-01,0.00000e+00,9.36070e-01,9.99999e-01
1.462972114e+00,1.73832e-177,9.99999e-01,1.85462e-177,9.37293e-01,9.99999e-01
1.470286975e+00,2.34922e-74,9.99999e-01,2.50318e-74,9.38492e-01,9.99999e-01
