#,Wave/freq,Total,O2,CO2,Rayleigh,CIA
4.000000000e-01,4.31032e-03,9.99999e-01,9.99999e-01,4.31032e-03,9.99999e-01
4.020000000e-01,4.80044e-03,9.99999e-01,9.99999e-01,4.80044e-03,9.99999e-01
4.040100000e-01,5.33435e-03,9.99999e-01,9.99999e-01,5.33435e-03,9.99999e-01
4.060300500e-01,5.91531e-03,9.99999e-01,9.99999e-01,5.91531e-03,9.99999e-01
4.080602003e-01,6.54616e-03,9.99999e-01,9.99999e-01,6.54616e-03,9.99999e-01
4.101005013e-01,7.22980e-03,9.99999e-01,9.99999e-01,7.22980e-03,9.99999e-01
4.121510038e-01,7.96918e-03,9.99999e-01,9.99999e-01,7.96918e-03,9.99999e-01
4.142117588e-01,8.76730e-03,9.99999e-01,9.99999e-01,8.76730e-03,9.99999e-01
4.162828176e-01,9.62719e-03,9.99999e-01,9.99999e-01,9.62719e-03,9.99999e-01
4.183642317e-01,1.05519e-02,9.99999e-01,9.99999e-01,1.05519e-02,9.99999e-01
4.204560528e-01,1.15445e-02,9.99999e-01,9.99999e-01,1.15445e-02,9.99999e-01
4.225583331e-01,1.26080e-02,9.99999e-01,9.99999e-01,1.26080e-02,9.99999e-01
4.246711247e-01,1.37456e-02,9.99999e-01,9.99999e-01,1.37456e-02,9.99999e-01
4.267944804e-01,1.49603e-02,9.99999e-01,9.99999e-01,1.49603e-02,9.99999e-01
4.289284528e-01,1.62551e-02,9.99999e-01,9.99999e-01,1.62551e-02,9.99999e-01
4.310730950e-01,1.76330e-02,9.99999e-01,9.99999e-01,1.76330e-02,9.99999e-01
4.332284605e-01,1.90971e-02,9.99999e-01,9.99999e-01,1.90971e-02,9.99999e-01
4.353946028e-01,2.06501e-02,9.99999e-01,9.99999e-01,2.06501e-02,9.99999e-01
4.375715758e-01,2.22949e-02,9.99999e-01,9.99999e-01,2.22949e-02,9.99999e-01
4.397594337e-01,2.40344e-02,9.99999e-01,9.99999e-01,2.40344e-02,9.99999e-01
4.419582309e-01,2.58711e-02,9.99999e-01,9.99999e-01,2.58711e-02,9.99999e-01
4.441680220e-01,2.78078e-02,9.99999e-01,9.99999e-01,2.78078e-02,9.99999e-01
4.463888621e-01,2.98468e-02,9.99999e-01,9.99999e-01,2.98468e-02,9.99999e-01
4.486208064e-01,3.19906e-02,9.99999e-01,9.99999e-01,3.19906e-02,9.99999e-01
4.508639105e-01,3.42414e-02,9.99999e-01,9.99999e-01,3.42414e-02,9.99999e-01
4.531182300e-01,3.66014e-02,9.99999e-01,9.99999e-01,3.66014e-02,9.99999e-01
4.553838212e-01,3.90726e-02,9.99999e-01,9.99999e-01,3.90726e-02,9.99999e-01
4.576607403e-01,4.16569e-02,9.99999e-01,9.99999e-01,4.16569e-02,9.99999e-01
4.599490440e-01,4.43559e-02,9.99999e-01,9.99999e-01,4.43559e-02,9.99999e-01
4.622487892e-01,4.71712e-02,9.99999e-01,9.99999e-01,4.71712e-02,9.99999e-01
4.645600332e-01,5.01043e-02,9.99999e-01,9.99999e-01,5.01043e-02,9.99999e-01
4.668828333e-01,5.31565e-02,9.99999e-01,9.99999e-01,5.31565e-02,9.99999e-01
4.692172475e-01,5.63287e-02,9.99999e-01,9.99999e-01,5.63287e-02,9.99999e-01
4.715633337e-01,5.96219e-02,9.99999e-01,9.99999e-01,5.96219e-02,9.99999e-01
4.739211504e-01,6.30368e-02,9.99999e-01,9.99999e-01,6.30368e-02,9.99999e-01
4.762907561e-01,6.65741e-02,9.99999e-01,9.99999e-01,6.65741e-02,9.99999e-01
4.786722099e-01,7.02341e-02,9.99999e-01,9.99999e-01,7.02341e-02,9.99999e-01
4.810655710e-01,7.40170e-02,9.99999e-01,9.99999e-01,7.40170e-02,9.99999e-01
4.834708988e-01,7.79229e-02,9.99999e-01,9.99999e-01,7.79229e-02,9.99999e-01
4.858882533e-01,8.19516e-02,9.99999e-01,9.99999e-01,8.19516e-02,9.99999e-01
4.883176946e-01,8.61028e-02,9.99999e-01,9.99999e-01,8.61028e-02,9.99999e-01
4.907592831e-01,9.03761e-02,9.99999e-01,9.99999e-01,9.03761e-02,9.99999e-01
4.932130795e-01,9.47707e-02,9.99999e-01,9.99999e-01,9.47707e-02,9.99999e-01
4.956791449e-01,9.92858e-02,9.99999e-01,9.99999e-01,9.92858e-02,9.99999e-01
4.981575406e-01,1.03920e-01,9.99999e-01,9.99999e-01,1.03920e-01,9.99999e-01
5.006483283e-01,1.08674e-01,9.99999e-01,9.99999e-01,1.08674e-01,9.99999e-01
5.031515699e-01,1.13544e-01,9.99999e-01,9.99999e-01,1.13544e-01,9.99999e-01
5.056673278e-01,1.18529e-01,9.99999e-01,9.99999e-01,1.18529e-01,9.99999e-01
5.081956644e-01,1.23629e-01,9.99999e-01,9.99999e-01,1.23629e-01,9.99999e-01
5.107366428e-01,1.28841e-01,9.99999e-01,9.99999e-01,1.28841e-01,9.99999e-01
5.132903260e-01,1.34163e-01,9.99999e-01,9.99999e-01,1.34163e-01,9.99999e-01
5.158567776e-01,1.39593e-01,9.99999e-01,9.99999e-01,1.39593e-01,9.99999e-01
5.184360615e-01,1.45129e-01,9.99999e-01,9.99999e-01,1.45129e-01,9.99999e-01
5.210282418e-01,1.50769e-01,9.99999e-01,9.99999e-01,1.50769e-01,9.99999e-01
5.236333830e-01,1.56510e-01,9.99999e-01,9.99999e-01,1.56510e-01,9.99999e-01
5.262515499e-01,1.62350e-01,9.99999e-01,9.99999e-01,1.62350e-01,9.99999e-01
5.288828077e-01,1.68286e-01,9.99999e-01,9.99999e-01,1.68286e-01,9.99999e-01
5.315272217e-01,1.74315e-01,9.99999e-01,9.99999e-01,1.74315e-01,9.99999e-01
5.341848578e-01,1.80435e-01,9.99999e-01,9.99999e-01,1.80435e-01,9.99999e-01
5.368557821e-01,1.86642e-01,9.99999e-01,9.99999e-01,1.86642e-01,9.99999e-01
5.395400610e-01,1.92934e-01,9.99999e-01,9.99999e-01,1.92934e-01,9.99999e-01
5.422377613e-01,1.99308e-01,9.99999e-01,9.99999e-01,1.99308e-01,9.99999e-01
5.449489501e-01,2.05759e-01,9.99999e-01,9.99999e-01,2.05759e-01,9.99999e-01
5.476736949e-01,2.12287e-01,9.99999e-01,9.99999e-01,2.12287e-01,9.99999e-01
5.504120634e-01,2.18886e-01,9.99999e-01,9.99999e-01,2.18886e-01,9.99999e-01
5.531641237e-01,2.25554e-01,9.99999e-01,9.99999e-01,2.25554e-01,9.99999e-01
5.559299443e-01,2.32287e-01,9.99999e-01,9.99999e-01,2.32287e-01,9.99999e-01
5.587095940e-01,2.39082e-01,9.99999e-01,9.99999e-01,2.39082e-01,9.99999e-01
5.615031420e-01,2.45936e-01,9.99999e-01,9.99999e-01,2.45936e-01,9.99999e-01
5.643106577e-01,2.52846e-01,9.99999e-01,9.99999e-01,2.52846e-01,9.99999e-01
5.671322110e-01,2.59807e-01,9.99999e-01,9.99999e-01,2.59807e-01,9.99999e-01
5.699678720e-01,2.66816e-01,9.99999e-01,9.99999e-01,2.66816e-01,9.99999e-01
5.728177114e-01,2.73871e-01,9.99999e-01,9.99999e-01,2.73871e-01,9.99999e-01
5.756818000e-01,2.80968e-01,9.99999e-01,9.99999e-01,2.80968e-01,9.99999e-01
5.785602090e-01,2.88102e-01,9.99999e-01,9.99999e-01,2.88102e-01,9.99999e-01
5.814530100e-01,2.95272e-01,9.99999e-01,9.99999e-01,2.95272e-01,9.99999e-01
5.843602750e-01,3.02473e-01,9.99999e-01,9.99999e-01,3.02473e-01,9.99999e-01
5.872820764e-01,3.09702e-01,9.99999e-01,9.99999e-01,3.09702e-01,9.99999e-01
5.902184868e-01,3.16956e-01,9.99999e-01,9.99999e-01,3.16956e-01,9.99999e-01
5.931695792e-01,3.24232e-01,9.99999e-01,9.99999e-01,3.24232e-01,9.99999e-01
5.961354271e-01,3.31526e-01,9.99999e-01,9.99999e-01,3.31526e-01,9.99999e-01
5.991161043e-01,3.38835e-01,9.99999e-01,9.99999e-01,3.38835e-01,9.99999e-01
6.021116848e-01,3.46156e-01,9.99999e-01,9.99999e-01,3.46156e-01,9.99999e-01
6.051222432e-01,3.53486e-01,9.99999e-01,9.99999e-01,3.53486e-01,9.99999e-01
6.081478544e-01,3.60822e-01,9.99999e-01,9.99999e-01,3.60822e-01,9.99999e-01
6.111885937e-01,3.68161e-01,9.99999e-01,9.99999e-01,3.68161e-01,9.99999e-01
6.142445367e-01,3.75500e-01,9.99999e-01,9.99999e-01,3.75500e-01,9.99999e-01
6.173157594e-01,3.82836e-01,9.99999e-01,9.99999e-01,3.82836e-01,9.99999e-01
6.204023382e-01,3.90166e-01,9.99999e-01,9.99999e-01,3.90166e-01,9.99999e-01
6.235043498e-01,3.97487e-01,9.99999e-01,9.99999e-01,3.97487e-01,9.99999e-01
6.266218716e-01,4.04797e-01,9.99999e-01,9.99999e-01,4.04797e-01,9.99999e-01
6.297549810e-01,4.12093e-01,9.99999e-01,9.99999e-01,4.12093e-01,9.99999e-01
6.329037559e-01,4.19372e-01,9.99999e-01,9.99999e-01,4.19372e-01,9.99999e-01
6.360682746e-01,4.26633e-01,9.99999e-01,9.99999e-01,4.26633e-01,9.99999e-01
6.392486160e-01,4.33872e-01,9.99999e-01,9.99999e-01,4.33872e-01,9.99999e-01
6.424448591e-01,4.41088e-01,9.99999e-01,9.99999e-01,4.41088e-01,9.99999e-01
6.456570834e-01,4.48277e-01,9.99999e-01,9.99999e-01,4.48277e-01,9.99999e-01
6.488853688e-01,4.55438e-01,9.99999e-01,9.99999e-01,4.55438e-01,9.99999e-01
6.521297956e-01,4.62568e-01,9.99999e-01,9.99999e-01,4.62568e-01,9.99999e-01
6.553904446e-01,4.69667e-01,9.99999e-01,9.99999e-01,4.69667e-01,9.99999e-01
6.586673968e-01,4.76730e-01,9.99999e-01,9.99999e-01,4.76730e-01,9.99999e-01
6.619607338e-01,4.83757e-01,9.99999e-01,9.99999e-01,4.83757e-01,9.99999e-01
6.652705375e-01,4.90746e-01,9.99999e-01,9.99999e-01,4.90746e-01,9.99999e-01
6.685968902e-01,4.97695e-01,9.99999e-01,9.99999e-01,4.97695e-01,9.99999e-01
6.719398746e-01,5.04602e-01,9.99999e-01,9.99999e-01,5.04602e-01,9.99999e-01
6.752995740e-01,5.11466e-01,9.99999e-01,9.99999e-01,5.11466e-01,9.99999e-01
6.786760719e-01,5.18284e-01,9.99999e-01,9.99999e-01,5.18284e-01,9.99999e-01
6.820694522e-01,5.25056e-01,9.99999e-01,9.99999e-01,5.25056e-01,9.99999e-01
6.854797995e-01,5.31781e-01,9.99999e-01,9.99999e-01,5.31781e-01,9.99999e-01
6.889071985e-01,5.38456e-01,9.99999e-01,9.99999e-01,5.38456e-01,9.99999e-01
6.923517345e-01,5.45080e-01,9.99999e-01,9.99999e-01,5.45080e-01,9.99999e-01
6.958134932e-01,5.51653e-01,9.99999e-01,9.99999e-01,5.51653e-01,9.99999e-01
6.992925606e-01,5.58173e-01,9.99999e-01,9.99999e-01,5.58173e-01,9.99999e-01
7.027890234e-01,5.64639e-01,9.99999e-01,9.99999e-01,5.64639e-01,9.99999e-01
7.063029686e-01,5.71050e-01,9.99999e-01,9.99999e-01,5.71050e-01,9.99999e-01
7.098344834e-01,5.77404e-01,9.99999e-01,9.99999e-01,5.77404e-01,9.99999e-01
7.133836558e-01,5.83702e-01,9.99999e-01,9.99999e-01,5.83702e-01,9.99999e-01
7.169505741e-01,5.89943e-01,9.99999e-01,9.99999e-01,5.89943e-01,9.99999e-01
7.205353270e-01,5.96124e-01,9.99999e-01,9.99999e-01,5.96124e-01,9.99999e-01
7.241380036e-01,6.02247e-01,9.99999e-01,9.99999e-01,6.02247e-01,9.99999e-01
7.277586936e-01,6.08309e-01,9.99999e-01,9.99999e-01,6.08309e-01,9.99999e-01
7.313974871e-01,6.14311e-01,9.99999e-01,9.99999e-01,6.14311e-01,9.99999e-01
7.350544745e-01,6.20252e-01,9.99999e-01,9.99999e-01,6.20252e-01,9.99999e-01
7.387297469e-01,6.26132e-01,9.99999e-01,9.99999e-01,6.26132e-01,9.99999e-01
7.424233956e-01,6.31949e-01,9.99999e-01,9.99999e-01,6.31949e-01,9.99999e-01
7.461355126e-01,6.37704e-01,9.99999e-01,9.99999e-01,6.37704e-01,9.99999e-01
7.498661902e-01,6.43396e-01,9.99999e-01,9.99999e-01,6.43396e-01,9.99999e-01
7.536155211e-01,6.49025e-01,9.99999e-01,9.99999e-01,6.49025e-01,9.99999e-01
7.573835987e-01,6.54590e-01,9.99999e-01,9.99999e-01,6.54590e-01,9.99999e-01
7.611705167e-01,6.60092e-01,9.99999e-01,9.99999e-01,6.60092e-01,9.99999e-01
7.649763693e-01,6.65530e-01,9.99999e-01,9.99999e-01,6.65530e-01,9.99999e-01
7.688012511e-01,6.70905e-01,9.99999e-01,9.99999e-01,6.70905e-01,9.99999e-01
7.726452574e-01,6.76215e-01,9.99999e-01,9.99999e-01,6.76215e-01,9.99999e-01
7.765084837e-01,6.81461e-01,9.99999e-01,9.99999e-01,6.81461e-01,9.99999e-01
7.803910261e-01,6.73628e-01,9.99999e-01,9.81045e-01,6.86643e-01,9.99999e-01
7.842929812e-01,6.38253e-01,9.99999e-01,9.22650e-01,6.91760e-01,9.99999e-01
7.882144461e-01,6.38932e-01,9.99999e-01,9.16932e-01,6.96814e-01,9.99999e-01
7.921555184e-01,6.67670e-01,9.99999e-01,9.51362e-01,7.01804e-01,9.99999e-01
7.961162960e-01,6.83662e-01,9.99999e-01,9.67359e-01,7.06730e-01,9.99999e-01
8.000968774e-01,6.98903e-01,9.99999e-01,9.82168e-01,7.11592e-01,9.99999e-01
8.040973618e-01,7.09760e-01,9.99999e-01,9.90743e-01,7.16391e-01,9.99999e-01
8.081178486e-01,7.18050e-01,9.99999e-01,9.95734e-01,7.21126e-01,9.99999e-01
8.121584379e-01,7.24844e-01,9.99999e-01,9.98685e-01,7.25798e-01,9.99999e-01
8.162192301e-01,7.30195e-01,9.99999e-01,9.99709e-01,7.30407e-01,9.99999e-01
8.203003262e-01,7.34950e-01,9.99999e-01,9.99995e-01,7.34953e-01,9.99999e-01
8.244018279e-01,7.39437e-01,9.99999e-01,9.99999e-01,7.39437e-01,9.99999e-01
8.285238370e-01,7.43860e-01,9.99999e-01,9.99999e-01,7.43860e-01,9.99999e-01
8.326664562e-01,7.48220e-01,9.99999e-01,9.99999e-01,7.48220e-01,9.99999e-01
8.368297885e-01,7.52519e-01,9.99999e-01,9.99999e-01,7.52519e-01,9.99999e-01
8.410139374e-01,7.56757e-01,9.99999e-01,9.99999e-01,7.56757e-01,9.99999e-01
8.452190071e-01,7.60935e-01,9.99999e-01,9.99999e-01,7.60935e-01,9.99999e-01
8.494451021e-01,7.65052e-01,9.99999e-01,9.99999e-01,7.65052e-01,9.99999e-01
8.536923276e-01,7.69110e-01,9.99999e-01,9.99999e-01,7.69110e-01,9.99999e-01
8.579607893e-01,7.73109e-01,9.99999e-01,9.99999e-01,7.73109e-01,9.99999e-01
8.622505932e-01,7.77048e-01,9.99999e-01,9.99999e-01,7.77048e-01,9.99999e-01
8.665618462e-01,7.42475e-01,9.99999e-01,9.50757e-01,7.80930e-01,9.99999e-01
8.708946554e-01,6.37545e-01,9.99999e-01,8.12414e-01,7.84753e-01,9.99999e-01
8.752491287e-01,6.68472e-01,9.99999e-01,8.47755e-01,7.88520e-01,9.99999e-01
8.796253743e-01,7.24187e-01,9.99999e-01,9.14113e-01,7.92229e-01,9.99999e-01
8.840235012e-01,7.59836e-01,9.99999e-01,9.54709e-01,7.95882e-01,9.99999e-01
8.884436187e-01,7.85054e-01,9.99999e-01,9.81956e-01,7.99479e-01,9.99999e-01
8.928858368e-01,7.97122e-01,9.99999e-01,9.92653e-01,8.03021e-01,9.99999e-01
8.973502660e-01,8.05070e-01,9.99999e-01,9.98215e-01,8.06508e-01,9.99999e-01
9.018370173e-01,8.09782e-01,9.99999e-01,9.99803e-01,8.09941e-01,9.99999e-01
9.063462024e-01,8.09153e-01,9.99999e-01,9.94875e-01,8.13320e-01,9.99999e-01
9.108779334e-01,8.07189e-01,9.99999e-01,9.88417e-01,8.16647e-01,9.99999e-01
9.154323231e-01,8.17692e-01,9.99999e-01,9.97281e-01,8.19921e-01,9.99999e-01
9.200094847e-01,7.89829e-01,9.99999e-01,9.59528e-01,8.23142e-01,9.99999e-01
9.246095321e-01,7.80424e-01,9.99999e-01,9.44464e-01,8.26313e-01,9.99999e-01
9.292325798e-01,7.92804e-01,9.99999e-01,9.55838e-01,8.29433e-01,9.99999e-01
9.338787427e-01,7.97180e-01,9.99999e-01,9.57570e-01,8.32502e-01,9.99999e-01
9.385481364e-01,8.09373e-01,9.99999e-01,9.68702e-01,8.35522e-01,9.99999e-01
9.432408771e-01,8.22369e-01,9.99999e-01,9.80769e-01,8.38493e-01,9.99999e-01
9.479570815e-01,8.33072e-01,9.99999e-01,9.90082e-01,8.41416e-01,9.99999e-01
9.526968669e-01,8.40246e-01,9.99999e-01,9.95209e-01,8.44290e-01,9.99999e-01
9.574603512e-01,8.45382e-01,9.99999e-01,9.97950e-01,8.47118e-01,9.99999e-01
9.622476530e-01,8.49355e-01,9.99999e-01,9.99360e-01,8.49898e-01,9.99999e-01
9.670588912e-01,8.52470e-01,9.99999e-01,9.99808e-01,8.52633e-01,9.99999e-01
9.718941857e-01,8.55311e-01,9.99999e-01,9.99986e-01,8.55322e-01,9.99999e-01
9.767536566e-01,8.57967e-01,9.99999e-01,9.99999e-01,8.57967e-01,9.99999e-01
9.816374249e-01,8.60567e-01,9.99999e-01,9.99999e-01,8.60567e-01,9.99999e-01
9.865456120e-01,8.63123e-01,9.99999e-01,9.99999e-01,8.63123e-01,9.99999e-01
9.914783401e-01,8.65636e-01,9.99999e-01,9.99999e-01,8.65636e-01,9.99999e-01
9.964357318e-01,8.68107e-01,9.99999e-01,9.99999e-01,8.68107e-01,9.99999e-01
1.001417910e+00,8.70536e-01,9.99999e-01,9.99999e-01,8.70536e-01,9.99999e-01
1.006425000e+00,8.72923e-01,9.99999e-01,9.99999e-01,8.72923e-01,9.99999e-01
1.011457125e+00,8.75269e-01,9.99999e-01,9.99999e-01,8.75269e-01,9.99999e-01
1.016514411e+00,8.77576e-01,9.99999e-01,9.99999e-01,8.77576e-01,9.99999e-01
1.021596983e+00,8.79817e-01,9.99999e-01,9.99971e-01,8.79842e-01,9.99999e-01
1.026704968e+00,8.80309e-01,9.99999e-01,9.98003e-01,8.82070e-01,9.99999e-01
1.031838492e+00,8.58318e-01,9.99999e-01,9.70663e-01,8.84259e-01,9.99999e-01
1.036997685e+00,2.37424e-01,9.99999e-01,2.67849e-01,8.86410e-01,9.99999e-01
1.042182673e+00,2.77904e-01,9.99999e-01,3.12771e-01,8.88523e-01,9.99999e-01
1.047393587e+00,2.61903e-01,9.99999e-01,2.94075e-01,8.90600e-01,9.99999e-01
1.052630555e+00,3.40251e-02,9.99999e-01,3.81173e-02,8.92641e-01,9.99999e-01
1.057893707e+00,6.63046e-02,9.99999e-01,7.41126e-02,8.94645e-01,9.99999e-01
1.063183176e+00,1.35515e-01,9.99999e-01,1.51140e-01,8.96615e-01,9.99999e-01
1.068499092e+00,2.52870e-01,9.99999e-01,2.81420e-01,8.98550e-01,9.99999e-01
1.073841587e+00,4.05247e-01,9.99999e-01,4.50048e-01,9.00450e-01,9.99999e-01
1.079210795e+00,5.45148e-01,9.99999e-01,6.04164e-01,9.02317e-01,9.99999e-01
1.084606849e+00,6.86750e-01,9.99999e-01,7.59551e-01,9.04151e-01,9.99999e-01
1.090029883e+00,7.85660e-01,9.99999e-01,8.67219e-01,9.05952e-01,9.99999e-01
1.095480033e+00,8.46280e-01,9.99999e-01,9.32311e-01,9.07722e-01,9.99999e-01
1.100957433e+00,8.79298e-01,9.99999e-01,9.66836e-01,9.09459e-01,9.99999e-01
1.106462220e+00,8.98559e-01,9.99999e-01,9.86164e-01,9.11166e-01,9.99999e-01
1.111994531e+00,9.08142e-01,9.99999e-01,9.94851e-01,9.12841e-01,9.99999e-01
1.117554504e+00,9.13338e-01,9.99999e-01,9.98743e-01,9.14487e-01,9.99999e-01
1.123142276e+00,9.16028e-01,9.99999e-01,9.99917e-01,9.16103e-01,9.99999e-01
1.128757988e+00,9.17690e-01,9.99999e-01,9.99999e-01,9.17690e-01,9.99999e-01
1.134401778e+00,9.19249e-01,9.99999e-01,9.99999e-01,9.19249e-01,9.99999e-01
1.140073787e+00,9.20779e-01,9.99999e-01,9.99999e-01,9.20779e-01,9.99999e-01
1.145774156e+00,9.22281e-01,9.99999e-01,9.99999e-01,9.22281e-01,9.99999e-01
1.151503026e+00,9.23756e-01,9.99999e-01,9.99999e-01,9.23756e-01,9.99999e-01
1.157260541e+00,9.25204e-01,9.99999e-01,9.99999e-01,9.25204e-01,9.99999e-01
1.163046844e+00,9.26626e-01,9.99999e-01,9.99999e-01,9.26626e-01,9.99999e-01
1.168862078e+00,9.28022e-01,9.99999e-01,9.99999e-01,9.28022e-01,9.99999e-01
1.174706389e+00,9.29392e-01,9.99999e-01,9.99999e-01,9.29392e-01,9.99999e-01
1.180579921e+00,9.30737e-01,9.99999e-01,9.99999e-01,9.30737e-01,9.99999e-01
1.186482820e+00,9.32054e-01,9.99999e-01,9.99995e-01,9.32058e-01,9.99999e-01
1.192415234e+00,9.26655e-01,9.99999e-01,9.92822e-01,9.33354e-01,9.99999e-01
1.198377311e+00,5.43306e-01,9.99999e-01,5.81307e-01,9.34626e-01,9.99999e-01
1.204369197e+00,5.67939e-07,9.99999e-01,6.06852e-07,9.35875e-01,9.99999e-01
1.210391043e+00,1.52657e-22,9.99999e-01,1.62903e-22,9.37101e-01,9.99999e-01
1.216442998e+00,9.34491e-20,9.99999e-01,9.95935e-20,9.38305e-01,9.99999e-01
1.222525213e+00,1.78652e-19,9.99999e-01,1.90159e-19,9.39486e-01,9.99999e-01
1.228637839e+00,5.31588e-15,9.99999e-01,5.65131e-15,9.40645e-01,9.99999e-01
1.234781029e+00,2.60882e-10,9.99999e-01,2.77008e-10,9.41782e-01,9.99999e-01
1.240954934e+00,5.39040e-07,9.99999e-01,5.71683e-07,9.42899e-01,9.99999e-01
1.247159708e+00,3.01990e-04,9.99999e-01,3.19906e-04,9.43994e-01,9.99999e-01
1.253395507e+00,1.09053e-02,9.99999e-01,1.15392e-02,9.45070e-01,9.99999e-01
1.259662485e+00,7.49246e-02,9.99999e-01,7.91909e-02,9.46125e-01,9.99999e-01
1.265960797e+00,2.17860e-01,9.99999e-01,2.30014e-01,9.47160e-01,9.99999e-01
1.272290601e+00,5.18116e-01,9.99999e-01,5.46433e-01,9.48177e-01,9.99999e-01
1.278652054e+00,4.55322e-01,9.99999e-01,4.79703e-01,9.49174e-01,9.99999e-01
1.285045314e+00,2.41386e-02,9.99999e-01,2.54050e-02,9.50152e-01,9.99999e-01
1.291470541e+00,2.45464e-03,9.99999e-01,2.58080e-03,9.51112e-01,9.99999e-01
1.297927893e+00,5.46836e-02,9.99999e-01,5.74375e-02,9.52054e-01,9.99999e-01
1.304417533e+00,3.18686e-01,9.99999e-01,3.34410e-01,9.52979e-01,9.99999e-01
1.310939621e+00,8.75124e-02,9.99999e-01,9.17430e-02,9.53886e-01,9.99999e-01
1.317494319e+00,3.40061e-08,9.99999e-01,3.56168e-08,9.54776e-01,9.99999e-01
1.324081790e+00,5.21118e-06,9.99999e-01,5.45302e-06,9.55649e-01,9.99999e-01
1.330702199e+00,1.47685e-03,9.99999e-01,1.54400e-03,9.56506e-01,9.99999e-01
1.337355710e+00,1.10366e-03,9.99999e-01,1.15283e-03,9.57346e-01,9.99999e-01
1.344042489e+00,3.59746e-04,9.99999e-01,3.75450e-04,9.58171e-01,9.99999e-01
1.350762701e+00,1.11729e-03,9.99999e-01,1.16508e-03,9.58980e-01,9.99999e-01
1.357516515e+00,1.13562e-02,9.99999e-01,1.18321e-02,9.59773e-01,9.99999e-01
1.364304097e+00,6.00249e-02,9.99999e-01,6.24900e-02,9.60552e-01,9.99999e-01
1.371125618e+00,2.22529e-01,9.99999e-01,2.31483e-01,9.61316e-01,9.99999e-01
1.377981246e+00,2.97935e-01,9.99999e-01,3.09683e-01,9.62065e-01,9.99999e-01
1.384871152e+00,4.86712e-01,9.99999e-01,5.05517e-01,9.62801e-01,9.99999e-01
1.391795508e+00,5.13252e-01,9.99999e-01,5.32683e-01,9.63522e-01,9.99999e-01
1.398754485e+00,6.54640e-01,9.99999e-01,6.78925e-01,9.64229e-01,9.99999e-01
1.405748258e+00,7.25126e-01,9.99999e-01,7.51485e-01,9.64923e-01,9.99999e-01
1.412776999e+00,8.06477e-01,9.99999e-01,8.35203e-01,9.65604e-01,9.99999e-01
1.419840884e+00,7.43625e-01,9.99999e-01,7.69580e-01,9.66272e-01,9.99999e-01
1.426940089e+00,9.64600e-02,9.99999e-01,9.97592e-02,9.66927e-01,9.99999e-01
1.434074789e+00,8.75040e-320,9.99999e-01,9.04387e-320,9.67569e-01,9.99999e-01
1.441245163e+00,0.00000e+00,9.99999e-01,0.00000e+00,9.68200e-01,9.99999e-01
1.448451389e+00,0.00000e+00,9.99999e-01,0.00000e+00,9.68818e-01,9.99999e-01
1.455693646e+00,1.63734e-173,9.99999e-01,1.68898e-173,9.69424e-01,9.99999e-01
1.462972114e+00,1.27457e-84,9.99999e-01,1.31396e-84,9.70019e-01,9.99999e-01
1.470286975e+00,3.84086e-36,9.99999e-01,3.95719e-36,9.70602e-01,9.99999e-01
