#,Wave/freq,Total,O2,CO2,Rayleigh,CIA
4.000000000e-01,4.24326e-02,9.99999e-01,9.99999e-01,4.24326e-02,9.99999e-01
4.020000000e-01,4.51683e-02,9.99999e-01,9.99999e-01,4.51683e-02,9.99999e-01
4.040100000e-01,4.80180e-02,9.99999e-01,9.99999e-01,4.80180e-02,9.99999e-01
4.060300500e-01,5.09858e-02,9.99999e-01,9.99999e-01,5.09858e-02,9.99999e-01
4.080602003e-01,5.40730e-02,9.99999e-01,9.99999e-01,5.40730e-02,9.99999e-01
4.101005013e-01,5.72806e-02,9.99999e-01,9.99999e-01,5.72806e-02,9.99999e-01
4.121510038e-01,6.06094e-02,9.99999e-01,9.99999e-01,6.06094e-02,9.99999e-01
4.142117588e-01,6.40601e-02,9.99999e-01,9.99999e-01,6.40601e-02,9.99999e-01
4.162828176e-01,6.76333e-02,9.99999e-01,9.99999e-01,6.76333e-02,9.99999e-01
4.183642317e-01,7.13293e-02,9.99999e-01,9.99999e-01,7.13293e-02,9.99999e-01
4.204560528e-01,7.51482e-02,9.99999e-01,9.99999e-01,7.51482e-02,9.99999e-01
4.225583331e-01,7.90901e-02,9.99999e-01,9.99999e-01,7.90901e-02,9.99999e-01
4.246711247e-01,8.31547e-02,9.99999e-01,9.99999e-01,8.31547e-02,9.99999e-01
4.267944804e-01,8.73417e-02,9.99999e-01,9.99999e-01,8.73417e-02,9.99999e-01
4.289284528e-01,9.16505e-02,9.99999e-01,9.99999e-01,9.16505e-02,9.99999e-01
4.310730950e-01,9.60805e-02,9.99999e-01,9.99999e-01,9.60805e-02,9.99999e-01
4.332284605e-01,1.00631e-01,9.99999e-01,9.99999e-01,1.00631e-01,9.99999e-01
4.353946028e-01,1.05300e-01,9.99999e-01,9.99999e-01,1.05300e-01,9.99999e-01
4.375715758e-01,1.10088e-01,9.99999e-01,9.99999e-01,1.10088e-01,9.99999e-01
4.397594337e-01,1.14992e-01,9.99999e-01,9.99999e-01,1.14992e-01,9.99999e-01
4.419582309e-01,1.20011e-01,9.99999e-01,9.99999e-01,1.20011e-01,9.99999e-01
4.441680220e-01,1.25144e-01,9.99999e-01,9.99999e-01,1.25144e-01,9.99999e-01
4.463888621e-01,1.30388e-01,9.99999e-01,9.99999e-01,1.30388e-01,9.99999e-01
4.486208064e-01,1.35742e-01,9.99999e-01,9.99999e-01,1.35742e-01,9.99999e-01
4.508639105e-01,1.41203e-01,9.99999e-01,9.99999e-01,1.41203e-01,9.99999e-01
4.531182300e-01,1.46770e-01,9.99999e-01,9.99999e-01,1.46770e-01,9.99999e-01
4.553838212e-01,1.52440e-01,9.99999e-01,9.99999e-01,1.52440e-01,9.99999e-01
4.576607403e-01,1.58210e-01,9.99999e-01,9.99999e-01,1.58210e-01,9.99999e-01
4.599490440e-01,1.64078e-01,9.99999e-01,9.99999e-01,1.64078e-01,9.99999e-01
4.622487892e-01,1.70042e-01,9.99999e-01,9.99999e-01,1.70042e-01,9.99999e-01
4.645600332e-01,1.76098e-01,9.99999e-01,9.99999e-01,1.76098e-01,9.99999e-01
4.668828333e-01,1.82244e-01,9.99999e-01,9.99999e-01,1.82244e-01,9.99999e-01
4.692172475e-01,1.88476e-01,9.99999e-01,9.99999e-01,1.88476e-01,9.99999e-01
4.715633337e-01,1.94792e-01,9.99999e-01,9.99999e-01,1.94792e-01,9.99999e-01
4.739211504e-01,2.01189e-01,9.99999e-01,9.99999e-01,2.01189e-01,9.99999e-01
4.762907561e-01,2.07663e-01,9.99999e-01,9.99999e-01,2.07663e-01,9.99999e-01
4.786722099e-01,2.14212e-01,9.99999e-01,9.99999e-01,2.14212e-01,9.99999e-01
4.810655710e-01,2.20832e-01,9.99999e-01,9.99999e-01,2.20832e-01,9.99999e-01
4.834708988e-01,2.27519e-01,9.99999e-01,9.99999e-01,2.27519e-01,9.99999e-01
4.858882533e-01,2.34271e-01,9.99999e-01,9.99999e-01,2.34271e-01,9.99999e-01
4.883176946e-01,2.41084e-01,9.99999e-01,9.99999e-01,2.41084e-01,9.99999e-01
4.907592831e-01,2.47954e-01,9.99999e-01,9.99999e-01,2.47954e-01,9.99999e-01
4.932130795e-01,2.54879e-01,9.99999e-01,9.99999e-01,2.54879e-01,9.99999e-01
4.956791449e-01,2.61855e-01,9.99999e-01,9.99999e-01,2.61855e-01,9.99999e-01
4.981575406e-01,2.68878e-01,9.99999e-01,9.99999e-01,2.68878e-01,9.99999e-01
5.006483283e-01,2.75945e-01,9.99999e-01,9.99999e-01,2.75945e-01,9.99999e-01
5.031515699e-01,2.83053e-01,9.99999e-01,9.99999e-01,2.83053e-01,9.99999e-01
5.056673278e-01,2.90198e-01,9.99999e-01,9.99999e-01,2.90198e-01,9.99999e-01
5.081956644e-01,2.97378e-01,9.99999e-01,9.99999e-01,2.97378e-01,9.99999e-01
5.107366428e-01,3.04587e-01,9.99999e-01,9.99999e-01,3.04587e-01,9.99999e-01
5.132903260e-01,3.11824e-01,9.99999e-01,9.99999e-01,3.11824e-01,9.99999e-01
5.158567776e-01,3.19085e-01,9.99999e-01,9.99999e-01,3.19085e-01,9.99999e-01
5.184360615e-01,3.26366e-01,9.99999e-01,9.99999e-01,3.26366e-01,9.99999e-01
5.210282418e-01,3.33665e-01,9.99999e-01,9.99999e-01,3.33665e-01,9.99999e-01
5.236333830e-01,3.40978e-01,9.99999e-01,9.99999e-01,3.40978e-01,9.99999e-01
5.262515499e-01,3.48302e-01,9.99999e-01,9.99999e-01,3.48302e-01,9.99999e-01
5.288828077e-01,3.55634e-01,9.99999e-01,9.99999e-01,3.55634e-01,9.99999e-01
5.315272217e-01,3.62972e-01,9.99999e-01,9.99999e-01,3.62972e-01,9.99999e-01
5.341848578e-01,3.70311e-01,9.99999e-01,9.99999e-01,3.70311e-01,9.99999e-01
5.368557821e-01,3.77649e-01,9.99999e-01,9.99999e-01,3.77649e-01,9.99999e-01
5.395400610e-01,3.84983e-01,9.99999e-01,9.99999e-01,3.84983e-01,9.99999e-01
5.422377613e-01,3.92311e-01,9.99999e-01,9.99999e-01,3.92311e-01,9.99999e-01
5.449489501e-01,3.99629e-01,9.99999e-01,9.99999e-01,3.99629e-01,9.99999e-01
5.476736949e-01,4.06935e-01,9.99999e-01,9.99999e-01,4.06935e-01,9.99999e-01
5.504120634e-01,4.14227e-01,9.99999e-01,9.99999e-01,4.14227e-01,9.99999e-01
5.531641237e-01,4.21501e-01,9.99999e-01,9.99999e-01,4.21501e-01,9.99999e-01
5.559299443e-01,4.28755e-01,9.99999e-01,9.99999e-01,4.28755e-01,9.99999e-01
5.587095940e-01,4.35988e-01,9.99999e-01,9.99999e-01,4.35988e-01,9.99999e-01
5.615031420e-01,4.43196e-01,9.99999e-01,9.99999e-01,4.43196e-01,9.99999e-01
5.643106577e-01,4.50377e-01,9.99999e-01,9.99999e-01,4.50377e-01,9.99999e-01
5.671322110e-01,4.57529e-01,9.99999e-01,9.99999e-01,4.57529e-01,9.99999e-01
5.699678720e-01,4.64651e-01,9.99999e-01,9.99999e-01,4.64651e-01,9.99999e-01
5.728177114e-01,4.71739e-01,9.99999e-01,9.99999e-01,4.71739e-01,9.99999e-01
5.756818000e-01,4.78792e-01,9.99999e-01,9.99999e-01,4.78792e-01,9.99999e-01
5.785602090e-01,4.85808e-01,9.99999e-01,9.99999e-01,4.85808e-01,9.99999e-01
5.814530100e-01,4.92785e-01,9.99999e-01,9.99999e-01,4.92785e-01,9.99999e-01
5.843602750e-01,4.99722e-01,9.99999e-01,9.99999e-01,4.99722e-01,9.99999e-01
5.872820764e-01,5.06617e-01,9.99999e-01,9.99999e-01,5.06617e-01,9.99999e-01
5.902184868e-01,5.13467e-01,9.99999e-01,9.99999e-01,5.13467e-01,9.99999e-01
5.931695792e-01,5.20272e-01,9.99999e-01,9.99999e-01,5.20272e-01,9.99999e-01
5.961354271e-01,5.27031e-01,9.99999e-01,9.99999e-01,5.27031e-01,9.99999e-01
5.991161043e-01,5.33741e-01,9.99999e-01,9.99999e-01,5.33741e-01,9.99999e-01
6.021116848e-01,5.40401e-01,9.99999e-01,9.99999e-01,5.40401e-01,9.99999e-01
6.051222432e-01,5.47011e-01,9.99999e-01,9.99999e-01,5.47011e-01,9.99999e-01
6.081478544e-01,5.53568e-01,9.99999e-01,9.99999e-01,5.53568e-01,9.99999e-01
6.111885937e-01,5.60072e-01,9.99999e-01,9.99999e-01,5.60072e-01,9.99999e-01
6.142445367e-01,5.66522e-01,9.99999e-01,9.99999e-01,5.66522e-01,9.99999e-01
6.173157594e-01,5.72917e-01,9.99999e-01,9.99999e-01,5.72917e-01,9.99999e-01
6.204023382e-01,5.79255e-01,9.99999e-01,9.99999e-01,5.79255e-01,9.99999e-01
6.235043498e-01,5.85536e-01,9.99999e-01,9.99999e-01,5.85536e-01,9.99999e-01
6.266218716e-01,5.91759e-01,9.99999e-01,9.99999e-01,5.91759e-01,9.99999e-01
6.297549810e-01,5.97923e-01,9.99999e-01,9.99999e-01,5.97923e-01,9.99999e-01
6.329037559e-01,6.04028e-01,9.99999e-01,9.99999e-01,6.04028e-01,9.99999e-01
6.360682746e-01,6.10073e-01,9.99999e-01,9.99999e-01,6.10073e-01,9.99999e-01
6.392486160e-01,6.16058e-01,9.99999e-01,9.99999e-01,6.16058e-01,9.99999e-01
6.424448591e-01,6.21981e-01,9.99999e-01,9.99999e-01,6.21981e-01,9.99999e-01
6.456570834e-01,6.27842e-01,9.99999e-01,9.99999e-01,6.27842e-01,9.99999e-01
6.488853688e-01,6.33641e-01,9.99999e-01,9.99999e-01,6.33641e-01,9.99999e-01
6.521297956e-01,6.39377e-01,9.99999e-01,9.99999e-01,6.39377e-01,9.99999e-01
6.553904446e-01,6.45051e-01,9.99999e-01,9.99999e-01,6.45051e-01,9.99999e-01
6.586673968e-01,6.50661e-01,9.99999e-01,9.99999e-01,6.50661e-01,9.99999e-01
6.619607338e-01,6.56208e-01,9.99999e-01,9.99999e-01,6.56208e-01,9.99999e-01
6.652705375e-01,6.61691e-01,9.99999e-01,9.99999e-01,6.61691e-01,9.99999e-01
6.685968902e-01,6.67111e-01,9.99999e-01,9.99999e-01,6.67111e-01,9.99999e-01
6.719398746e-01,6.72466e-01,9.99999e-01,9.99999e-01,6.72466e-01,9.99999e-01
6.752995740e-01,6.77758e-01,9.99999e-01,9.99999e-01,6.77758e-01,9.99999e-01
6.786760719e-01,6.82985e-01,9.99999e-01,9.99999e-01,6.82985e-01,9.99999e-01
6.820694522e-01,6.88148e-01,9.99999e-01,9.99999e-01,6.88148e-01,9.99999e-01
6.854797995e-01,6.93247e-01,9.99999e-01,9.99999e-01,6.93247e-01,9.99999e-01
6.889071985e-01,6.98282e-01,9.99999e-01,9.99999e-01,6.98282e-01,9.99999e-01
6.923517345e-01,7.03253e-01,9.99999e-01,9.99999e-01,7.03253e-01,9.99999e-01
6.958134932e-01,7.08160e-01,9.99999e-01,9.99999e-01,7.08160e-01,9.99999e-01
6.992925606e-01,7.13004e-01,9.99999e-01,9.99999e-01,7.13004e-01,9.99999e-01
7.027890234e-01,7.17784e-01,9.99999e-01,9.99999e-01,7.17784e-01,9.99999e-01
7.063029686e-01,7.22501e-01,9.99999e-01,9.99999e-01,7.22501e-01,9.99999e-01
7.098344834e-01,7.27154e-01,9.99999e-01,9.99999e-01,7.27154e-01,9.99999e-01
7.133836558e-01,7.31745e-01,9.99999e-01,9.99999e-01,7.31745e-01,9.99999e-01
7.169505741e-01,7.36273e-01,9.99999e-01,9.99999e-01,7.36273e-01,9.99999e-01
7.205353270e-01,7.40739e-01,9.99999e-01,9.99999e-01,7.40739e-01,9.99999e-01
7.241380036e-01,7.45143e-01,9.99999e-01,9.99999e-01,7.45143e-01,9.99999e-01
7.277586936e-01,7.49485e-01,9.99999e-01,9.99999e-01,7.49485e-01,9.99999e-01
7.313974871e-01,7.53767e-01,9.99999e-01,9.99999e-01,7.53767e-01,9.99999e-01
7.350544745e-01,7.57987e-01,9.99999e-01,9.99999e-01,7.57987e-01,9.99999e-01
7.387297469e-01,7.62147e-01,9.99999e-01,9.99999e-01,7.62147e-01,9.99999e-01
7.424233956e-01,7.66247e-01,9.99999e-01,9.99999e-01,7.66247e-01,9.99999e-01
7.461355126e-01,7.70287e-01,9.99999e-01,9.99999e-01,7.70287e-01,9.99999e-01
7.498661902e-01,7.74269e-01,9.99999e-01,9.99999e-01,7.74269e-01,9.99999e-01
7.536155211e-01,7.78191e-01,9.99999e-01,9.99999e-01,7.78191e-01,9.99999e-01
7.573835987e-01,7.82056e-01,9.99999e-01,9.99999e-01,7.82056e-01,9.99999e-01
7.611705167e-01,7.85862e-01,9.99999e-01,9.99999e-01,7.85862e-01,9.99999e-01
7.649763693e-01,7.89612e-01,9.99999e-01,9.99999e-01,7.89612e-01,9.99999e-01
7.688012511e-01,7.93304e-01,9.99999e-01,9.99999e-01,7.93304e-01,9.99999e-01
7.726452574e-01,7.96941e-01,9.99999e-01,9.99999e-01,7.96941e-01,9.99999e-01
7.765084837e-01,8.00522e-01,9.99999e-01,9.99999e-01,8.00522e-01,9.99999e-01
7.803910261e-01,7.94826e-01,9.99999e-01,9.88530e-01,8.04048e-01,9.99999e-01
7.842929812e-01,7.70481e-01,9.99999e-01,9.54132e-01,8.07519e-01,9.99999e-01
7.882144461e-01,7.70776e-01,9.99999e-01,9.50476e-01,8.10936e-01,9.99999e-01
7.921555184e-01,7.91020e-01,9.99999e-01,9.71410e-01,8.14300e-01,9.99999e-01
7.961162960e-01,8.02046e-01,9.99999e-01,9.80962e-01,8.17611e-01,9.99999e-01
8.000968774e-01,8.12354e-01,9.99999e-01,9.89626e-01,8.20869e-01,9.99999e-01
8.040973618e-01,8.19655e-01,9.99999e-01,9.94633e-01,8.24076e-01,9.99999e-01
8.081178486e-01,8.25186e-01,9.99999e-01,9.97526e-01,8.27232e-01,9.99999e-01
8.121584379e-01,8.29707e-01,9.99999e-01,9.99241e-01,8.30337e-01,9.99999e-01
8.162192301e-01,8.33252e-01,9.99999e-01,9.99832e-01,8.33392e-01,9.99999e-01
8.203003262e-01,8.36395e-01,9.99999e-01,9.99997e-01,8.36397e-01,9.99999e-01
8.244018279e-01,8.39354e-01,9.99999e-01,9.99999e-01,8.39354e-01,9.99999e-01
8.285238370e-01,8.42262e-01,9.99999e-01,9.99999e-01,8.42262e-01,9.99999e-01
8.326664562e-01,8.45123e-01,9.99999e-01,9.99999e-01,8.45123e-01,9.99999e-01
8.368297885e-01,8.47937e-01,9.99999e-01,9.99999e-01,8.47937e-01,9.99999e-01
8.410139374e-01,8.50704e-01,9.99999e-01,9.99999e-01,8.50704e-01,9.99999e-01
8.452190071e-01,8.53425e-01,9.99999e-01,9.99999e-01,8.53425e-01,9.99999e-01
8.494451021e-01,8.56101e-01,9.99999e-01,9.99999e-01,8.56101e-01,9.99999e-01
8.536923276e-01,8.58733e-01,9.99999e-01,9.99999e-01,8.58733e-01,9.99999e-01
8.579607893e-01,8.61320e-01,9.99999e-01,9.99999e-01,8.61320e-01,9.99999e-01
8.622505932e-01,8.63863e-01,9.99999e-01,9.99999e-01,8.63863e-01,9.99999e-01
8.665618462e-01,8.38049e-01,9.99999e-01,9.67316e-01,8.66364e-01,9.99999e-01
8.708946554e-01,7.68760e-01,9.99999e-01,8.84829e-01,8.68822e-01,9.99999e-01
8.752491287e-01,7.91102e-01,9.99999e-01,9.08018e-01,8.71239e-01,9.99999e-01
8.796253743e-01,8.29203e-01,9.99999e-01,9.49163e-01,8.73614e-01,9.99999e-01
8.840235012e-01,8.52728e-01,9.99999e-01,9.73490e-01,8.75949e-01,9.99999e-01
8.884436187e-01,8.69050e-01,9.99999e-01,9.89531e-01,8.78244e-01,9.99999e-01
8.928858368e-01,8.76751e-01,9.99999e-01,9.95742e-01,8.80499e-01,9.99999e-01
8.973502660e-01,8.81805e-01,9.99999e-01,9.98969e-01,8.82715e-01,9.99999e-01
9.018370173e-01,8.84792e-01,9.99999e-01,9.99886e-01,8.84893e-01,9.99999e-01
9.063462024e-01,8.84368e-01,9.99999e-01,9.96995e-01,8.87033e-01,9.99999e-01
9.108779334e-01,8.83155e-01,9.99999e-01,9.93273e-01,8.89135e-01,9.99999e-01
9.154323231e-01,8.89803e-01,9.99999e-01,9.98430e-01,8.91202e-01,9.99999e-01
9.200094847e-01,8.71648e-01,9.99999e-01,9.75836e-01,8.93232e-01,9.99999e-01
9.246095321e-01,8.66045e-01,9.99999e-01,9.67403e-01,8.95226e-01,9.99999e-01
9.292325798e-01,8.73839e-01,9.99999e-01,9.73978e-01,8.97185e-01,9.99999e-01
9.338787427e-01,8.76764e-01,9.99999e-01,9.75146e-01,8.99110e-01,9.99999e-01
9.385481364e-01,8.84535e-01,9.99999e-01,9.81725e-01,9.01001e-01,9.99999e-01
9.432408771e-01,8.92762e-01,9.99999e-01,9.88817e-01,9.02858e-01,9.99999e-01
9.479570815e-01,8.99472e-01,9.99999e-01,9.94240e-01,9.04682e-01,9.99999e-01
9.526968669e-01,9.03957e-01,9.99999e-01,9.97223e-01,9.06474e-01,9.99999e-01
9.574603512e-01,9.07156e-01,9.99999e-01,9.98812e-01,9.08234e-01,9.99999e-01
9.622476530e-01,9.09626e-01,9.99999e-01,9.99629e-01,9.09962e-01,9.99999e-01
9.670588912e-01,9.11559e-01,9.99999e-01,9.99888e-01,9.11659e-01,9.99999e-01
9.718941857e-01,9.13319e-01,9.99999e-01,9.99991e-01,9.13326e-01,9.99999e-01
9.767536566e-01,9.14964e-01,9.99999e-01,9.99999e-01,9.14964e-01,9.99999e-01
9.816374249e-01,9.16571e-01,9.99999e-01,9.99999e-01,9.16571e-01,9.99999e-01
9.865456120e-01,9.18150e-01,9.99999e-01,9.99999e-01,9.18150e-01,9.99999e-01
9.914783401e-01,9.19700e-01,9.99999e-01,9.99999e-01,9.19700e-01,9.99999e-01
9.964357318e-01,9.21221e-01,9.99999e-01,9.99999e-01,9.21221e-01,9.99999e-01
1.001417910e+00,9.22716e-01,9.99999e-01,9.99999e-01,9.22716e-01,9.99999e-01
1.006425000e+00,9.24183e-01,9.99999e-01,9.99999e-01,9.24183e-01,9.99999e-01
1.011457125e+00,9.25623e-01,9.99999e-01,9.99999e-01,9.25623e-01,9.99999e-01
1.016514411e+00,9.27037e-01,9.99999e-01,9.99999e-01,9.27037e-01,9.99999e-01
1.021596983e+00,9.28410e-01,9.99999e-01,9.99982e-01,9.28426e-01,9.99999e-01
1.026704968e+00,9.28701e-01,9.99999e-01,9.98829e-01,9.29789e-01,9.99999e-01
1.031838492e+00,9.11980e-01,9.99999e-01,9.79436e-01,9.31127e-01,9.99999e-01
1.036997685e+00,3.74106e-01,9.99999e-01,4.01211e-01,9.32440e-01,9.99999e-01
1.042182673e+00,4.69164e-01,9.99999e-01,5.02463e-01,9.33729e-01,9.99999e-01
1.047393587e+00,4.07116e-01,9.99999e-01,4.35421e-01,9.34995e-01,9.99999e-01
1.052630555e+00,1.18590e-01,9.99999e-01,1.26666e-01,9.36237e-01,9.99999e-01
1.057893707e+00,1.93903e-01,9.99999e-01,2.06840e-01,9.37456e-01,9.99999e-01
1.063183176e+00,3.02349e-01,9.99999e-01,3.22109e-01,9.38653e-01,9.99999e-01
1.068499092e+00,4.46744e-01,9.99999e-01,4.75347e-01,9.39827e-01,9.99999e-01
1.073841587e+00,5.89701e-01,9.99999e-01,6.26688e-01,9.40980e-01,9.99999e-01
1.079210795e+00,7.02105e-01,9.99999e-01,7.45245e-01,9.42111e-01,9.99999e-01
1.084606849e+00,8.03951e-01,9.99999e-01,8.52344e-01,9.43222e-01,9.99999e-01
1.090029883e+00,8.69371e-01,9.99999e-01,9.20640e-01,9.44311e-01,9.99999e-01
1.095480033e+00,9.07735e-01,9.99999e-01,9.60178e-01,9.45381e-01,9.99999e-01
1.100957433e+00,9.28110e-01,9.99999e-01,9.80642e-01,9.46430e-01,9.99999e-01
1.106462220e+00,9.39847e-01,9.99999e-01,9.91964e-01,9.47460e-01,9.99999e-01
1.111994531e+00,9.45640e-01,9.99999e-01,9.97015e-01,9.48470e-01,9.99999e-01
1.117554504e+00,9.48773e-01,9.99999e-01,9.99273e-01,9.49462e-01,9.99999e-01
1.123142276e+00,9.50390e-01,9.99999e-01,9.99952e-01,9.50435e-01,9.99999e-01
1.128757988e+00,9.51390e-01,9.99999e-01,9.99999e-01,9.51390e-01,9.99999e-01
1.134401778e+00,9.52327e-01,9.99999e-01,9.99999e-01,9.52327e-01,9.99999e-01
1.140073787e+00,9.53246e-01,9.99999e-01,9.99999e-01,9.53246e-01,9.99999e-01
1.145774156e+00,9.54148e-01,9.99999e-01,9.99999e-01,9.54148e-01,9.99999e-01
1.151503026e+00,9.55033e-01,9.99999e-01,9.99999e-01,9.55033e-01,9.99999e-01
1.157260541e+00,9.55901e-01,9.99999e-01,9.99999e-01,9.55901e-01,9.99999e-01
1.163046844e+00,9.56753e-01,9.99999e-01,9.99999e-01,9.56753e-01,9.99999e-01
1.168862078e+00,9.57589e-01,9.99999e-01,9.99999e-01,9.57589e-01,9.99999e-01
1.174706389e+00,9.58409e-01,9.99999e-01,9.99999e-01,9.58409e-01,9.99999e-01
1.180579921e+00,9.59214e-01,9.99999e-01,9.99999e-01,9.59214e-01,9.99999e-01
1.186482820e+00,9.60001e-01,9.99999e-01,9.99996e-01,9.60003e-01,9.99999e-01
1.192415234e+00,9.56710e-01,9.99999e-01,9.95766e-01,9.60777e-01,9.99999e-01
1.198377311e+00,5.89300e-01,9.99999e-01,6.12872e-01,9.61537e-01,9.99999e-01
1.204369197e+00,5.65530e-05,9.99999e-01,5.87696e-05,9.62282e-01,9.99999e-01
1.210391043e+00,5.05146e-14,9.99999e-01,5.24547e-14,9.63013e-01,9.99999e-01
1.216442998e+00,2.33268e-12,9.99999e-01,2.42047e-12,9.63730e-01,9.99999e-01
1.222525213e+00,3.93668e-12,9.99999e-01,4.08185e-12,9.64434e-01,9.99999e-01
1.228637839e+00,2.88244e-09,9.99999e-01,2.98660e-09,9.65124e-01,9.99999e-01
1.234781029e+00,8.47457e-07,9.99999e-01,8.77465e-07,9.65801e-01,9.99999e-01
1.240954934e+00,1.26632e-04,9.99999e-01,1.31026e-04,9.66465e-01,9.99999e-01
1.247159708e+00,6.71878e-03,9.99999e-01,6.94722e-03,9.67116e-01,9.99999e-01
1.253395507e+00,6.66662e-02,9.99999e-01,6.88874e-02,9.67755e-01,9.99999e-01
1.259662485e+00,2.14807e-01,9.99999e-01,2.21820e-01,9.68382e-01,9.99999e-01
1.265960797e+00,4.06208e-01,9.99999e-01,4.19204e-01,9.68997e-01,9.99999e-01
1.272290601e+00,6.81349e-01,9.99999e-01,7.02711e-01,9.69600e-01,9.99999e-01
1.278652054e+00,6.18648e-01,9.99999e-01,6.37655e-01,9.70191e-01,9.99999e-01
1.285045314e+00,7.47093e-02,9.99999e-01,7.69586e-02,9.70771e-01,9.99999e-01
1.291470541e+00,2.73685e-02,9.99999e-01,2.81760e-02,9.71340e-01,9.99999e-01
1.297927893e+00,1.58041e-01,9.99999e-01,1.62611e-01,9.71898e-01,9.99999e-01
1.304417533e+00,5.13510e-01,9.99999e-01,5.28060e-01,9.72446e-01,9.99999e-01
1.310939621e+00,1.10976e-01,9.99999e-01,1.14058e-01,9.72982e-01,9.99999e-01
1.317494319e+00,3.42947e-05,9.99999e-01,3.52279e-05,9.73509e-01,9.99999e-01
1.324081790e+00,4.95706e-04,9.99999e-01,5.08925e-04,9.74025e-01,9.99999e-01
1.330702199e+00,2.07459e-02,9.99999e-01,2.12880e-02,9.74532e-01,9.99999e-01
1.337355710e+00,1.36190e-02,9.99999e-01,1.39678e-02,9.75028e-01,9.99999e-01
1.344042489e+00,6.31550e-03,9.99999e-01,6.47400e-03,9.75516e-01,9.99999e-01
1.350762701e+00,1.79306e-02,9.99999e-01,1.83716e-02,9.75993e-01,9.99999e-01
1.357516515e+00,6.86913e-02,9.99999e-01,7.03470e-02,9.76462e-01,9.99999e-01
1.364304097e+00,1.92828e-01,9.99999e-01,1.97384e-01,9.76921e-01,9.99999e-01
1.371125618e+00,4.12813e-01,9.99999e-01,4.22370e-01,9.77372e-01,9.99999e-01
1.377981246e+00,4.94638e-01,9.99999e-01,5.05861e-01,9.77814e-01,9.99999e-01
1.384871152e+00,6.58071e-01,9.99999e-01,6.72704e-01,9.78247e-01,9.99999e-01
1.391795508e+00,6.78759e-01,9.99999e-01,6.93550e-01,9.78672e-01,9.99999e-01
1.398754485e+00,7.82150e-01,9.99999e-01,7.98854e-01,9.79089e-01,9.99999e-01
1.405748258e+00,8.29825e-01,9.99999e-01,8.47193e-01,9.79498e-01,9.99999e-01
1.412776999e+00,8.82759e-01,9.99999e-01,9.00867e-01,9.79899e-01,9.99999e-01
1.419840884e+00,8.33848e-01,9.99999e-01,8.50611e-01,9.80292e-01,9.99999e-01
1.426940089e+00,1.28218e-01,9.99999e-01,1.30744e-01,9.80677e-01,9.99999e-01
1.434074789e+00,1.77851e-186,9.99999e-01,1.81285e-186,9.81055e-01,9.99999e-01
1.441245163e+00,1.38600e-274,9.99999e-01,1.41223e-274,9.81426e-01,9.99999e-01
1.448451389e+00,6.32179e-226,9.99999e-01,6.43904e-226,9.81790e-01,9.99999e-01
1.455693646e+00,1.29982e-101,9.99999e-01,1.32345e-101,9.82146e-01,9.99999e-01
1.462972114e+00,4.89729e-50,9.99999e-01,4.98454e-50,9.82496e-01,9.99999e-01
1.470286975e+00,6.89130e-22,9.99999e-01,7.01162e-22,9.82838e-01,9.99999e-01
