#,Wave/freq,Total,O2,CO2,Rayleigh,CIA
4.000000000e-01,1.40574e-02,9.99999e-01,9.99999e-01,1.40574e-02,9.99999e-01
4.020000000e-01,1.52941e-02,9.99999e-01,9.99999e-01,1.52941e-02,9.99999e-01
4.040100000e-01,1.66106e-02,9.99999e-01,9.99999e-01,1.66106e-02,9.99999e-01
4.060300500e-01,1.80110e-02,9.99999e-01,9.99999e-01,1.80110e-02,9.99999e-01
4.080602003e-01,1.94982e-02,9.99999e-01,9.99999e-01,1.94982e-02,9.99999e-01
4.101005013e-01,2.10752e-02,9.99999e-01,9.99999e-01,2.10752e-02,9.99999e-01
4.121510038e-01,2.27447e-02,9.99999e-01,9.99999e-01,2.27447e-02,9.99999e-01
4.142117588e-01,2.45096e-02,9.99999e-01,9.99999e-01,2.45096e-02,9.99999e-01
4.162828176e-01,2.63725e-02,9.99999e-01,9.99999e-01,2.63725e-02,9.99999e-01
4.183642317e-01,2.83359e-02,9.99999e-01,9.99999e-01,2.83359e-02,9.99999e-01
4.204560528e-01,3.04024e-02,9.99999e-01,9.99999e-01,3.04024e-02,9.99999e-01
4.225583331e-01,3.25742e-02,9.99999e-01,9.99999e-01,3.25742e-02,9.99999e-01
4.246711247e-01,3.48536e-02,9.99999e-01,9.99999e-01,3.48536e-02,9.99999e-01
4.267944804e-01,3.72428e-02,9.99999e-01,9.99999e-01,3.72428e-02,9.99999e-01
4.289284528e-01,3.97437e-02,9.99999e-01,9.99999e-01,3.97437e-02,9.99999e-01
4.310730950e-01,4.23580e-02,9.99999e-01,9.99999e-01,4.23580e-02,9.99999e-01
4.332284605e-01,4.50876e-02,9.99999e-01,9.99999e-01,4.50876e-02,9.99999e-01
4.353946028e-01,4.79339e-02,9.99999e-01,9.99999e-01,4.79339e-02,9.99999e-01
4.375715758e-01,5.08983e-02,9.99999e-01,9.99999e-01,5.08983e-02,9.99999e-01
4.397594337e-01,5.39820e-02,9.99999e-01,9.99999e-01,5.39820e-02,9.99999e-01
4.419582309e-01,5.71861e-02,9.99999e-01,9.99999e-01,5.71861e-02,9.99999e-01
4.441680220e-01,6.05114e-02,9.99999e-01,9.99999e-01,6.05114e-02,9.99999e-01
4.463888621e-01,6.39586e-02,9.99999e-01,9.99999e-01,6.39586e-02,9.99999e-01
4.486208064e-01,6.75282e-02,9.99999e-01,9.99999e-01,6.75282e-02,9.99999e-01
4.508639105e-01,7.12206e-02,9.99999e-01,9.99999e-01,7.12206e-02,9.99999e-01
4.531182300e-01,7.50360e-02,9.99999e-01,9.99999e-01,7.50360e-02,9.99999e-01
4.553838212e-01,7.89743e-02,9.99999e-01,9.99999e-01,7.89743e-02,9.99999e-01
4.576607403e-01,8.30354e-02,9.99999e-01,9.99999e-01,8.30354e-02,9.99999e-01
4.599490440e-01,8.72189e-02,9.99999e-01,9.99999e-01,8.72189e-02,9.99999e-01
4.622487892e-01,9.15242e-02,9.99999e-01,9.99999e-01,9.15242e-02,9.99999e-01
4.645600332e-01,9.59507e-02,9.99999e-01,9.99999e-01,9.59507e-02,9.99999e-01
4.668828333e-01,1.00497e-01,9.99999e-01,9.99999e-01,1.00497e-01,9.99999e-01
4.692172475e-01,1.05164e-01,9.99999e-01,9.99999e-01,1.05164e-01,9.99999e-01
4.715633337e-01,1.09948e-01,9.99999e-01,9.99999e-01,1.09948e-01,9.99999e-01
4.739211504e-01,1.14848e-01,9.99999e-01,9.99999e-01,1.14848e-01,9.99999e-01
4.762907561e-01,1.19864e-01,9.99999e-01,9.99999e-01,1.19864e-01,9.99999e-01
4.786722099e-01,1.24994e-01,9.99999e-01,9.99999e-01,1.24994e-01,9.99999e-01
4.810655710e-01,1.30235e-01,9.99999e-01,9.99999e-01,1.30235e-01,9.99999e-01
4.834708988e-01,1.35585e-01,9.99999e-01,9.99999e-01,1.35585e-01,9.99999e-01
4.858882533e-01,1.41044e-01,9.99999e-01,9.99999e-01,1.41044e-01,9.99999e-01
4.883176946e-01,1.46607e-01,9.99999e-01,9.99999e-01,1.46607e-01,9.99999e-01
4.907592831e-01,1.52274e-01,9.99999e-01,9.99999e-01,1.52274e-01,9.99999e-01
4.932130795e-01,1.58042e-01,9.99999e-01,9.99999e-01,1.58042e-01,9.99999e-01
4.956791449e-01,1.63907e-01,9.99999e-01,9.99999e-01,1.63907e-01,9.99999e-01
4.981575406e-01,1.69868e-01,9.99999e-01,9.99999e-01,1.69868e-01,9.99999e-01
5.006483283e-01,1.75921e-01,9.99999e-01,9.99999e-01,1.75921e-01,9.99999e-01
5.031515699e-01,1.82065e-01,9.99999e-01,9.99999e-01,1.82065e-01,9.99999e-01
5.056673278e-01,1.88295e-01,9.99999e-01,9.99999e-01,1.88295e-01,9.99999e-01
5.081956644e-01,1.94608e-01,9.99999e-01,9.99999e-01,1.94608e-01,9.99999e-01
5.107366428e-01,2.01003e-01,9.99999e-01,9.99999e-01,2.01003e-01,9.99999e-01
5.132903260e-01,2.07475e-01,9.99999e-01,9.99999e-01,2.07475e-01,9.99999e-01
5.158567776e-01,2.14022e-01,9.99999e-01,9.99999e-01,2.14022e-01,9.99999e-01
5.184360615e-01,2.20639e-01,9.99999e-01,9.99999e-01,2.20639e-01,9.99999e-01
5.210282418e-01,2.27325e-01,9.99999e-01,9.99999e-01,2.27325e-01,9.99999e-01
5.236333830e-01,2.34075e-01,9.99999e-01,9.99999e-01,2.34075e-01,9.99999e-01
5.262515499e-01,2.40886e-01,9.99999e-01,9.99999e-01,2.40886e-01,9.99999e-01
5.288828077e-01,2.47755e-01,9.99999e-01,9.99999e-01,2.47755e-01,9.99999e-01
5.315272217e-01,2.54678e-01,9.99999e-01,9.99999e-01,2.54678e-01,9.99999e-01
5.341848578e-01,2.61652e-01,9.99999e-01,9.99999e-01,2.61652e-01,9.99999e-01
5.368557821e-01,2.68674e-01,9.99999e-01,9.99999e-01,2.68674e-01,9.99999e-01
5.395400610e-01,2.75740e-01,9.99999e-01,9.99999e-01,2.75740e-01,9.99999e-01
5.422377613e-01,2.82847e-01,9.99999e-01,9.99999e-01,2.82847e-01,9.99999e-01
5.449489501e-01,2.89991e-01,9.99999e-01,9.99999e-01,2.89991e-01,9.99999e-01
5.476736949e-01,2.97169e-01,9.99999e-01,9.99999e-01,2.97169e-01,9.99999e-01
5.504120634e-01,3.04378e-01,9.99999e-01,9.99999e-01,3.04378e-01,9.99999e-01
5.531641237e-01,3.11614e-01,9.99999e-01,9.99999e-01,3.11614e-01,9.99999e-01
5.559299443e-01,3.18874e-01,9.99999e-01,9.99999e-01,3.18874e-01,9.99999e-01
5.587095940e-01,3.26155e-01,9.99999e-01,9.99999e-01,3.26155e-01,9.99999e-01
5.615031420e-01,3.33454e-01,9.99999e-01,9.99999e-01,3.33454e-01,9.99999e-01
5.643106577e-01,3.40766e-01,9.99999e-01,9.99999e-01,3.40766e-01,9.99999e-01
5.671322110e-01,3.48090e-01,9.99999e-01,9.99999e-01,3.48090e-01,9.99999e-01
5.699678720e-01,3.55422e-01,9.99999e-01,9.99999e-01,3.55422e-01,9.99999e-01
5.728177114e-01,3.62759e-01,9.99999e-01,9.99999e-01,3.62759e-01,9.99999e-01
5.756818000e-01,3.70098e-01,9.99999e-01,9.99999e-01,3.70098e-01,9.99999e-01
5.785602090e-01,3.77437e-01,9.99999e-01,9.99999e-01,3.77437e-01,9.99999e-01
5.814530100e-01,3.84771e-01,9.99999e-01,9.99999e-01,3.84771e-01,9.99999e-01
5.843602750e-01,3.92099e-01,9.99999e-01,9.99999e-01,3.92099e-01,9.99999e-01
5.872820764e-01,3.99417e-01,9.99999e-01,9.99999e-01,3.99417e-01,9.99999e-01
5.902184868e-01,4.06724e-01,9.99999e-01,9.99999e-01,4.06724e-01,9.99999e-01
5.931695792e-01,4.14016e-01,9.99999e-01,9.99999e-01,4.14016e-01,9.99999e-01
5.961354271e-01,4.21291e-01,9.99999e-01,9.99999e-01,4.21291e-01,9.99999e-01
5.991161043e-01,4.28546e-01,9.99999e-01,9.99999e-01,4.28546e-01,9.99999e-01
6.021116848e-01,4.35779e-01,9.99999e-01,9.99999e-01,4.35779e-01,9.99999e-01
6.051222432e-01,4.42988e-01,9.99999e-01,9.99999e-01,4.42988e-01,9.99999e-01
6.081478544e-01,4.50170e-01,9.99999e-01,9.99999e-01,4.50170e-01,9.99999e-01
6.111885937e-01,4.57323e-01,9.99999e-01,9.99999e-01,4.57323e-01,9.99999e-01
6.142445367e-01,4.64445e-01,9.99999e-01,9.99999e-01,4.64445e-01,9.99999e-01
6.173157594e-01,4.71534e-01,9.99999e-01,9.99999e-01,4.71534e-01,9.99999e-01
6.204023382e-01,4.78588e-01,9.99999e-01,9.99999e-01,4.78588e-01,9.99999e-01
6.235043498e-01,4.85606e-01,9.99999e-01,9.99999e-01,4.85606e-01,9.99999e-01
6.266218716e-01,4.92584e-01,9.99999e-01,9.99999e-01,4.92584e-01,9.99999e-01
6.297549810e-01,4.99522e-01,9.99999e-01,9.99999e-01,4.99522e-01,9.99999e-01
6.329037559e-01,5.06418e-01,9.99999e-01,9.99999e-01,5.06418e-01,9.99999e-01
6.360682746e-01,5.13270e-01,9.99999e-01,9.99999e-01,5.13270e-01,9.99999e-01
6.392486160e-01,5.20076e-01,9.99999e-01,9.99999e-01,5.20076e-01,9.99999e-01
6.424448591e-01,5.26836e-01,9.99999e-01,9.99999e-01,5.26836e-01,9.99999e-01
6.456570834e-01,5.33547e-01,9.99999e-01,9.99999e-01,5.33547e-01,9.99999e-01
6.488853688e-01,5.40209e-01,9.99999e-01,9.99999e-01,5.40209e-01,9.99999e-01
6.521297956e-01,5.46820e-01,9.99999e-01,9.99999e-01,5.46820e-01,9.99999e-01
6.553904446e-01,5.53379e-01,9.99999e-01,9.99999e-01,5.53379e-01,9.99999e-01
6.586673968e-01,5.59885e-01,9.99999e-01,9.99999e-01,5.59885e-01,9.99999e-01
6.619607338e-01,5.66336e-01,9.99999e-01,9.99999e-01,5.66336e-01,9.99999e-01
6.652705375e-01,5.72732e-01,9.99999e-01,9.99999e-01,5.72732e-01,9.99999e-01
6.685968902e-01,5.79072e-01,9.99999e-01,9.99999e-01,5.79072e-01,9.99999e-01
6.719398746e-01,5.85355e-01,9.99999e-01,9.99999e-01,5.85355e-01,9.99999e-01
6.752995740e-01,5.91580e-01,9.99999e-01,9.99999e-01,5.91580e-01,9.99999e-01
6.786760719e-01,5.97746e-01,9.99999e-01,9.99999e-01,5.97746e-01,9.99999e-01
6.820694522e-01,6.03853e-01,9.99999e-01,9.99999e-01,6.03853e-01,9.99999e-01
6.854797995e-01,6.09899e-01,9.99999e-01,9.99999e-01,6.09899e-01,9.99999e-01
6.889071985e-01,6.15885e-01,9.99999e-01,9.99999e-01,6.15885e-01,9.99999e-01
6.923517345e-01,6.21810e-01,9.99999e-01,9.99999e-01,6.21810e-01,9.99999e-01
6.958134932e-01,6.27673e-01,9.99999e-01,9.99999e-01,6.27673e-01,9.99999e-01
6.992925606e-01,6.33474e-01,9.99999e-01,9.99999e-01,6.33474e-01,9.99999e-01
7.027890234e-01,6.39212e-01,9.99999e-01,9.99999e-01,6.39212e-01,9.99999e-01
7.063029686e-01,6.44888e-01,9.99999e-01,9.99999e-01,6.44888e-01,9.99999e-01
7.098344834e-01,6.50500e-01,9.99999e-01,9.99999e-01,6.50500e-01,9.99999e-01
7.133836558e-01,6.56049e-01,9.99999e-01,9.99999e-01,6.56049e-01,9.99999e-01
7.169505741e-01,6.61534e-01,9.99999e-01,9.99999e-01,6.61534e-01,9.99999e-01
7.205353270e-01,6.66955e-01,9.99999e-01,9.99999e-01,6.66955e-01,9.99999e-01
7.241380036e-01,6.72312e-01,9.99999e-01,9.99999e-01,6.72312e-01,9.99999e-01
7.277586936e-01,6.77606e-01,9.99999e-01,9.99999e-01,6.77606e-01,9.99999e-01
7.313974871e-01,6.82835e-01,9.99999e-01,9.99999e-01,6.82835e-01,9.99999e-01
7.350544745e-01,6.88000e-01,9.99999e-01,9.99999e-01,6.88000e-01,9.99999e-01
7.387297469e-01,6.93101e-01,9.99999e-01,9.99999e-01,6.93101e-01,9.99999e-01
7.424233956e-01,6.98137e-01,9.99999e-01,9.99999e-01,6.98137e-01,9.99999e-01
7.461355126e-01,7.03110e-01,9.99999e-01,9.99999e-01,7.03110e-01,9.99999e-01
7.498661902e-01,7.08019e-01,9.99999e-01,9.99999e-01,7.08019e-01,9.99999e-01
7.536155211e-01,7.12865e-01,9.99999e-01,9.99999e-01,7.12865e-01,9.99999e-01
7.573835987e-01,7.17646e-01,9.99999e-01,9.99999e-01,7.17646e-01,9.99999e-01
7.611705167e-01,7.22365e-01,9.99999e-01,9.99999e-01,7.22365e-01,9.99999e-01
7.649763693e-01,7.27020e-01,9.99999e-01,9.99999e-01,7.27020e-01,9.99999e-01
7.688012511e-01,7.31613e-01,9.99999e-01,9.99999e-01,7.31613e-01,9.99999e-01
7.726452574e-01,7.36143e-01,9.99999e-01,9.99999e-01,7.36143e-01,9.99999e-01
7.765084837e-01,7.40611e-01,9.99999e-01,9.99999e-01,7.40611e-01,9.99999e-01
7.803910261e-01,7.33351e-01,9.99999e-01,9.84341e-01,7.45016e-01,9.99999e-01
7.842929812e-01,7.03657e-01,9.99999e-01,9.39009e-01,7.49361e-01,9.99999e-01
7.882144461e-01,7.03886e-01,9.99999e-01,9.33976e-01,7.53644e-01,9.99999e-01
7.921555184e-01,7.28767e-01,9.99999e-01,9.61603e-01,7.57866e-01,9.99999e-01
7.961162960e-01,7.42589e-01,9.99999e-01,9.74490e-01,7.62028e-01,9.99999e-01
8.000968774e-01,7.55449e-01,9.99999e-01,9.86058e-01,7.66129e-01,9.99999e-01
8.040973618e-01,7.64623e-01,9.99999e-01,9.92796e-01,7.70171e-01,9.99999e-01
8.081178486e-01,7.71578e-01,9.99999e-01,9.96671e-01,7.74154e-01,9.99999e-01
8.121584379e-01,7.77289e-01,9.99999e-01,9.98985e-01,7.78079e-01,9.99999e-01
8.162192301e-01,7.81769e-01,9.99999e-01,9.99775e-01,7.81945e-01,9.99999e-01
8.203003262e-01,7.85751e-01,9.99999e-01,9.99996e-01,7.85753e-01,9.99999e-01
8.244018279e-01,7.89504e-01,9.99999e-01,9.99999e-01,7.89504e-01,9.99999e-01
8.285238370e-01,7.93198e-01,9.99999e-01,9.99999e-01,7.93198e-01,9.99999e-01
8.326664562e-01,7.96837e-01,9.99999e-01,9.99999e-01,7.96837e-01,9.99999e-01
8.368297885e-01,8.00419e-01,9.99999e-01,9.99999e-01,8.00419e-01,9.99999e-01
8.410139374e-01,8.03947e-01,9.99999e-01,9.99999e-01,8.03947e-01,9.99999e-01
8.452190071e-01,8.07419e-01,9.99999e-01,9.99999e-01,8.07419e-01,9.99999e-01
8.494451021e-01,8.10838e-01,9.99999e-01,9.99999e-01,8.10838e-01,9.99999e-01
8.536923276e-01,8.14204e-01,9.99999e-01,9.99999e-01,8.14204e-01,9.99999e-01
8.579607893e-01,8.17516e-01,9.99999e-01,9.99999e-01,8.17516e-01,9.99999e-01
8.622505932e-01,8.20776e-01,9.99999e-01,9.99999e-01,8.20776e-01,9.99999e-01
8.665618462e-01,7.89069e-01,9.99999e-01,9.57625e-01,8.23984e-01,9.99999e-01
8.708946554e-01,7.02160e-01,9.99999e-01,8.48899e-01,8.27141e-01,9.99999e-01
8.752491287e-01,7.29523e-01,9.99999e-01,8.78680e-01,8.30248e-01,9.99999e-01
8.796253743e-01,7.76906e-01,9.99999e-01,9.32319e-01,8.33304e-01,9.99999e-01
8.840235012e-01,8.06638e-01,9.99999e-01,9.64518e-01,8.36311e-01,9.99999e-01
8.884436187e-01,8.27487e-01,9.99999e-01,9.85961e-01,8.39269e-01,9.99999e-01
8.928858368e-01,8.37366e-01,9.99999e-01,9.94285e-01,8.42179e-01,9.99999e-01
8.973502660e-01,8.43875e-01,9.99999e-01,9.98619e-01,8.45041e-01,9.99999e-01
9.018370173e-01,8.47728e-01,9.99999e-01,9.99848e-01,8.47856e-01,9.99999e-01
9.063462024e-01,8.47144e-01,9.99999e-01,9.95907e-01,8.50625e-01,9.99999e-01
9.108779334e-01,8.45633e-01,9.99999e-01,9.90958e-01,8.53347e-01,9.99999e-01
9.154323231e-01,8.54230e-01,9.99999e-01,9.97903e-01,8.56025e-01,9.99999e-01
9.200094847e-01,8.30783e-01,9.99999e-01,9.67537e-01,8.58657e-01,9.99999e-01
9.246095321e-01,8.23674e-01,9.99999e-01,9.56374e-01,8.61246e-01,9.99999e-01
9.292325798e-01,8.33521e-01,9.99999e-01,9.64957e-01,8.63790e-01,9.99999e-01
9.338787427e-01,8.37444e-01,9.99999e-01,9.66698e-01,8.66292e-01,9.99999e-01
9.385481364e-01,8.47436e-01,9.99999e-01,9.75462e-01,8.68752e-01,9.99999e-01
9.432408771e-01,8.58085e-01,9.99999e-01,9.84979e-01,8.71170e-01,9.99999e-01
9.479570815e-01,8.66776e-01,9.99999e-01,9.92249e-01,8.73546e-01,9.99999e-01
9.526968669e-01,8.72612e-01,9.99999e-01,9.96265e-01,8.75882e-01,9.99999e-01
9.574603512e-01,8.76777e-01,9.99999e-01,9.98404e-01,8.78178e-01,9.99999e-01
9.622476530e-01,8.79997e-01,9.99999e-01,9.99502e-01,8.80434e-01,9.99999e-01
9.670588912e-01,8.82520e-01,9.99999e-01,9.99851e-01,8.82651e-01,9.99999e-01
9.718941857e-01,8.84821e-01,9.99999e-01,9.99989e-01,8.84830e-01,9.99999e-01
9.767536566e-01,8.86971e-01,9.99999e-01,9.99999e-01,8.86971e-01,9.99999e-01
9.816374249e-01,8.89075e-01,9.99999e-01,9.99999e-01,8.89075e-01,9.99999e-01
9.865456120e-01,8.91142e-01,9.99999e-01,9.99999e-01,8.91142e-01,9.99999e-01
9.914783401e-01,8.93173e-01,9.99999e-01,9.99999e-01,8.93173e-01,9.99999e-01
9.964357318e-01,8.95169e-01,9.99999e-01,9.99999e-01,8.95169e-01,9.99999e-01
1.001417910e+00,8.97129e-01,9.99999e-01,9.99999e-01,8.97129e-01,9.99999e-01
1.006425000e+00,8.99055e-01,9.99999e-01,9.99999e-01,8.99055e-01,9.99999e-01
1.011457125e+00,9.00946e-01,9.99999e-01,9.99999e-01,9.00946e-01,9.99999e-01
1.016514411e+00,9.02804e-01,9.99999e-01,9.99999e-01,9.02804e-01,9.99999e-01
1.021596983e+00,9.04607e-01,9.99999e-01,9.99974e-01,9.04630e-01,9.99999e-01
1.026704968e+00,9.04973e-01,9.99999e-01,9.98399e-01,9.06422e-01,9.99999e-01
1.031838492e+00,8.83897e-01,9.99999e-01,9.73258e-01,9.08183e-01,9.99999e-01
1.036997685e+00,2.94327e-01,9.99999e-01,3.23467e-01,9.09912e-01,9.99999e-01
1.042182673e+00,3.64351e-01,9.99999e-01,3.99678e-01,9.11611e-01,9.99999e-01
1.047393587e+00,3.24455e-01,9.99999e-01,3.55263e-01,9.13279e-01,9.99999e-01
1.052630555e+00,6.37655e-02,9.99999e-01,6.96954e-02,9.14917e-01,9.99999e-01
1.057893707e+00,1.14985e-01,9.99999e-01,1.25458e-01,9.16525e-01,9.99999e-01
1.063183176e+00,2.04635e-01,9.99999e-01,2.22889e-01,9.18104e-01,9.99999e-01
1.068499092e+00,3.38750e-01,9.99999e-01,3.68344e-01,9.19655e-01,9.99999e-01
1.073841587e+00,4.92459e-01,9.99999e-01,5.34597e-01,9.21178e-01,9.99999e-01
1.079210795e+00,6.21598e-01,9.99999e-01,6.73692e-01,9.22673e-01,9.99999e-01
1.084606849e+00,7.45515e-01,9.99999e-01,8.06710e-01,9.24141e-01,9.99999e-01
1.090029883e+00,8.28067e-01,9.99999e-01,8.94643e-01,9.25582e-01,9.99999e-01
1.095480033e+00,8.77678e-01,9.99999e-01,9.46796e-01,9.26997e-01,9.99999e-01
1.100957433e+00,9.04271e-01,9.99999e-01,9.74024e-01,9.28386e-01,9.99999e-01
1.106462220e+00,9.19714e-01,9.99999e-01,9.89205e-01,9.29750e-01,9.99999e-01
1.111994531e+00,9.27352e-01,9.99999e-01,9.95986e-01,9.31088e-01,9.99999e-01
1.117554504e+00,9.31494e-01,9.99999e-01,9.99025e-01,9.32402e-01,9.99999e-01
1.123142276e+00,9.33633e-01,9.99999e-01,9.99936e-01,9.33692e-01,9.99999e-01
1.128757988e+00,9.34958e-01,9.99999e-01,9.99999e-01,9.34958e-01,9.99999e-01
1.134401778e+00,9.36201e-01,9.99999e-01,9.99999e-01,9.36201e-01,9.99999e-01
1.140073787e+00,9.37421e-01,9.99999e-01,9.99999e-01,9.37421e-01,9.99999e-01
1.145774156e+00,9.38618e-01,9.99999e-01,9.99999e-01,9.38618e-01,9.99999e-01
1.151503026e+00,9.39794e-01,9.99999e-01,9.99999e-01,9.39794e-01,9.99999e-01
1.157260541e+00,9.40947e-01,9.99999e-01,9.99999e-01,9.40947e-01,9.99999e-01
1.163046844e+00,9.42079e-01,9.99999e-01,9.99999e-01,9.42079e-01,9.99999e-01
1.168862078e+00,9.43190e-01,9.99999e-01,9.99999e-01,9.43190e-01,9.99999e-01
1.174706389e+00,9.44280e-01,9.99999e-01,9.99999e-01,9.44280e-01,9.99999e-01
1.180579921e+00,9.45350e-01,9.99999e-01,9.99999e-01,9.45350e-01,9.99999e-01
1.186482820e+00,9.46396e-01,9.99999e-01,9.99995e-01,9.46400e-01,9.99999e-01
1.192415234e+00,9.41940e-01,9.99999e-01,9.94204e-01,9.47430e-01,9.99999e-01
1.198377311e+00,5.61110e-01,9.99999e-01,5.91612e-01,9.48442e-01,9.99999e-01
1.204369197e+00,6.04604e-06,9.99999e-01,6.36804e-06,9.49434e-01,9.99999e-01
1.210391043e+00,3.84783e-18,9.99999e-01,4.04860e-18,9.50407e-01,9.99999e-01
1.216442998e+00,5.99775e-16,9.99999e-01,6.30437e-16,9.51363e-01,9.99999e-01
1.222525213e+00,1.04591e-15,9.99999e-01,1.09829e-15,9.52300e-01,9.99999e-01
1.228637839e+00,4.73652e-12,9.99999e-01,4.96897e-12,9.53220e-01,9.99999e-01
1.234781029e+00,1.58674e-08,9.99999e-01,1.66304e-08,9.54122e-01,9.99999e-01
1.240954934e+00,9.04485e-06,9.99999e-01,9.47096e-06,9.55008e-01,9.99999e-01
1.247159708e+00,1.43477e-03,9.99999e-01,1.50100e-03,9.55877e-01,9.99999e-01
1.253395507e+00,2.76824e-02,9.99999e-01,2.89344e-02,9.56729e-01,9.99999e-01
1.259662485e+00,1.28990e-01,9.99999e-01,1.34706e-01,9.57565e-01,9.99999e-01
1.265960797e+00,3.01003e-01,9.99999e-01,3.14073e-01,9.58386e-01,9.99999e-01
1.272290601e+00,5.97459e-01,9.99999e-01,6.22877e-01,9.59191e-01,9.99999e-01
1.278652054e+00,5.29609e-01,9.99999e-01,5.51687e-01,9.59980e-01,9.99999e-01
1.285045314e+00,4.00685e-02,9.99999e-01,4.17052e-02,9.60755e-01,9.99999e-01
1.291470541e+00,8.43833e-03,9.99999e-01,8.77607e-03,9.61515e-01,9.99999e-01
1.297927893e+00,9.37070e-02,9.99999e-01,9.73820e-02,9.62261e-01,9.99999e-01
1.304417533e+00,4.07774e-01,9.99999e-01,4.23444e-01,9.62992e-01,9.99999e-01
1.310939621e+00,7.99214e-02,9.99999e-01,8.29309e-02,9.63710e-01,9.99999e-01
1.317494319e+00,1.15735e-06,9.99999e-01,1.20006e-06,9.64414e-01,9.99999e-01
1.324081790e+00,2.30780e-04,9.99999e-01,2.39124e-04,9.65104e-01,9.99999e-01
1.330702199e+00,5.72194e-03,9.99999e-01,5.92467e-03,9.65782e-01,9.99999e-01
1.337355710e+00,5.74629e-03,9.99999e-01,5.94579e-03,9.66446e-01,9.99999e-01
1.344042489e+00,1.13879e-03,9.99999e-01,1.17754e-03,9.67098e-01,9.99999e-01
1.350762701e+00,4.67430e-03,9.99999e-01,4.83013e-03,9.67737e-01,9.99999e-01
1.357516515e+00,2.87919e-02,9.99999e-01,2.97325e-02,9.68364e-01,9.99999e-01
1.364304097e+00,1.09901e-01,9.99999e-01,1.13419e-01,9.68979e-01,9.99999e-01
1.371125618e+00,3.06999e-01,9.99999e-01,3.16629e-01,9.69582e-01,9.99999e-01
1.377981246e+00,3.87459e-01,9.99999e-01,3.99370e-01,9.70174e-01,9.99999e-01
1.384871152e+00,5.69349e-01,9.99999e-01,5.86501e-01,9.70755e-01,9.99999e-01
1.391795508e+00,5.93540e-01,9.99999e-01,6.11062e-01,9.71324e-01,9.99999e-01
1.398754485e+00,7.18106e-01,9.99999e-01,7.38881e-01,9.71882e-01,9.99999e-01
1.405748258e+00,7.77949e-01,9.99999e-01,8.00005e-01,9.72430e-01,9.99999e-01
1.412776999e+00,8.45435e-01,9.99999e-01,8.68924e-01,9.72967e-01,9.99999e-01
1.419840884e+00,7.85768e-01,9.99999e-01,8.07162e-01,9.73494e-01,9.99999e-01
1.426940089e+00,1.10605e-01,9.99999e-01,1.13556e-01,9.74010e-01,9.99999e-01
1.434074789e+00,6.50079e-251,9.99999e-01,6.67077e-251,9.74517e-01,9.99999e-01
1.441245163e+00,0.00000e+00,9.99999e-01,0.00000e+00,9.75014e-01,9.99999e-01
1.448451389e+00,3.67642e-304,9.99999e-01,3.76875e-304,9.75502e-01,9.99999e-01
1.455693646e+00,2.28934e-136,9.99999e-01,2.34568e-136,9.75980e-01,9.99999e-01
1.462972114e+00,9.36679e-67,9.99999e-01,9.59270e-67,9.76448e-01,9.99999e-01
1.470286975e+00,8.79661e-29,9.99999e-01,9.00453e-29,9.76908e-01,9.99999e-01
