#,Wave/freq,Total,O2,CO2,Rayleigh,CIA
4.000000000e-01,4.17412e-03,9.99999e-01,9.99999e-01,4.17412e-03,9.99999e-01
4.020000000e-01,4.65171e-03,9.99999e-01,9.99999e-01,4.65171e-03,9.99999e-01
4.040100000e-01,5.17229e-03,9.99999e-01,9.99999e-01,5.17229e-03,9.99999e-01
4.060300500e-01,5.73910e-03,9.99999e-01,9.99999e-01,5.73910e-03,9.99999e-01
4.080602003e-01,6.35495e-03,9.99999e-01,9.99999e-01,6.35495e-03,9.99999e-01
4.101005013e-01,7.02273e-03,9.99999e-01,9.99999e-01,7.02273e-03,9.99999e-01
4.121510038e-01,7.74538e-03,9.99999e-01,9.99999e-01,7.74538e-03,9.99999e-01
4.142117588e-01,8.52589e-03,9.99999e-01,9.99999e-01,8.52589e-03,9.99999e-01
4.162828176e-01,9.36726e-03,9.99999e-01,9.99999e-01,9.36726e-03,9.99999e-01
4.183642317e-01,1.02725e-02,9.99999e-01,9.99999e-01,1.02725e-02,9.99999e-01
4.204560528e-01,1.12448e-02,9.99999e-01,9.99999e-01,1.12448e-02,9.99999e-01
4.225583331e-01,1.22871e-02,9.99999e-01,9.99999e-01,1.22871e-02,9.99999e-01
4.246711247e-01,1.34026e-02,9.99999e-01,9.99999e-01,1.34026e-02,9.99999e-01
4.267944804e-01,1.45942e-02,9.99999e-01,9.99999e-01,1.45942e-02,9.99999e-01
4.289284528e-01,1.58651e-02,9.99999e-01,9.99999e-01,1.58651e-02,9.99999e-01
4.310730950e-01,1.72183e-02,9.99999e-01,9.99999e-01,1.72183e-02,9.99999e-01
4.332284605e-01,1.86566e-02,9.99999e-01,9.99999e-01,1.86566e-02,9.99999e-01
4.353946028e-01,2.01831e-02,9.99999e-01,9.99999e-01,2.01831e-02,9.99999e-01
4.375715758e-01,2.18006e-02,9.99999e-01,9.99999e-01,2.18006e-02,9.99999e-01
4.397594337e-01,2.35119e-02,9.99999e-01,9.99999e-01,2.35119e-02,9.99999e-01
4.419582309e-01,2.53197e-02,9.99999e-01,9.99999e-01,2.53197e-02,9.99999e-01
4.441680220e-01,2.72267e-02,9.99999e-01,9.99999e-01,2.72267e-02,9.99999e-01
4.463888621e-01,2.92353e-02,9.99999e-01,9.99999e-01,2.92353e-02,9.99999e-01
4.486208064e-01,3.13480e-02,9.99999e-01,9.99999e-01,3.13480e-02,9.99999e-01
4.508639105e-01,3.35671e-02,9.99999e-01,9.99999e-01,3.35671e-02,9.99999e-01
4.531182300e-01,3.58947e-02,9.99999e-01,9.99999e-01,3.58947e-02,9.99999e-01
4.553838212e-01,3.83329e-02,9.99999e-01,9.99999e-01,3.83329e-02,9.99999e-01
4.576607403e-01,4.08837e-02,9.99999e-01,9.99999e-01,4.08837e-02,9.99999e-01
4.599490440e-01,4.35487e-02,9.99999e-01,9.99999e-01,4.35487e-02,9.99999e-01
4.622487892e-01,4.63296e-02,9.99999e-01,9.99999e-01,4.63296e-02,9.99999e-01
4.645600332e-01,4.92279e-02,9.99999e-01,9.99999e-01,4.92279e-02,9.99999e-01
4.668828333e-01,5.22448e-02,9.99999e-01,9.99999e-01,5.22448e-02,9.99999e-01
4.692172475e-01,5.53816e-02,9.99999e-01,9.99999e-01,5.53816e-02,9.99999e-01
4.715633337e-01,5.86390e-02,9.99999e-01,9.99999e-01,5.86390e-02,9.99999e-01
4.739211504e-01,6.20181e-02,9.99999e-01,9.99999e-01,6.20181e-02,9.99999e-01
4.762907561e-01,6.55193e-02,9.99999e-01,9.99999e-01,6.55193e-02,9.99999e-01
4.786722099e-01,6.91431e-02,9.99999e-01,9.99999e-01,6.91431e-02,9.99999e-01
4.810655710e-01,7.28898e-02,9.99999e-01,9.99999e-01,7.28898e-02,9.99999e-01
4.834708988e-01,7.67594e-02,9.99999e-01,9.99999e-01,7.67594e-02,9.99999e-01
4.858882533e-01,8.07520e-02,9.99999e-01,9.99999e-01,8.07520e-02,9.99999e-01
4.883176946e-01,8.48671e-02,9.99999e-01,9.99999e-01,8.48671e-02,9.99999e-01
4.907592831e-01,8.91045e-02,9.99999e-01,9.99999e-01,8.91045e-02,9.99999e-01
4.932130795e-01,9.34634e-02,9.99999e-01,9.99999e-01,9.34634e-02,9.99999e-01
4.956791449e-01,9.79431e-02,9.99999e-01,9.99999e-01,9.79431e-02,9.99999e-01
4.981575406e-01,1.02543e-01,9.99999e-01,9.99999e-01,1.02543e-01,9.99999e-01
5.006483283e-01,1.07261e-01,9.99999e-01,9.99999e-01,1.07261e-01,9.99999e-01
5.031515699e-01,1.12097e-01,9.99999e-01,9.99999e-01,1.12097e-01,9.99999e-01
5.056673278e-01,1.17048e-01,9.99999e-01,9.99999e-01,1.17048e-01,9.99999e-01
5.081956644e-01,1.22115e-01,9.99999e-01,9.99999e-01,1.22115e-01,9.99999e-01
5.107366428e-01,1.27294e-01,9.99999e-01,9.99999e-01,1.27294e-01,9.99999e-01
5.132903260e-01,1.32583e-01,9.99999e-01,9.99999e-01,1.32583e-01,9.99999e-01
5.158567776e-01,1.37982e-01,9.99999e-01,9.99999e-01,1.37982e-01,9.99999e-01
5.184360615e-01,1.43487e-01,9.99999e-01,9.99999e-01,1.43487e-01,9.99999e-01
5.210282418e-01,1.49097e-01,9.99999e-01,9.99999e-01,1.49097e-01,9.99999e-01
5.236333830e-01,1.54808e-01,9.99999e-01,9.99999e-01,1.54808e-01,9.99999e-01
5.262515499e-01,1.60619e-01,9.99999e-01,9.99999e-01,1.60619e-01,9.99999e-01
5.288828077e-01,1.66527e-01,9.99999e-01,9.99999e-01,1.66527e-01,9.99999e-01
5.315272217e-01,1.72529e-01,9.99999e-01,9.99999e-01,1.72529e-01,9.99999e-01
5.341848578e-01,1.78622e-01,9.99999e-01,9.99999e-01,1.78622e-01,9.99999e-01
5.368557821e-01,1.84804e-01,9.99999e-01,9.99999e-01,1.84804e-01,9.99999e-01
5.395400610e-01,1.91072e-01,9.99999e-01,9.99999e-01,1.91072e-01,9.99999e-01
5.422377613e-01,1.97422e-01,9.99999e-01,9.99999e-01,1.97422e-01,9.99999e-01
5.449489501e-01,2.03851e-01,9.99999e-01,9.99999e-01,2.03851e-01,9.99999e-01
5.476736949e-01,2.10356e-01,9.99999e-01,9.99999e-01,2.10356e-01,9.99999e-01
5.504120634e-01,2.16934e-01,9.99999e-01,9.99999e-01,2.16934e-01,9.99999e-01
5.531641237e-01,2.23582e-01,9.99999e-01,9.99999e-01,2.23582e-01,9.99999e-01
5.559299443e-01,2.30297e-01,9.99999e-01,9.99999e-01,2.30297e-01,9.99999e-01
5.587095940e-01,2.37074e-01,9.99999e-01,9.99999e-01,2.37074e-01,9.99999e-01
5.615031420e-01,2.43911e-01,9.99999e-01,9.99999e-01,2.43911e-01,9.99999e-01
5.643106577e-01,2.50805e-01,9.99999e-01,9.99999e-01,2.50805e-01,9.99999e-01
5.671322110e-01,2.57751e-01,9.99999e-01,9.99999e-01,2.57751e-01,9.99999e-01
5.699678720e-01,2.64746e-01,9.99999e-01,9.99999e-01,2.64746e-01,9.99999e-01
5.728177114e-01,2.71788e-01,9.99999e-01,9.99999e-01,2.71788e-01,9.99999e-01
5.756818000e-01,2.78873e-01,9.99999e-01,9.99999e-01,2.78873e-01,9.99999e-01
5.785602090e-01,2.85996e-01,9.99999e-01,9.99999e-01,2.85996e-01,9.99999e-01
5.814530100e-01,2.93156e-01,9.99999e-01,9.99999e-01,2.93156e-01,9.99999e-01
5.843602750e-01,3.00348e-01,9.99999e-01,9.99999e-01,3.00348e-01,9.99999e-01
5.872820764e-01,3.07569e-01,9.99999e-01,9.99999e-01,3.07569e-01,9.99999e-01
5.902184868e-01,3.14817e-01,9.99999e-01,9.99999e-01,3.14817e-01,9.99999e-01
5.931695792e-01,3.22086e-01,9.99999e-01,9.99999e-01,3.22086e-01,9.99999e-01
5.961354271e-01,3.29375e-01,9.99999e-01,9.99999e-01,3.29375e-01,9.99999e-01
5.991161043e-01,3.36680e-01,9.99999e-01,9.99999e-01,3.36680e-01,9.99999e-01
6.021116848e-01,3.43998e-01,9.99999e-01,9.99999e-01,3.43998e-01,9.99999e-01
6.051222432e-01,3.51326e-01,9.99999e-01,9.99999e-01,3.51326e-01,9.99999e-01
6.081478544e-01,3.58661e-01,9.99999e-01,9.99999e-01,3.58661e-01,9.99999e-01
6.111885937e-01,3.65999e-01,9.99999e-01,9.99999e-01,3.65999e-01,9.99999e-01
6.142445367e-01,3.73338e-01,9.99999e-01,9.99999e-01,3.73338e-01,9.99999e-01
6.173157594e-01,3.80675e-01,9.99999e-01,9.99999e-01,3.80675e-01,9.99999e-01
6.204023382e-01,3.88007e-01,9.99999e-01,9.99999e-01,3.88007e-01,9.99999e-01
6.235043498e-01,3.95331e-01,9.99999e-01,9.99999e-01,3.95331e-01,9.99999e-01
6.266218716e-01,4.02645e-01,9.99999e-01,9.99999e-01,4.02645e-01,9.99999e-01
6.297549810e-01,4.09945e-01,9.99999e-01,9.99999e-01,4.09945e-01,9.99999e-01
6.329037559e-01,4.17230e-01,9.99999e-01,9.99999e-01,4.17230e-01,9.99999e-01
6.360682746e-01,4.24496e-01,9.99999e-01,9.99999e-01,4.24496e-01,9.99999e-01
6.392486160e-01,4.31742e-01,9.99999e-01,9.99999e-01,4.31742e-01,9.99999e-01
6.424448591e-01,4.38964e-01,9.99999e-01,9.99999e-01,4.38964e-01,9.99999e-01
6.456570834e-01,4.46162e-01,9.99999e-01,9.99999e-01,4.46162e-01,9.99999e-01
6.488853688e-01,4.53331e-01,9.99999e-01,9.99999e-01,4.53331e-01,9.99999e-01
6.521297956e-01,4.60471e-01,9.99999e-01,9.99999e-01,4.60471e-01,9.99999e-01
6.553904446e-01,4.67579e-01,9.99999e-01,9.99999e-01,4.67579e-01,9.99999e-01
6.586673968e-01,4.74653e-01,9.99999e-01,9.99999e-01,4.74653e-01,9.99999e-01
6.619607338e-01,4.81691e-01,9.99999e-01,9.99999e-01,4.81691e-01,9.99999e-01
6.652705375e-01,4.88691e-01,9.99999e-01,9.99999e-01,4.88691e-01,9.99999e-01
6.685968902e-01,4.95652e-01,9.99999e-01,9.99999e-01,4.95652e-01,9.99999e-01
6.719398746e-01,5.02571e-01,9.99999e-01,9.99999e-01,5.02571e-01,9.99999e-01
6.752995740e-01,5.09448e-01,9.99999e-01,9.99999e-01,5.09448e-01,9.99999e-01
6.786760719e-01,5.16280e-01,9.99999e-01,9.99999e-01,5.16280e-01,9.99999e-01
6.820694522e-01,5.23066e-01,9.99999e-01,9.99999e-01,5.23066e-01,9.99999e-01
6.854797995e-01,5.29805e-01,9.99999e-01,9.99999e-01,5.29805e-01,9.99999e-01
6.889071985e-01,5.36494e-01,9.99999e-01,9.99999e-01,5.36494e-01,9.99999e-01
6.923517345e-01,5.43134e-01,9.99999e-01,9.99999e-01,5.43134e-01,9.99999e-01
6.958134932e-01,5.49722e-01,9.99999e-01,9.99999e-01,5.49722e-01,9.99999e-01
6.992925606e-01,5.56258e-01,9.99999e-01,9.99999e-01,5.56258e-01,9.99999e-01
7.027890234e-01,5.62740e-01,9.99999e-01,9.99999e-01,5.62740e-01,9.99999e-01
7.063029686e-01,5.69167e-01,9.99999e-01,9.99999e-01,5.69167e-01,9.99999e-01
7.098344834e-01,5.75538e-01,9.99999e-01,9.99999e-01,5.75538e-01,9.99999e-01
7.133836558e-01,5.81853e-01,9.99999e-01,9.99999e-01,5.81853e-01,9.99999e-01
7.169505741e-01,5.88110e-01,9.99999e-01,9.99999e-01,5.88110e-01,9.99999e-01
7.205353270e-01,5.94309e-01,9.99999e-01,9.99999e-01,5.94309e-01,9.99999e-01
7.241380036e-01,6.00449e-01,9.99999e-01,9.99999e-01,6.00449e-01,9.99999e-01
7.277586936e-01,6.06529e-01,9.99999e-01,9.99999e-01,6.06529e-01,9.99999e-01
7.313974871e-01,6.12549e-01,9.99999e-01,9.99999e-01,6.12549e-01,9.99999e-01
7.350544745e-01,6.18508e-01,9.99999e-01,9.99999e-01,6.18508e-01,9.99999e-01
7.387297469e-01,6.24406e-01,9.99999e-01,9.99999e-01,6.24406e-01,9.99999e-01
7.424233956e-01,6.30242e-01,9.99999e-01,9.99999e-01,6.30242e-01,9.99999e-01
7.461355126e-01,6.36015e-01,9.99999e-01,9.99999e-01,6.36015e-01,9.99999e-01
7.498661902e-01,6.41725e-01,9.99999e-01,9.99999e-01,6.41725e-01,9.99999e-01
7.536155211e-01,6.47373e-01,9.99999e-01,9.99999e-01,6.47373e-01,9.99999e-01
7.573835987e-01,6.52957e-01,9.99999e-01,9.99999e-01,6.52957e-01,9.99999e-01
7.611705167e-01,6.58478e-01,9.99999e-01,9.99999e-01,6.58478e-01,9.99999e-01
7.649763693e-01,6.63935e-01,9.99999e-01,9.99999e-01,6.63935e-01,9.99999e-01
7.688012511e-01,6.69328e-01,9.99999e-01,9.99999e-01,6.69328e-01,9.99999e-01
7.726452574e-01,6.74657e-01,9.99999e-01,9.99999e-01,6.74657e-01,9.99999e-01
7.765084837e-01,6.79922e-01,9.99999e-01,9.99999e-01,6.79922e-01,9.99999e-01
7.803910261e-01,6.72409e-01,9.99999e-01,9.81442e-01,6.85123e-01,9.99999e-01
7.842929812e-01,6.36388e-01,9.99999e-01,9.21953e-01,6.90259e-01,9.99999e-01
7.882144461e-01,6.37301e-01,9.99999e-01,9.16541e-01,6.95332e-01,9.99999e-01
7.921555184e-01,6.66125e-01,9.99999e-01,9.51143e-01,7.00341e-01,9.99999e-01
7.961162960e-01,6.82043e-01,9.99999e-01,9.67045e-01,7.05285e-01,9.99999e-01
8.000968774e-01,6.97398e-01,9.99999e-01,9.82020e-01,7.10166e-01,9.99999e-01
8.040973618e-01,7.08292e-01,9.99999e-01,9.90640e-01,7.14983e-01,9.99999e-01
8.081178486e-01,7.16642e-01,9.99999e-01,9.95699e-01,7.19737e-01,9.99999e-01
8.121584379e-01,7.23463e-01,9.99999e-01,9.98667e-01,7.24428e-01,9.99999e-01
8.162192301e-01,7.28841e-01,9.99999e-01,9.99705e-01,7.29055e-01,9.99999e-01
8.203003262e-01,7.33617e-01,9.99999e-01,9.99994e-01,7.33620e-01,9.99999e-01
8.244018279e-01,7.38123e-01,9.99999e-01,9.99999e-01,7.38123e-01,9.99999e-01
8.285238370e-01,7.42563e-01,9.99999e-01,9.99999e-01,7.42563e-01,9.99999e-01
8.326664562e-01,7.46942e-01,9.99999e-01,9.99999e-01,7.46942e-01,9.99999e-01
8.368297885e-01,7.51259e-01,9.99999e-01,9.99999e-01,7.51259e-01,9.99999e-01
8.410139374e-01,7.55515e-01,9.99999e-01,9.99999e-01,7.55515e-01,9.99999e-01
8.452190071e-01,7.59710e-01,9.99999e-01,9.99999e-01,7.59710e-01,9.99999e-01
8.494451021e-01,7.63846e-01,9.99999e-01,9.99999e-01,7.63846e-01,9.99999e-01
8.536923276e-01,7.67921e-01,9.99999e-01,9.99999e-01,7.67921e-01,9.99999e-01
8.579607893e-01,7.71937e-01,9.99999e-01,9.99999e-01,7.71937e-01,9.99999e-01
8.622505932e-01,7.75894e-01,9.99999e-01,9.99999e-01,7.75894e-01,9.99999e-01
8.665618462e-01,7.42082e-01,9.99999e-01,9.51640e-01,7.79792e-01,9.99999e-01
8.708946554e-01,6.35823e-01,9.99999e-01,8.11377e-01,7.83633e-01,9.99999e-01
8.752491287e-01,6.66589e-01,9.99999e-01,8.46552e-01,7.87416e-01,9.99999e-01
8.796253743e-01,7.22584e-01,9.99999e-01,9.13342e-01,7.91142e-01,9.99999e-01
8.840235012e-01,7.58493e-01,9.99999e-01,9.54305e-01,7.94811e-01,9.99999e-01
8.884436187e-01,7.83854e-01,9.99999e-01,9.81750e-01,7.98425e-01,9.99999e-01
8.928858368e-01,7.96032e-01,9.99999e-01,9.92578e-01,8.01983e-01,9.99999e-01
8.973502660e-01,8.04029e-01,9.99999e-01,9.98190e-01,8.05486e-01,9.99999e-01
9.018370173e-01,8.08774e-01,9.99999e-01,9.99800e-01,8.08935e-01,9.99999e-01
9.063462024e-01,8.08194e-01,9.99999e-01,9.94907e-01,8.12330e-01,9.99999e-01
9.108779334e-01,8.06142e-01,9.99999e-01,9.88315e-01,8.15672e-01,9.99999e-01
9.154323231e-01,8.16701e-01,9.99999e-01,9.97239e-01,8.18961e-01,9.99999e-01
9.200094847e-01,7.88994e-01,9.99999e-01,9.59614e-01,8.22199e-01,9.99999e-01
9.246095321e-01,7.79182e-01,9.99999e-01,9.44023e-01,8.25384e-01,9.99999e-01
9.292325798e-01,7.91887e-01,9.99999e-01,9.55785e-01,8.28519e-01,9.99999e-01
9.338787427e-01,7.96043e-01,9.99999e-01,9.57238e-01,8.31603e-01,9.99999e-01
9.385481364e-01,8.08321e-01,9.99999e-01,9.68468e-01,8.34638e-01,9.99999e-01
9.432408771e-01,8.21365e-01,9.99999e-01,9.80589e-01,8.37623e-01,9.99999e-01
9.479570815e-01,8.32158e-01,9.99999e-01,9.90004e-01,8.40560e-01,9.99999e-01
9.526968669e-01,8.39371e-01,9.99999e-01,9.95165e-01,8.43448e-01,9.99999e-01
9.574603512e-01,8.44538e-01,9.99999e-01,9.97930e-01,8.46290e-01,9.99999e-01
9.622476530e-01,8.48536e-01,9.99999e-01,9.99353e-01,8.49084e-01,9.99999e-01
9.670588912e-01,8.51667e-01,9.99999e-01,9.99805e-01,8.51832e-01,9.99999e-01
9.718941857e-01,8.54523e-01,9.99999e-01,9.99985e-01,8.54535e-01,9.99999e-01
9.767536566e-01,8.57192e-01,9.99999e-01,9.99999e-01,8.57192e-01,9.99999e-01
9.816374249e-01,8.59805e-01,9.99999e-01,9.99999e-01,8.59805e-01,9.99999e-01
9.865456120e-01,8.62374e-01,9.99999e-01,9.99999e-01,8.62374e-01,9.99999e-01
9.914783401e-01,8.64900e-01,9.99999e-01,9.99999e-01,8.64900e-01,9.99999e-01
9.964357318e-01,8.67383e-01,9.99999e-01,9.99999e-01,8.67383e-01,9.99999e-01
1.001417910e+00,8.69824e-01,9.99999e-01,9.99999e-01,8.69824e-01,9.99999e-01
1.006425000e+00,8.72224e-01,9.99999e-01,9.99999e-01,8.72224e-01,9.99999e-01
1.011457125e+00,8.74582e-01,9.99999e-01,9.99999e-01,8.74582e-01,9.99999e-01
1.016514411e+00,8.76900e-01,9.99999e-01,9.99999e-01,8.76900e-01,9.99999e-01
1.021596983e+00,8.79156e-01,9.99999e-01,9.99973e-01,8.79179e-01,9.99999e-01
1.026704968e+00,8.79674e-01,9.99999e-01,9.98021e-01,8.81418e-01,9.99999e-01
1.031838492e+00,8.59008e-01,9.99999e-01,9.72148e-01,8.83618e-01,9.99999e-01
1.036997685e+00,2.37031e-01,9.99999e-01,2.67596e-01,8.85780e-01,9.99999e-01
1.042182673e+00,2.75202e-01,9.99999e-01,3.09946e-01,8.87905e-01,9.99999e-01
1.047393587e+00,2.61910e-01,9.99999e-01,2.94284e-01,8.89992e-01,9.99999e-01
1.052630555e+00,3.34910e-02,9.99999e-01,3.75441e-02,8.92043e-01,9.99999e-01
1.057893707e+00,6.49844e-02,9.99999e-01,7.26847e-02,8.94059e-01,9.99999e-01
1.063183176e+00,1.33671e-01,9.99999e-01,1.49180e-01,8.96038e-01,9.99999e-01
1.068499092e+00,2.50994e-01,9.99999e-01,2.79509e-01,8.97983e-01,9.99999e-01
1.073841587e+00,4.02533e-01,9.99999e-01,4.47311e-01,8.99894e-01,9.99999e-01
1.079210795e+00,5.42822e-01,9.99999e-01,6.01951e-01,9.01771e-01,9.99999e-01
1.084606849e+00,6.84761e-01,9.99999e-01,7.57801e-01,9.03614e-01,9.99999e-01
1.090029883e+00,7.84347e-01,9.99999e-01,8.66274e-01,9.05425e-01,9.99999e-01
1.095480033e+00,8.45285e-01,9.99999e-01,9.31747e-01,9.07204e-01,9.99999e-01
1.100957433e+00,8.78559e-01,9.99999e-01,9.66563e-01,9.08950e-01,9.99999e-01
1.106462220e+00,8.97951e-01,9.99999e-01,9.86036e-01,9.10666e-01,9.99999e-01
1.111994531e+00,9.07610e-01,9.99999e-01,9.94803e-01,9.12351e-01,9.99999e-01
1.117554504e+00,9.12843e-01,9.99999e-01,9.98727e-01,9.14005e-01,9.99999e-01
1.123142276e+00,9.15554e-01,9.99999e-01,9.99915e-01,9.15630e-01,9.99999e-01
1.128757988e+00,9.17226e-01,9.99999e-01,9.99999e-01,9.17226e-01,9.99999e-01
1.134401778e+00,9.18792e-01,9.99999e-01,9.99999e-01,9.18792e-01,9.99999e-01
1.140073787e+00,9.20331e-01,9.99999e-01,9.99999e-01,9.20331e-01,9.99999e-01
1.145774156e+00,9.21841e-01,9.99999e-01,9.99999e-01,9.21841e-01,9.99999e-01
1.151503026e+00,9.23324e-01,9.99999e-01,9.99999e-01,9.23324e-01,9.99999e-01
1.157260541e+00,9.24780e-01,9.99999e-01,9.99999e-01,9.24780e-01,9.99999e-01
1.163046844e+00,9.26210e-01,9.99999e-01,9.99999e-01,9.26210e-01,9.99999e-01
1.168862078e+00,9.27613e-01,9.99999e-01,9.99999e-01,9.27613e-01,9.99999e-01
1.174706389e+00,9.28991e-01,9.99999e-01,9.99999e-01,9.28991e-01,9.99999e-01
1.180579921e+00,9.30344e-01,9.99999e-01,9.99999e-01,9.30344e-01,9.99999e-01
1.186482820e+00,9.31668e-01,9.99999e-01,9.99996e-01,9.31671e-01,9.99999e-01
1.192415234e+00,9.26356e-01,9.99999e-01,9.92905e-01,9.32975e-01,9.99999e-01
1.198377311e+00,5.43788e-01,9.99999e-01,5.82056e-01,9.34254e-01,9.99999e-01
1.204369197e+00,5.33468e-07,9.99999e-01,5.70243e-07,9.35510e-01,9.99999e-01
1.210391043e+00,1.16565e-22,9.99999e-01,1.24437e-22,9.36743e-01,9.99999e-01
1.216442998e+00,7.40193e-20,9.99999e-01,7.89157e-20,9.37952e-01,9.99999e-01
1.222525213e+00,1.41995e-19,9.99999e-01,1.51196e-19,9.39140e-01,9.99999e-01
1.228637839e+00,4.45100e-15,9.99999e-01,4.73356e-15,9.40305e-01,9.99999e-01
1.234781029e+00,2.33962e-10,9.99999e-01,2.48512e-10,9.41449e-01,9.99999e-01
1.240954934e+00,4.83896e-07,9.99999e-01,5.13377e-07,9.42572e-01,9.99999e-01
1.247159708e+00,2.88438e-04,9.99999e-01,3.05654e-04,9.43674e-01,9.99999e-01
1.253395507e+00,1.05589e-02,9.99999e-01,1.11764e-02,9.44755e-01,9.99999e-01
1.259662485e+00,7.35364e-02,9.99999e-01,7.77491e-02,9.45816e-01,9.99999e-01
1.265960797e+00,2.14974e-01,9.99999e-01,2.27039e-01,9.46857e-01,9.99999e-01
1.272290601e+00,5.15456e-01,9.99999e-01,5.43799e-01,9.47879e-01,9.99999e-01
1.278652054e+00,4.55320e-01,9.99999e-01,4.79848e-01,9.48882e-01,9.99999e-01
1.285045314e+00,3.31774e-02,9.99999e-01,3.49285e-02,9.49866e-01,9.99999e-01
1.291470541e+00,2.36959e-03,9.99999e-01,2.49212e-03,9.50831e-01,9.99999e-01
1.297927893e+00,3.44602e-02,9.99999e-01,3.62061e-02,9.51779e-01,9.99999e-01
1.304417533e+00,3.15785e-01,9.99999e-01,3.31461e-01,9.52708e-01,9.99999e-01
1.310939621e+00,8.83594e-02,9.99999e-01,9.26567e-02,9.53620e-01,9.99999e-01
1.317494319e+00,3.09494e-08,9.99999e-01,3.24242e-08,9.54515e-01,9.99999e-01
1.324081790e+00,4.81992e-06,9.99999e-01,5.04495e-06,9.55393e-01,9.99999e-01
1.330702199e+00,1.42227e-03,9.99999e-01,1.48734e-03,9.56255e-01,9.99999e-01
1.337355710e+00,1.05431e-03,9.99999e-01,1.10156e-03,9.57100e-01,9.99999e-01
1.344042489e+00,3.50822e-04,9.99999e-01,3.66229e-04,9.57929e-01,9.99999e-01
1.350762701e+00,1.06584e-03,9.99999e-01,1.11170e-03,9.58743e-01,9.99999e-01
1.357516515e+00,1.09535e-02,9.99999e-01,1.14154e-02,9.59541e-01,9.99999e-01
1.364304097e+00,5.88218e-02,9.99999e-01,6.12520e-02,9.60324e-01,9.99999e-01
1.371125618e+00,2.19663e-01,9.99999e-01,2.28555e-01,9.61092e-01,9.99999e-01
1.377981246e+00,2.95533e-01,9.99999e-01,3.07256e-01,9.61846e-01,9.99999e-01
1.384871152e+00,4.84182e-01,9.99999e-01,5.03001e-01,9.62585e-01,9.99999e-01
1.391795508e+00,5.10717e-01,9.99999e-01,5.30168e-01,9.63311e-01,9.99999e-01
1.398754485e+00,6.52656e-01,9.99999e-01,6.77012e-01,9.64022e-01,9.99999e-01
1.405748258e+00,7.23304e-01,9.99999e-01,7.49754e-01,9.64720e-01,9.99999e-01
1.412776999e+00,8.05089e-01,9.99999e-01,8.33938e-01,9.65405e-01,9.99999e-01
1.419840884e+00,7.44516e-01,9.99999e-01,7.70659e-01,9.66076e-01,9.99999e-01
1.426940089e+00,9.68209e-02,9.99999e-01,1.00152e-01,9.66735e-01,9.99999e-01
1.434074789e+00,1.28457e-321,9.99999e-01,1.32904e-321,9.67381e-01,9.99999e-01
1.441245163e+00,0.00000e+00,9.99999e-01,0.00000e+00,9.68015e-01,9.99999e-01
1.448451389e+00,0.00000e+00,9.99999e-01,0.00000e+00,9.68637e-01,9.99999e-01
1.455693646e+00,1.68111e-174,9.99999e-01,1.73445e-174,9.69247e-01,9.99999e-01
1.462972114e+00,4.26493e-85,9.99999e-01,4.39753e-85,9.69845e-01,9.99999e-01
1.470286975e+00,2.44452e-36,9.99999e-01,2.51900e-36,9.70432e-01,9.99999e-01
