#,Wave/freq,Total,O2,CO2,Rayleigh,CIA
4.000000000e-01,1.71435e-02,9.99999e-01,9.99999e-01,1.71435e-02,9.99999e-01
4.020000000e-01,1.85787e-02,9.99999e-01,9.99999e-01,1.85787e-02,9.99999e-01
4.040100000e-01,2.01005e-02,9.99999e-01,9.99999e-01,2.01005e-02,9.99999e-01
4.060300500e-01,2.17131e-02,9.99999e-01,9.99999e-01,2.17131e-02,9.99999e-01
4.080602003e-01,2.34194e-02,9.99999e-01,9.99999e-01,2.34194e-02,9.99999e-01
4.101005013e-01,2.52221e-02,9.99999e-01,9.99999e-01,2.52221e-02,9.99999e-01
4.121510038e-01,2.71238e-02,9.99999e-01,9.99999e-01,2.71238e-02,9.99999e-01
4.142117588e-01,2.91270e-02,9.99999e-01,9.99999e-01,2.91270e-02,9.99999e-01
4.162828176e-01,3.12341e-02,9.99999e-01,9.99999e-01,3.12341e-02,9.99999e-01
4.183642317e-01,3.34475e-02,9.99999e-01,9.99999e-01,3.34475e-02,9.99999e-01
4.204560528e-01,3.57694e-02,9.99999e-01,9.99999e-01,3.57694e-02,9.99999e-01
4.225583331e-01,3.82017e-02,9.99999e-01,9.99999e-01,3.82017e-02,9.99999e-01
4.246711247e-01,4.07465e-02,9.99999e-01,9.99999e-01,4.07465e-02,9.99999e-01
4.267944804e-01,4.34055e-02,9.99999e-01,9.99999e-01,4.34055e-02,9.99999e-01
4.289284528e-01,4.61803e-02,9.99999e-01,9.99999e-01,4.61803e-02,9.99999e-01
4.310730950e-01,4.90723e-02,9.99999e-01,9.99999e-01,4.90723e-02,9.99999e-01
4.332284605e-01,5.20830e-02,9.99999e-01,9.99999e-01,5.20830e-02,9.99999e-01
4.353946028e-01,5.52134e-02,9.99999e-01,9.99999e-01,5.52134e-02,9.99999e-01
4.375715758e-01,5.84645e-02,9.99999e-01,9.99999e-01,5.84645e-02,9.99999e-01
4.397594337e-01,6.18371e-02,9.99999e-01,9.99999e-01,6.18371e-02,9.99999e-01
4.419582309e-01,6.53318e-02,9.99999e-01,9.99999e-01,6.53318e-02,9.99999e-01
4.441680220e-01,6.89492e-02,9.99999e-01,9.99999e-01,6.89492e-02,9.99999e-01
4.463888621e-01,7.26894e-02,9.99999e-01,9.99999e-01,7.26894e-02,9.99999e-01
4.486208064e-01,7.65526e-02,9.99999e-01,9.99999e-01,7.65526e-02,9.99999e-01
4.508639105e-01,8.05386e-02,9.99999e-01,9.99999e-01,8.05386e-02,9.99999e-01
4.531182300e-01,8.46474e-02,9.99999e-01,9.99999e-01,8.46474e-02,9.99999e-01
4.553838212e-01,8.88783e-02,9.99999e-01,9.99999e-01,8.88783e-02,9.99999e-01
4.576607403e-01,9.32308e-02,9.99999e-01,9.99999e-01,9.32308e-02,9.99999e-01
4.599490440e-01,9.77042e-02,9.99999e-01,9.99999e-01,9.77042e-02,9.99999e-01
4.622487892e-01,1.02298e-01,9.99999e-01,9.99999e-01,1.02298e-01,9.99999e-01
4.645600332e-01,1.07010e-01,9.99999e-01,9.99999e-01,1.07010e-01,9.99999e-01
4.668828333e-01,1.11839e-01,9.99999e-01,9.99999e-01,1.11839e-01,9.99999e-01
4.692172475e-01,1.16785e-01,9.99999e-01,9.99999e-01,1.16785e-01,9.99999e-01
4.715633337e-01,1.21845e-01,9.99999e-01,9.99999e-01,1.21845e-01,9.99999e-01
4.739211504e-01,1.27018e-01,9.99999e-01,9.99999e-01,1.27018e-01,9.99999e-01
4.762907561e-01,1.32302e-01,9.99999e-01,9.99999e-01,1.32302e-01,9.99999e-01
4.786722099e-01,1.37695e-01,9.99999e-01,9.99999e-01,1.37695e-01,9.99999e-01
4.810655710e-01,1.43194e-01,9.99999e-01,9.99999e-01,1.43194e-01,9.99999e-01
4.834708988e-01,1.48799e-01,9.99999e-01,9.99999e-01,1.48799e-01,9.99999e-01
4.858882533e-01,1.54505e-01,9.99999e-01,9.99999e-01,1.54505e-01,9.99999e-01
4.883176946e-01,1.60311e-01,9.99999e-01,9.99999e-01,1.60311e-01,9.99999e-01
4.907592831e-01,1.66213e-01,9.99999e-01,9.99999e-01,1.66213e-01,9.99999e-01
4.932130795e-01,1.72211e-01,9.99999e-01,9.99999e-01,1.72211e-01,9.99999e-01
4.956791449e-01,1.78299e-01,9.99999e-01,9.99999e-01,1.78299e-01,9.99999e-01
4.981575406e-01,1.84477e-01,9.99999e-01,9.99999e-01,1.84477e-01,9.99999e-01
5.006483283e-01,1.90740e-01,9.99999e-01,9.99999e-01,1.90740e-01,9.99999e-01
5.031515699e-01,1.97085e-01,9.99999e-01,9.99999e-01,1.97085e-01,9.99999e-01
5.056673278e-01,2.03510e-01,9.99999e-01,9.99999e-01,2.03510e-01,9.99999e-01
5.081956644e-01,2.10012e-01,9.99999e-01,9.99999e-01,2.10012e-01,9.99999e-01
5.107366428e-01,2.16586e-01,9.99999e-01,9.99999e-01,2.16586e-01,9.99999e-01
5.132903260e-01,2.23231e-01,9.99999e-01,9.99999e-01,2.23231e-01,9.99999e-01
5.158567776e-01,2.29942e-01,9.99999e-01,9.99999e-01,2.29942e-01,9.99999e-01
5.184360615e-01,2.36716e-01,9.99999e-01,9.99999e-01,2.36716e-01,9.99999e-01
5.210282418e-01,2.43550e-01,9.99999e-01,9.99999e-01,2.43550e-01,9.99999e-01
5.236333830e-01,2.50440e-01,9.99999e-01,9.99999e-01,2.50440e-01,9.99999e-01
5.262515499e-01,2.57384e-01,9.99999e-01,9.99999e-01,2.57384e-01,9.99999e-01
5.288828077e-01,2.64377e-01,9.99999e-01,9.99999e-01,2.64377e-01,9.99999e-01
5.315272217e-01,2.71416e-01,9.99999e-01,9.99999e-01,2.71416e-01,9.99999e-01
5.341848578e-01,2.78499e-01,9.99999e-01,9.99999e-01,2.78499e-01,9.99999e-01
5.368557821e-01,2.85620e-01,9.99999e-01,9.99999e-01,2.85620e-01,9.99999e-01
5.395400610e-01,2.92778e-01,9.99999e-01,9.99999e-01,2.92778e-01,9.99999e-01
5.422377613e-01,2.99969e-01,9.99999e-01,9.99999e-01,2.99969e-01,9.99999e-01
5.449489501e-01,3.07188e-01,9.99999e-01,9.99999e-01,3.07188e-01,9.99999e-01
5.476736949e-01,3.14434e-01,9.99999e-01,9.99999e-01,3.14434e-01,9.99999e-01
5.504120634e-01,3.21703e-01,9.99999e-01,9.99999e-01,3.21703e-01,9.99999e-01
5.531641237e-01,3.28991e-01,9.99999e-01,9.99999e-01,3.28991e-01,9.99999e-01
5.559299443e-01,3.36295e-01,9.99999e-01,9.99999e-01,3.36295e-01,9.99999e-01
5.587095940e-01,3.43613e-01,9.99999e-01,9.99999e-01,3.43613e-01,9.99999e-01
5.615031420e-01,3.50940e-01,9.99999e-01,9.99999e-01,3.50940e-01,9.99999e-01
5.643106577e-01,3.58274e-01,9.99999e-01,9.99999e-01,3.58274e-01,9.99999e-01
5.671322110e-01,3.65613e-01,9.99999e-01,9.99999e-01,3.65613e-01,9.99999e-01
5.699678720e-01,3.72952e-01,9.99999e-01,9.99999e-01,3.72952e-01,9.99999e-01
5.728177114e-01,3.80289e-01,9.99999e-01,9.99999e-01,3.80289e-01,9.99999e-01
5.756818000e-01,3.87621e-01,9.99999e-01,9.99999e-01,3.87621e-01,9.99999e-01
5.785602090e-01,3.94945e-01,9.99999e-01,9.99999e-01,3.94945e-01,9.99999e-01
5.814530100e-01,4.02260e-01,9.99999e-01,9.99999e-01,4.02260e-01,9.99999e-01
5.843602750e-01,4.09561e-01,9.99999e-01,9.99999e-01,4.09561e-01,9.99999e-01
5.872820764e-01,4.16847e-01,9.99999e-01,9.99999e-01,4.16847e-01,9.99999e-01
5.902184868e-01,4.24114e-01,9.99999e-01,9.99999e-01,4.24114e-01,9.99999e-01
5.931695792e-01,4.31361e-01,9.99999e-01,9.99999e-01,4.31361e-01,9.99999e-01
5.961354271e-01,4.38585e-01,9.99999e-01,9.99999e-01,4.38585e-01,9.99999e-01
5.991161043e-01,4.45783e-01,9.99999e-01,9.99999e-01,4.45783e-01,9.99999e-01
6.021116848e-01,4.52954e-01,9.99999e-01,9.99999e-01,4.52954e-01,9.99999e-01
6.051222432e-01,4.60096e-01,9.99999e-01,9.99999e-01,4.60096e-01,9.99999e-01
6.081478544e-01,4.67205e-01,9.99999e-01,9.99999e-01,4.67205e-01,9.99999e-01
6.111885937e-01,4.74281e-01,9.99999e-01,9.99999e-01,4.74281e-01,9.99999e-01
6.142445367e-01,4.81321e-01,9.99999e-01,9.99999e-01,4.81321e-01,9.99999e-01
6.173157594e-01,4.88324e-01,9.99999e-01,9.99999e-01,4.88324e-01,9.99999e-01
6.204023382e-01,4.95286e-01,9.99999e-01,9.99999e-01,4.95286e-01,9.99999e-01
6.235043498e-01,5.02208e-01,9.99999e-01,9.99999e-01,5.02208e-01,9.99999e-01
6.266218716e-01,5.09087e-01,9.99999e-01,9.99999e-01,5.09087e-01,9.99999e-01
6.297549810e-01,5.15921e-01,9.99999e-01,9.99999e-01,5.15921e-01,9.99999e-01
6.329037559e-01,5.22710e-01,9.99999e-01,9.99999e-01,5.22710e-01,9.99999e-01
6.360682746e-01,5.29451e-01,9.99999e-01,9.99999e-01,5.29451e-01,9.99999e-01
6.392486160e-01,5.36143e-01,9.99999e-01,9.99999e-01,5.36143e-01,9.99999e-01
6.424448591e-01,5.42786e-01,9.99999e-01,9.99999e-01,5.42786e-01,9.99999e-01
6.456570834e-01,5.49376e-01,9.99999e-01,9.99999e-01,5.49376e-01,9.99999e-01
6.488853688e-01,5.55915e-01,9.99999e-01,9.99999e-01,5.55915e-01,9.99999e-01
6.521297956e-01,5.62400e-01,9.99999e-01,9.99999e-01,5.62400e-01,9.99999e-01
6.553904446e-01,5.68830e-01,9.99999e-01,9.99999e-01,5.68830e-01,9.99999e-01
6.586673968e-01,5.75204e-01,9.99999e-01,9.99999e-01,5.75204e-01,9.99999e-01
6.619607338e-01,5.81522e-01,9.99999e-01,9.99999e-01,5.81522e-01,9.99999e-01
6.652705375e-01,5.87782e-01,9.99999e-01,9.99999e-01,5.87782e-01,9.99999e-01
6.685968902e-01,5.93984e-01,9.99999e-01,9.99999e-01,5.93984e-01,9.99999e-01
6.719398746e-01,6.00127e-01,9.99999e-01,9.99999e-01,6.00127e-01,9.99999e-01
6.752995740e-01,6.06211e-01,9.99999e-01,9.99999e-01,6.06211e-01,9.99999e-01
6.786760719e-01,6.12234e-01,9.99999e-01,9.99999e-01,6.12234e-01,9.99999e-01
6.820694522e-01,6.18196e-01,9.99999e-01,9.99999e-01,6.18196e-01,9.99999e-01
6.854797995e-01,6.24097e-01,9.99999e-01,9.99999e-01,6.24097e-01,9.99999e-01
6.889071985e-01,6.29936e-01,9.99999e-01,9.99999e-01,6.29936e-01,9.99999e-01
6.923517345e-01,6.35712e-01,9.99999e-01,9.99999e-01,6.35712e-01,9.99999e-01
6.958134932e-01,6.41426e-01,9.99999e-01,9.99999e-01,6.41426e-01,9.99999e-01
6.992925606e-01,6.47077e-01,9.99999e-01,9.99999e-01,6.47077e-01,9.99999e-01
7.027890234e-01,6.52665e-01,9.99999e-01,9.99999e-01,6.52665e-01,9.99999e-01
7.063029686e-01,6.58189e-01,9.99999e-01,9.99999e-01,6.58189e-01,9.99999e-01
7.098344834e-01,6.63649e-01,9.99999e-01,9.99999e-01,6.63649e-01,9.99999e-01
7.133836558e-01,6.69045e-01,9.99999e-01,9.99999e-01,6.69045e-01,9.99999e-01
7.169505741e-01,6.74378e-01,9.99999e-01,9.99999e-01,6.74378e-01,9.99999e-01
7.205353270e-01,6.79646e-01,9.99999e-01,9.99999e-01,6.79646e-01,9.99999e-01
7.241380036e-01,6.84850e-01,9.99999e-01,9.99999e-01,6.84850e-01,9.99999e-01
7.277586936e-01,6.89990e-01,9.99999e-01,9.99999e-01,6.89990e-01,9.99999e-01
7.313974871e-01,6.95066e-01,9.99999e-01,9.99999e-01,6.95066e-01,9.99999e-01
7.350544745e-01,7.00078e-01,9.99999e-01,9.99999e-01,7.00078e-01,9.99999e-01
7.387297469e-01,7.05026e-01,9.99999e-01,9.99999e-01,7.05026e-01,9.99999e-01
7.424233956e-01,7.09911e-01,9.99999e-01,9.99999e-01,7.09911e-01,9.99999e-01
7.461355126e-01,7.14731e-01,9.99999e-01,9.99999e-01,7.14731e-01,9.99999e-01
7.498661902e-01,7.19489e-01,9.99999e-01,9.99999e-01,7.19489e-01,9.99999e-01
7.536155211e-01,7.24182e-01,9.99999e-01,9.99999e-01,7.24182e-01,9.99999e-01
7.573835987e-01,7.28813e-01,9.99999e-01,9.99999e-01,7.28813e-01,9.99999e-01
7.611705167e-01,7.33382e-01,9.99999e-01,9.99999e-01,7.33382e-01,9.99999e-01
7.649763693e-01,7.37887e-01,9.99999e-01,9.99999e-01,7.37887e-01,9.99999e-01
7.688012511e-01,7.42331e-01,9.99999e-01,9.99999e-01,7.42331e-01,9.99999e-01
7.726452574e-01,7.46713e-01,9.99999e-01,9.99999e-01,7.46713e-01,9.99999e-01
7.765084837e-01,7.51033e-01,9.99999e-01,9.99999e-01,7.51033e-01,9.99999e-01
7.803910261e-01,7.44668e-01,9.99999e-01,9.85933e-01,7.55292e-01,9.99999e-01
7.842929812e-01,7.14873e-01,9.99999e-01,9.41252e-01,7.59491e-01,9.99999e-01
7.882144461e-01,7.15539e-01,9.99999e-01,9.37023e-01,7.63629e-01,9.99999e-01
7.921555184e-01,7.39652e-01,9.99999e-01,9.63454e-01,7.67708e-01,9.99999e-01
7.961162960e-01,7.52778e-01,9.99999e-01,9.75445e-01,7.71727e-01,9.99999e-01
8.000968774e-01,7.65315e-01,9.99999e-01,9.86628e-01,7.75687e-01,9.99999e-01
8.040973618e-01,7.74172e-01,9.99999e-01,9.93051e-01,7.79589e-01,9.99999e-01
8.081178486e-01,7.80932e-01,9.99999e-01,9.96807e-01,7.83432e-01,9.99999e-01
8.121584379e-01,7.86441e-01,9.99999e-01,9.99011e-01,7.87218e-01,9.99999e-01
8.162192301e-01,7.90775e-01,9.99999e-01,9.99781e-01,7.90947e-01,9.99999e-01
8.203003262e-01,7.94617e-01,9.99999e-01,9.99996e-01,7.94620e-01,9.99999e-01
8.244018279e-01,7.98236e-01,9.99999e-01,9.99999e-01,7.98236e-01,9.99999e-01
8.285238370e-01,8.01797e-01,9.99999e-01,9.99999e-01,8.01797e-01,9.99999e-01
8.326664562e-01,8.05303e-01,9.99999e-01,9.99999e-01,8.05303e-01,9.99999e-01
8.368297885e-01,8.08755e-01,9.99999e-01,9.99999e-01,8.08755e-01,9.99999e-01
8.410139374e-01,8.12153e-01,9.99999e-01,9.99999e-01,8.12153e-01,9.99999e-01
8.452190071e-01,8.15498e-01,9.99999e-01,9.99999e-01,8.15498e-01,9.99999e-01
8.494451021e-01,8.18790e-01,9.99999e-01,9.99999e-01,8.18790e-01,9.99999e-01
8.536923276e-01,8.22029e-01,9.99999e-01,9.99999e-01,8.22029e-01,9.99999e-01
8.579607893e-01,8.25218e-01,9.99999e-01,9.99999e-01,8.25218e-01,9.99999e-01
8.622505932e-01,8.28355e-01,9.99999e-01,9.99999e-01,8.28355e-01,9.99999e-01
8.665618462e-01,7.99204e-01,9.99999e-01,9.61226e-01,8.31442e-01,9.99999e-01
8.708946554e-01,7.13520e-01,9.99999e-01,8.55047e-01,8.34479e-01,9.99999e-01
8.752491287e-01,7.39632e-01,9.99999e-01,8.83177e-01,8.37467e-01,9.99999e-01
8.796253743e-01,7.85652e-01,9.99999e-01,9.34847e-01,8.40406e-01,9.99999e-01
8.840235012e-01,8.14523e-01,9.99999e-01,9.65878e-01,8.43297e-01,9.99999e-01
8.884436187e-01,8.34663e-01,9.99999e-01,9.86434e-01,8.46141e-01,9.99999e-01
8.928858368e-01,8.44261e-01,9.99999e-01,9.94490e-01,8.48938e-01,9.99999e-01
8.973502660e-01,8.50547e-01,9.99999e-01,9.98658e-01,8.51689e-01,9.99999e-01
9.018370173e-01,8.54267e-01,9.99999e-01,9.99851e-01,8.54394e-01,9.99999e-01
9.063462024e-01,8.53800e-01,9.99999e-01,9.96203e-01,8.57053e-01,9.99999e-01
9.108779334e-01,8.52205e-01,9.99999e-01,9.91317e-01,8.59669e-01,9.99999e-01
9.154323231e-01,8.60476e-01,9.99999e-01,9.97953e-01,8.62240e-01,9.99999e-01
9.200094847e-01,8.38423e-01,9.99999e-01,9.69534e-01,8.64768e-01,9.99999e-01
9.246095321e-01,8.30949e-01,9.99999e-01,9.58138e-01,8.67254e-01,9.99999e-01
9.292325798e-01,8.40909e-01,9.99999e-01,9.66898e-01,8.69697e-01,9.99999e-01
9.338787427e-01,8.44245e-01,9.99999e-01,9.68061e-01,8.72098e-01,9.99999e-01
9.385481364e-01,8.53908e-01,9.99999e-01,9.76497e-01,8.74459e-01,9.99999e-01
9.432408771e-01,8.64125e-01,9.99999e-01,9.85566e-01,8.76779e-01,9.99999e-01
9.479570815e-01,8.72533e-01,9.99999e-01,9.92574e-01,8.79060e-01,9.99999e-01
9.526968669e-01,8.78139e-01,9.99999e-01,9.96411e-01,8.81301e-01,9.99999e-01
9.574603512e-01,8.82147e-01,9.99999e-01,9.98464e-01,8.83503e-01,9.99999e-01
9.622476530e-01,8.85243e-01,9.99999e-01,9.99520e-01,8.85667e-01,9.99999e-01
9.670588912e-01,8.87666e-01,9.99999e-01,9.99856e-01,8.87794e-01,9.99999e-01
9.718941857e-01,8.89874e-01,9.99999e-01,9.99989e-01,8.89883e-01,9.99999e-01
9.767536566e-01,8.91936e-01,9.99999e-01,9.99999e-01,8.91936e-01,9.99999e-01
9.816374249e-01,8.93953e-01,9.99999e-01,9.99999e-01,8.93953e-01,9.99999e-01
9.865456120e-01,8.95935e-01,9.99999e-01,9.99999e-01,8.95935e-01,9.99999e-01
9.914783401e-01,8.97882e-01,9.99999e-01,9.99999e-01,8.97882e-01,9.99999e-01
9.964357318e-01,8.99794e-01,9.99999e-01,9.99999e-01,8.99794e-01,9.99999e-01
1.001417910e+00,9.01673e-01,9.99999e-01,9.99999e-01,9.01673e-01,9.99999e-01
1.006425000e+00,9.03518e-01,9.99999e-01,9.99999e-01,9.03518e-01,9.99999e-01
1.011457125e+00,9.05331e-01,9.99999e-01,9.99999e-01,9.05331e-01,9.99999e-01
1.016514411e+00,9.07111e-01,9.99999e-01,9.99999e-01,9.07111e-01,9.99999e-01
1.021596983e+00,9.08841e-01,9.99999e-01,9.99979e-01,9.08859e-01,9.99999e-01
1.026704968e+00,9.09235e-01,9.99999e-01,9.98525e-01,9.10576e-01,9.99999e-01
1.031838492e+00,8.91494e-01,9.99999e-01,9.77232e-01,9.12263e-01,9.99999e-01
1.036997685e+00,3.08231e-01,9.99999e-01,3.37263e-01,9.13919e-01,9.99999e-01
1.042182673e+00,3.79518e-01,9.99999e-01,4.14526e-01,9.15545e-01,9.99999e-01
1.047393587e+00,3.41504e-01,9.99999e-01,3.72356e-01,9.17142e-01,9.99999e-01
1.052630555e+00,7.11198e-02,9.99999e-01,7.74125e-02,9.18711e-01,9.99999e-01
1.057893707e+00,1.24917e-01,9.99999e-01,1.35742e-01,9.20250e-01,9.99999e-01
1.063183176e+00,2.18312e-01,9.99999e-01,2.36841e-01,9.21762e-01,9.99999e-01
1.068499092e+00,3.56246e-01,9.99999e-01,3.85861e-01,9.23247e-01,9.99999e-01
1.073841587e+00,5.07197e-01,9.99999e-01,5.48496e-01,9.24704e-01,9.99999e-01
1.079210795e+00,6.34506e-01,9.99999e-01,6.85111e-01,9.26135e-01,9.99999e-01
1.084606849e+00,7.54793e-01,9.99999e-01,8.13757e-01,9.27540e-01,9.99999e-01
1.090029883e+00,8.34989e-01,9.99999e-01,8.98882e-01,9.28919e-01,9.99999e-01
1.095480033e+00,8.82718e-01,9.99999e-01,9.48880e-01,9.30273e-01,9.99999e-01
1.100957433e+00,9.08388e-01,9.99999e-01,9.75081e-01,9.31602e-01,9.99999e-01
1.106462220e+00,9.23227e-01,9.99999e-01,9.89623e-01,9.32907e-01,9.99999e-01
1.111994531e+00,9.30585e-01,9.99999e-01,9.96142e-01,9.34187e-01,9.99999e-01
1.117554504e+00,9.34562e-01,9.99999e-01,9.99056e-01,9.35444e-01,9.99999e-01
1.123142276e+00,9.36620e-01,9.99999e-01,9.99937e-01,9.36678e-01,9.99999e-01
1.128757988e+00,9.37889e-01,9.99999e-01,9.99999e-01,9.37889e-01,9.99999e-01
1.134401778e+00,9.39078e-01,9.99999e-01,9.99999e-01,9.39078e-01,9.99999e-01
1.140073787e+00,9.40245e-01,9.99999e-01,9.99999e-01,9.40245e-01,9.99999e-01
1.145774156e+00,9.41390e-01,9.99999e-01,9.99999e-01,9.41390e-01,9.99999e-01
1.151503026e+00,9.42513e-01,9.99999e-01,9.99999e-01,9.42513e-01,9.99999e-01
1.157260541e+00,9.43616e-01,9.99999e-01,9.99999e-01,9.43616e-01,9.99999e-01
1.163046844e+00,9.44698e-01,9.99999e-01,9.99999e-01,9.44698e-01,9.99999e-01
1.168862078e+00,9.45761e-01,9.99999e-01,9.99999e-01,9.45761e-01,9.99999e-01
1.174706389e+00,9.46803e-01,9.99999e-01,9.99999e-01,9.46803e-01,9.99999e-01
1.180579921e+00,9.47826e-01,9.99999e-01,9.99999e-01,9.47826e-01,9.99999e-01
1.186482820e+00,9.48827e-01,9.99999e-01,9.99996e-01,9.48830e-01,9.99999e-01
1.192415234e+00,9.44778e-01,9.99999e-01,9.94696e-01,9.49814e-01,9.99999e-01
1.198377311e+00,5.67879e-01,9.99999e-01,5.97276e-01,9.50781e-01,9.99999e-01
1.204369197e+00,9.05169e-06,9.99999e-01,9.51078e-06,9.51729e-01,9.99999e-01
1.210391043e+00,2.13288e-17,9.99999e-01,2.23887e-17,9.52660e-01,9.99999e-01
1.216442998e+00,2.64739e-15,9.99999e-01,2.77628e-15,9.53573e-01,9.99999e-01
1.222525213e+00,4.58343e-15,9.99999e-01,4.80208e-15,9.54469e-01,9.99999e-01
1.228637839e+00,1.51076e-11,9.99999e-01,1.58137e-11,9.55348e-01,9.99999e-01
1.234781029e+00,3.19751e-08,9.99999e-01,3.34394e-08,9.56210e-01,9.99999e-01
1.240954934e+00,1.35552e-05,9.99999e-01,1.41634e-05,9.57056e-01,9.99999e-01
1.247159708e+00,1.85556e-03,9.99999e-01,1.93714e-03,9.57886e-01,9.99999e-01
1.253395507e+00,3.19427e-02,9.99999e-01,3.33187e-02,9.58701e-01,9.99999e-01
1.259662485e+00,1.40238e-01,9.99999e-01,1.46158e-01,9.59500e-01,9.99999e-01
1.265960797e+00,3.15182e-01,9.99999e-01,3.28217e-01,9.60283e-01,9.99999e-01
1.272290601e+00,6.10323e-01,9.99999e-01,6.35056e-01,9.61052e-01,9.99999e-01
1.278652054e+00,5.48487e-01,9.99999e-01,5.70267e-01,9.61807e-01,9.99999e-01
1.285045314e+00,6.14546e-02,9.99999e-01,6.38457e-02,9.62547e-01,9.99999e-01
1.291470541e+00,1.03589e-02,9.99999e-01,1.07538e-02,9.63273e-01,9.99999e-01
1.297927893e+00,7.08352e-02,9.99999e-01,7.34816e-02,9.63985e-01,9.99999e-01
1.304417533e+00,4.24065e-01,9.99999e-01,4.39589e-01,9.64684e-01,9.99999e-01
1.310939621e+00,1.27978e-01,9.99999e-01,1.32569e-01,9.65369e-01,9.99999e-01
1.317494319e+00,2.19885e-06,9.99999e-01,2.27615e-06,9.66041e-01,9.99999e-01
1.324081790e+00,7.76232e-05,9.99999e-01,8.02970e-05,9.66701e-01,9.99999e-01
1.330702199e+00,7.19503e-03,9.99999e-01,7.43788e-03,9.67348e-01,9.99999e-01
1.337355710e+00,4.80683e-03,9.99999e-01,4.96582e-03,9.67982e-01,9.99999e-01
1.344042489e+00,1.91409e-03,9.99999e-01,1.97613e-03,9.68605e-01,9.99999e-01
1.350762701e+00,5.85193e-03,9.99999e-01,6.03780e-03,9.69215e-01,9.99999e-01
1.357516515e+00,3.28667e-02,9.99999e-01,3.38897e-02,9.69814e-01,9.99999e-01
1.364304097e+00,1.20718e-01,9.99999e-01,1.24400e-01,9.70401e-01,9.99999e-01
1.371125618e+00,3.21152e-01,9.99999e-01,3.30751e-01,9.70977e-01,9.99999e-01
1.377981246e+00,4.04157e-01,9.99999e-01,4.15995e-01,9.71542e-01,9.99999e-01
1.384871152e+00,5.83265e-01,9.99999e-01,6.00006e-01,9.72096e-01,9.99999e-01
1.391795508e+00,6.06987e-01,9.99999e-01,6.24061e-01,9.72640e-01,9.99999e-01
1.398754485e+00,7.28558e-01,9.99999e-01,7.48641e-01,9.73173e-01,9.99999e-01
1.405748258e+00,7.86190e-01,9.99999e-01,8.07428e-01,9.73696e-01,9.99999e-01
1.412776999e+00,8.51377e-01,9.99999e-01,8.73916e-01,9.74209e-01,9.99999e-01
1.419840884e+00,7.97735e-01,9.99999e-01,8.18431e-01,9.74712e-01,9.99999e-01
1.426940089e+00,1.15098e-01,9.99999e-01,1.18025e-01,9.75205e-01,9.99999e-01
1.434074789e+00,2.82251e-239,9.99999e-01,2.89284e-239,9.75689e-01,9.99999e-01
1.441245163e+00,0.00000e+00,9.99999e-01,0.00000e+00,9.76163e-01,9.99999e-01
1.448451389e+00,4.95710e-290,9.99999e-01,5.07572e-290,9.76628e-01,9.99999e-01
1.455693646e+00,4.32958e-130,9.99999e-01,4.43111e-130,9.77085e-01,9.99999e-01
1.462972114e+00,9.78354e-64,9.99999e-01,1.00084e-63,9.77532e-01,9.99999e-01
1.470286975e+00,1.52193e-27,9.99999e-01,1.55621e-27,9.77971e-01,9.99999e-01
