#,Wave/freq,Total,O2,CO2,Rayleigh,CIA
4.000000000e-01,4.82432e-04,9.99999e-01,9.99999e-01,4.82432e-04,9.99999e-01
4.020000000e-01,5.61065e-04,9.99999e-01,9.99999e-01,5.61065e-04,9.99999e-01
4.040100000e-01,6.50472e-04,9.99999e-01,9.99999e-01,6.50472e-04,9.99999e-01
4.060300500e-01,7.51926e-04,9.99999e-01,9.99999e-01,7.51926e-04,9.99999e-01
4.080602003e-01,8.66719e-04,9.99999e-01,9.99999e-01,8.66719e-04,9.99999e-01
4.101005013e-01,9.96237e-04,9.99999e-01,9.99999e-01,9.96237e-04,9.99999e-01
4.121510038e-01,1.14196e-03,9.99999e-01,9.99999e-01,1.14196e-03,9.99999e-01
4.142117588e-01,1.30548e-03,9.99999e-01,9.99999e-01,1.30548e-03,9.99999e-01
4.162828176e-01,1.48848e-03,9.99999e-01,9.99999e-01,1.48848e-03,9.99999e-01
4.183642317e-01,1.69273e-03,9.99999e-01,9.99999e-01,1.69273e-03,9.99999e-01
4.204560528e-01,1.92013e-03,9.99999e-01,9.99999e-01,1.92013e-03,9.99999e-01
4.225583331e-01,2.17265e-03,9.99999e-01,9.99999e-01,2.17265e-03,9.99999e-01
4.246711247e-01,2.45240e-03,9.99999e-01,9.99999e-01,2.45240e-03,9.99999e-01
4.267944804e-01,2.76155e-03,9.99999e-01,9.99999e-01,2.76155e-03,9.99999e-01
4.289284528e-01,3.10239e-03,9.99999e-01,9.99999e-01,3.10239e-03,9.99999e-01
4.310730950e-01,3.47730e-03,9.99999e-01,9.99999e-01,3.47730e-03,9.99999e-01
4.332284605e-01,3.88874e-03,9.99999e-01,9.99999e-01,3.88874e-03,9.99999e-01
4.353946028e-01,4.33926e-03,9.99999e-01,9.99999e-01,4.33926e-03,9.99999e-01
4.375715758e-01,4.83151e-03,9.99999e-01,9.99999e-01,4.83151e-03,9.99999e-01
4.397594337e-01,5.36819e-03,9.99999e-01,9.99999e-01,5.36819e-03,9.99999e-01
4.419582309e-01,5.95209e-03,9.99999e-01,9.99999e-01,5.95209e-03,9.99999e-01
4.441680220e-01,6.58605e-03,9.99999e-01,9.99999e-01,6.58605e-03,9.99999e-01
4.463888621e-01,7.27299e-03,9.99999e-01,9.99999e-01,7.27299e-03,9.99999e-01
4.486208064e-01,8.01585e-03,9.99999e-01,9.99999e-01,8.01585e-03,9.99999e-01
4.508639105e-01,8.81762e-03,9.99999e-01,9.99999e-01,8.81762e-03,9.99999e-01
4.531182300e-01,9.68135e-03,9.99999e-01,9.99999e-01,9.68135e-03,9.99999e-01
4.553838212e-01,1.06101e-02,9.99999e-01,9.99999e-01,1.06101e-02,9.99999e-01
4.576607403e-01,1.16069e-02,9.99999e-01,9.99999e-01,1.16069e-02,9.99999e-01
4.599490440e-01,1.26748e-02,9.99999e-01,9.99999e-01,1.26748e-02,9.99999e-01
4.622487892e-01,1.38170e-02,9.99999e-01,9.99999e-01,1.38170e-02,9.99999e-01
4.645600332e-01,1.50364e-02,9.99999e-01,9.99999e-01,1.50364e-02,9.99999e-01
4.668828333e-01,1.63362e-02,9.99999e-01,9.99999e-01,1.63362e-02,9.99999e-01
4.692172475e-01,1.77193e-02,9.99999e-01,9.99999e-01,1.77193e-02,9.99999e-01
4.715633337e-01,1.91886e-02,9.99999e-01,9.99999e-01,1.91886e-02,9.99999e-01
4.739211504e-01,2.07471e-02,9.99999e-01,9.99999e-01,2.07471e-02,9.99999e-01
4.762907561e-01,2.23976e-02,9.99999e-01,9.99999e-01,2.23976e-02,9.99999e-01
4.786722099e-01,2.41429e-02,9.99999e-01,9.99999e-01,2.41429e-02,9.99999e-01
4.810655710e-01,2.59856e-02,9.99999e-01,9.99999e-01,2.59856e-02,9.99999e-01
4.834708988e-01,2.79284e-02,9.99999e-01,9.99999e-01,2.79284e-02,9.99999e-01
4.858882533e-01,2.99737e-02,9.99999e-01,9.99999e-01,2.99737e-02,9.99999e-01
4.883176946e-01,3.21239e-02,9.99999e-01,9.99999e-01,3.21239e-02,9.99999e-01
4.907592831e-01,3.43813e-02,9.99999e-01,9.99999e-01,3.43813e-02,9.99999e-01
4.932130795e-01,3.67480e-02,9.99999e-01,9.99999e-01,3.67480e-02,9.99999e-01
4.956791449e-01,3.92260e-02,9.99999e-01,9.99999e-01,3.92260e-02,9.99999e-01
4.981575406e-01,4.18171e-02,9.99999e-01,9.99999e-01,4.18171e-02,9.99999e-01
5.006483283e-01,4.45232e-02,9.99999e-01,9.99999e-01,4.45232e-02,9.99999e-01
5.031515699e-01,4.73456e-02,9.99999e-01,9.99999e-01,4.73456e-02,9.99999e-01
5.056673278e-01,5.02859e-02,9.99999e-01,9.99999e-01,5.02859e-02,9.99999e-01
5.081956644e-01,5.33453e-02,9.99999e-01,9.99999e-01,5.33453e-02,9.99999e-01
5.107366428e-01,5.65248e-02,9.99999e-01,9.99999e-01,5.65248e-02,9.99999e-01
5.132903260e-01,5.98254e-02,9.99999e-01,9.99999e-01,5.98254e-02,9.99999e-01
5.158567776e-01,6.32477e-02,9.99999e-01,9.99999e-01,6.32477e-02,9.99999e-01
5.184360615e-01,6.67924e-02,9.99999e-01,9.99999e-01,6.67924e-02,9.99999e-01
5.210282418e-01,7.04599e-02,9.99999e-01,9.99999e-01,7.04599e-02,9.99999e-01
5.236333830e-01,7.42502e-02,9.99999e-01,9.99999e-01,7.42502e-02,9.99999e-01
5.262515499e-01,7.81635e-02,9.99999e-01,9.99999e-01,7.81635e-02,9.99999e-01
5.288828077e-01,8.21997e-02,9.99999e-01,9.99999e-01,8.21997e-02,9.99999e-01
5.315272217e-01,8.63583e-02,9.99999e-01,9.99999e-01,8.63583e-02,9.99999e-01
5.341848578e-01,9.06389e-02,9.99999e-01,9.99999e-01,9.06389e-02,9.99999e-01
5.368557821e-01,9.50409e-02,9.99999e-01,9.99999e-01,9.50409e-02,9.99999e-01
5.395400610e-01,9.95633e-02,9.99999e-01,9.99999e-01,9.95633e-02,9.99999e-01
5.422377613e-01,1.04205e-01,9.99999e-01,9.99999e-01,1.04205e-01,9.99999e-01
5.449489501e-01,1.08965e-01,9.99999e-01,9.99999e-01,1.08965e-01,9.99999e-01
5.476736949e-01,1.13842e-01,9.99999e-01,9.99999e-01,1.13842e-01,9.99999e-01
5.504120634e-01,1.18835e-01,9.99999e-01,9.99999e-01,1.18835e-01,9.99999e-01
5.531641237e-01,1.23941e-01,9.99999e-01,9.99999e-01,1.23941e-01,9.99999e-01
5.559299443e-01,1.29160e-01,9.99999e-01,9.99999e-01,1.29160e-01,9.99999e-01
5.587095940e-01,1.34489e-01,9.99999e-01,9.99999e-01,1.34489e-01,9.99999e-01
5.615031420e-01,1.39925e-01,9.99999e-01,9.99999e-01,1.39925e-01,9.99999e-01
5.643106577e-01,1.45468e-01,9.99999e-01,9.99999e-01,1.45468e-01,9.99999e-01
5.671322110e-01,1.51114e-01,9.99999e-01,9.99999e-01,1.51114e-01,9.99999e-01
5.699678720e-01,1.56861e-01,9.99999e-01,9.99999e-01,1.56861e-01,9.99999e-01
5.728177114e-01,1.62707e-01,9.99999e-01,9.99999e-01,1.62707e-01,9.99999e-01
5.756818000e-01,1.68648e-01,9.99999e-01,9.99999e-01,1.68648e-01,9.99999e-01
5.785602090e-01,1.74683e-01,9.99999e-01,9.99999e-01,1.74683e-01,9.99999e-01
5.814530100e-01,1.80808e-01,9.99999e-01,9.99999e-01,1.80808e-01,9.99999e-01
5.843602750e-01,1.87021e-01,9.99999e-01,9.99999e-01,1.87021e-01,9.99999e-01
5.872820764e-01,1.93318e-01,9.99999e-01,9.99999e-01,1.93318e-01,9.99999e-01
5.902184868e-01,1.99696e-01,9.99999e-01,9.99999e-01,1.99696e-01,9.99999e-01
5.931695792e-01,2.06153e-01,9.99999e-01,9.99999e-01,2.06153e-01,9.99999e-01
5.961354271e-01,2.12685e-01,9.99999e-01,9.99999e-01,2.12685e-01,9.99999e-01
5.991161043e-01,2.19288e-01,9.99999e-01,9.99999e-01,2.19288e-01,9.99999e-01
6.021116848e-01,2.25960e-01,9.99999e-01,9.99999e-01,2.25960e-01,9.99999e-01
6.051222432e-01,2.32697e-01,9.99999e-01,9.99999e-01,2.32697e-01,9.99999e-01
6.081478544e-01,2.39496e-01,9.99999e-01,9.99999e-01,2.39496e-01,9.99999e-01
6.111885937e-01,2.46353e-01,9.99999e-01,9.99999e-01,2.46353e-01,9.99999e-01
6.142445367e-01,2.53266e-01,9.99999e-01,9.99999e-01,2.53266e-01,9.99999e-01
6.173157594e-01,2.60230e-01,9.99999e-01,9.99999e-01,2.60230e-01,9.99999e-01
6.204023382e-01,2.67243e-01,9.99999e-01,9.99999e-01,2.67243e-01,9.99999e-01
6.235043498e-01,2.74300e-01,9.99999e-01,9.99999e-01,2.74300e-01,9.99999e-01
6.266218716e-01,2.81399e-01,9.99999e-01,9.99999e-01,2.81399e-01,9.99999e-01
6.297549810e-01,2.88536e-01,9.99999e-01,9.99999e-01,2.88536e-01,9.99999e-01
6.329037559e-01,2.95707e-01,9.99999e-01,9.99999e-01,2.95707e-01,9.99999e-01
6.360682746e-01,3.02910e-01,9.99999e-01,9.99999e-01,3.02910e-01,9.99999e-01
6.392486160e-01,3.10141e-01,9.99999e-01,9.99999e-01,3.10141e-01,9.99999e-01
6.424448591e-01,3.17396e-01,9.99999e-01,9.99999e-01,3.17396e-01,9.99999e-01
6.456570834e-01,3.24673e-01,9.99999e-01,9.99999e-01,3.24673e-01,9.99999e-01
6.488853688e-01,3.31968e-01,9.99999e-01,9.99999e-01,3.31968e-01,9.99999e-01
6.521297956e-01,3.39278e-01,9.99999e-01,9.99999e-01,3.39278e-01,9.99999e-01
6.553904446e-01,3.46600e-01,9.99999e-01,9.99999e-01,3.46600e-01,9.99999e-01
6.586673968e-01,3.53931e-01,9.99999e-01,9.99999e-01,3.53931e-01,9.99999e-01
6.619607338e-01,3.61267e-01,9.99999e-01,9.99999e-01,3.61267e-01,9.99999e-01
6.652705375e-01,3.68606e-01,9.99999e-01,9.99999e-01,3.68606e-01,9.99999e-01
6.685968902e-01,3.75945e-01,9.99999e-01,9.99999e-01,3.75945e-01,9.99999e-01
6.719398746e-01,3.83280e-01,9.99999e-01,9.99999e-01,3.83280e-01,9.99999e-01
6.752995740e-01,3.90609e-01,9.99999e-01,9.99999e-01,3.90609e-01,9.99999e-01
6.786760719e-01,3.97930e-01,9.99999e-01,9.99999e-01,3.97930e-01,9.99999e-01
6.820694522e-01,4.05239e-01,9.99999e-01,9.99999e-01,4.05239e-01,9.99999e-01
6.854797995e-01,4.12535e-01,9.99999e-01,9.99999e-01,4.12535e-01,9.99999e-01
6.889071985e-01,4.19813e-01,9.99999e-01,9.99999e-01,4.19813e-01,9.99999e-01
6.923517345e-01,4.27072e-01,9.99999e-01,9.99999e-01,4.27072e-01,9.99999e-01
6.958134932e-01,4.34310e-01,9.99999e-01,9.99999e-01,4.34310e-01,9.99999e-01
6.992925606e-01,4.41524e-01,9.99999e-01,9.99999e-01,4.41524e-01,9.99999e-01
7.027890234e-01,4.48712e-01,9.99999e-01,9.99999e-01,4.48712e-01,9.99999e-01
7.063029686e-01,4.55871e-01,9.99999e-01,9.99999e-01,4.55871e-01,9.99999e-01
7.098344834e-01,4.63000e-01,9.99999e-01,9.99999e-01,4.63000e-01,9.99999e-01
7.133836558e-01,4.70096e-01,9.99999e-01,9.99999e-01,4.70096e-01,9.99999e-01
7.169505741e-01,4.77157e-01,9.99999e-01,9.99999e-01,4.77157e-01,9.99999e-01
7.205353270e-01,4.84182e-01,9.99999e-01,9.99999e-01,4.84182e-01,9.99999e-01
7.241380036e-01,4.91168e-01,9.99999e-01,9.99999e-01,4.91168e-01,9.99999e-01
7.277586936e-01,4.98115e-01,9.99999e-01,9.99999e-01,4.98115e-01,9.99999e-01
7.313974871e-01,5.05019e-01,9.99999e-01,9.99999e-01,5.05019e-01,9.99999e-01
7.350544745e-01,5.11880e-01,9.99999e-01,9.99999e-01,5.11880e-01,9.99999e-01
7.387297469e-01,5.18696e-01,9.99999e-01,9.99999e-01,5.18696e-01,9.99999e-01
7.424233956e-01,5.25465e-01,9.99999e-01,9.99999e-01,5.25465e-01,9.99999e-01
7.461355126e-01,5.32187e-01,9.99999e-01,9.99999e-01,5.32187e-01,9.99999e-01
7.498661902e-01,5.38859e-01,9.99999e-01,9.99999e-01,5.38859e-01,9.99999e-01
7.536155211e-01,5.45480e-01,9.99999e-01,9.99999e-01,5.45480e-01,9.99999e-01
7.573835987e-01,5.52050e-01,9.99999e-01,9.99999e-01,5.52050e-01,9.99999e-01
7.611705167e-01,5.58566e-01,9.99999e-01,9.99999e-01,5.58566e-01,9.99999e-01
7.649763693e-01,5.65029e-01,9.99999e-01,9.99999e-01,5.65029e-01,9.99999e-01
7.688012511e-01,5.71436e-01,9.99999e-01,9.99999e-01,5.71436e-01,9.99999e-01
7.726452574e-01,5.77788e-01,9.99999e-01,9.99999e-01,5.77788e-01,9.99999e-01
7.765084837e-01,5.84082e-01,9.99999e-01,9.99999e-01,5.84082e-01,9.99999e-01
7.803910261e-01,5.75164e-01,9.99999e-01,9.74326e-01,5.90319e-01,9.99999e-01
7.842929812e-01,5.33161e-01,9.99999e-01,8.93819e-01,5.96497e-01,9.99999e-01
7.882144461e-01,5.34189e-01,9.99999e-01,8.86450e-01,6.02616e-01,9.99999e-01
7.921555184e-01,5.67672e-01,9.99999e-01,9.32635e-01,6.08675e-01,9.99999e-01
7.961162960e-01,5.86704e-01,9.99999e-01,9.54497e-01,6.14673e-01,9.99999e-01
8.000968774e-01,6.05142e-01,9.99999e-01,9.75075e-01,6.20610e-01,9.99999e-01
8.040973618e-01,6.18356e-01,9.99999e-01,9.87022e-01,6.26486e-01,9.99999e-01
8.081178486e-01,6.28519e-01,9.99999e-01,9.94020e-01,6.32299e-01,9.99999e-01
8.121584379e-01,6.36872e-01,9.99999e-01,9.98151e-01,6.38051e-01,9.99999e-01
8.162192301e-01,6.43476e-01,9.99999e-01,9.99591e-01,6.43739e-01,9.99999e-01
8.203003262e-01,6.49360e-01,9.99999e-01,9.99993e-01,6.49364e-01,9.99999e-01
8.244018279e-01,6.54926e-01,9.99999e-01,9.99999e-01,6.54926e-01,9.99999e-01
8.285238370e-01,6.60424e-01,9.99999e-01,9.99999e-01,6.60424e-01,9.99999e-01
8.326664562e-01,6.65858e-01,9.99999e-01,9.99999e-01,6.65858e-01,9.99999e-01
8.368297885e-01,6.71228e-01,9.99999e-01,9.99999e-01,6.71228e-01,9.99999e-01
8.410139374e-01,6.76534e-01,9.99999e-01,9.99999e-01,6.76534e-01,9.99999e-01
8.452190071e-01,6.81777e-01,9.99999e-01,9.99999e-01,6.81777e-01,9.99999e-01
8.494451021e-01,6.86955e-01,9.99999e-01,9.99999e-01,6.86955e-01,9.99999e-01
8.536923276e-01,6.92069e-01,9.99999e-01,9.99999e-01,6.92069e-01,9.99999e-01
8.579607893e-01,6.97118e-01,9.99999e-01,9.99999e-01,6.97118e-01,9.99999e-01
8.622505932e-01,7.02104e-01,9.99999e-01,9.99999e-01,7.02104e-01,9.99999e-01
8.665618462e-01,6.63372e-01,9.99999e-01,9.38255e-01,7.07026e-01,9.99999e-01
8.708946554e-01,5.34072e-01,9.99999e-01,7.50222e-01,7.11885e-01,9.99999e-01
8.752491287e-01,5.69425e-01,9.99999e-01,7.94532e-01,7.16679e-01,9.99999e-01
8.796253743e-01,6.36219e-01,9.99999e-01,8.81909e-01,7.21411e-01,9.99999e-01
8.840235012e-01,6.80389e-01,9.99999e-01,9.37073e-01,7.26079e-01,9.99999e-01
8.884436187e-01,7.12235e-01,9.99999e-01,9.74750e-01,7.30684e-01,9.99999e-01
8.928858368e-01,7.27653e-01,9.99999e-01,9.89697e-01,7.35227e-01,9.99999e-01
8.973502660e-01,7.37852e-01,9.99999e-01,9.97491e-01,7.39707e-01,9.99999e-01
9.018370173e-01,7.43920e-01,9.99999e-01,9.99723e-01,7.44126e-01,9.99999e-01
9.063462024e-01,7.43147e-01,9.99999e-01,9.92871e-01,7.48482e-01,9.99999e-01
9.108779334e-01,7.40573e-01,9.99999e-01,9.83786e-01,7.52778e-01,9.99999e-01
9.154323231e-01,7.54118e-01,9.99999e-01,9.96176e-01,7.57012e-01,9.99999e-01
9.200094847e-01,7.19088e-01,9.99999e-01,9.44694e-01,7.61186e-01,9.99999e-01
9.246095321e-01,7.06395e-01,9.99999e-01,9.23029e-01,7.65300e-01,9.99999e-01
9.292325798e-01,7.22375e-01,9.99999e-01,9.38936e-01,7.69354e-01,9.99999e-01
9.338787427e-01,7.27781e-01,9.99999e-01,9.41076e-01,7.73349e-01,9.99999e-01
9.385481364e-01,7.43399e-01,9.99999e-01,9.56403e-01,7.77285e-01,9.99999e-01
9.432408771e-01,7.60160e-01,9.99999e-01,9.73112e-01,7.81163e-01,9.99999e-01
9.479570815e-01,7.74083e-01,9.99999e-01,9.86114e-01,7.84983e-01,9.99999e-01
9.526968669e-01,7.83448e-01,9.99999e-01,9.93282e-01,7.88746e-01,9.99999e-01
9.574603512e-01,7.90173e-01,9.99999e-01,9.97123e-01,7.92452e-01,9.99999e-01
9.622476530e-01,7.95387e-01,9.99999e-01,9.99102e-01,7.96101e-01,9.99999e-01
9.670588912e-01,7.99480e-01,9.99999e-01,9.99730e-01,7.99695e-01,9.99999e-01
9.718941857e-01,8.03219e-01,9.99999e-01,9.99980e-01,8.03234e-01,9.99999e-01
9.767536566e-01,8.06718e-01,9.99999e-01,9.99999e-01,8.06718e-01,9.99999e-01
9.816374249e-01,8.10147e-01,9.99999e-01,9.99999e-01,8.10147e-01,9.99999e-01
9.865456120e-01,8.13524e-01,9.99999e-01,9.99999e-01,8.13524e-01,9.99999e-01
9.914783401e-01,8.16847e-01,9.99999e-01,9.99999e-01,8.16847e-01,9.99999e-01
9.964357318e-01,8.20117e-01,9.99999e-01,9.99999e-01,8.20117e-01,9.99999e-01
1.001417910e+00,8.23336e-01,9.99999e-01,9.99999e-01,8.23336e-01,9.99999e-01
1.006425000e+00,8.26503e-01,9.99999e-01,9.99999e-01,8.26503e-01,9.99999e-01
1.011457125e+00,8.29620e-01,9.99999e-01,9.99999e-01,8.29620e-01,9.99999e-01
1.016514411e+00,8.32687e-01,9.99999e-01,9.99999e-01,8.32687e-01,9.99999e-01
1.021596983e+00,8.35672e-01,9.99999e-01,9.99961e-01,8.35704e-01,9.99999e-01
1.026704968e+00,8.36341e-01,9.99999e-01,9.97220e-01,8.38672e-01,9.99999e-01
1.031838492e+00,8.11041e-01,9.99999e-01,9.63698e-01,8.41591e-01,9.99999e-01
1.036997685e+00,1.69625e-01,9.99999e-01,2.00867e-01,8.44463e-01,9.99999e-01
1.042182673e+00,1.71182e-01,9.99999e-01,2.02035e-01,8.47288e-01,9.99999e-01
1.047393587e+00,1.78366e-01,9.99999e-01,2.09826e-01,8.50065e-01,9.99999e-01
1.052630555e+00,1.13642e-02,9.99999e-01,1.33257e-02,8.52797e-01,9.99999e-01
1.057893707e+00,2.52553e-02,9.99999e-01,2.95216e-02,8.55484e-01,9.99999e-01
1.063183176e+00,6.51122e-02,9.99999e-01,7.58772e-02,8.58125e-01,9.99999e-01
1.068499092e+00,1.47974e-01,9.99999e-01,1.71918e-01,8.60723e-01,9.99999e-01
1.073841587e+00,2.84270e-01,9.99999e-01,3.29291e-01,8.63277e-01,9.99999e-01
1.079210795e+00,4.28879e-01,9.99999e-01,4.95362e-01,8.65787e-01,9.99999e-01
1.084606849e+00,5.90834e-01,9.99999e-01,6.80483e-01,8.68255e-01,9.99999e-01
1.090029883e+00,7.13146e-01,9.99999e-01,8.19065e-01,8.70681e-01,9.99999e-01
1.095480033e+00,7.91348e-01,9.99999e-01,9.06400e-01,8.73066e-01,9.99999e-01
1.100957433e+00,8.34958e-01,9.99999e-01,9.53790e-01,8.75410e-01,9.99999e-01
1.106462220e+00,8.60717e-01,9.99999e-01,9.80634e-01,8.77714e-01,9.99999e-01
1.111994531e+00,8.73625e-01,9.99999e-01,9.92779e-01,8.79978e-01,9.99999e-01
1.117554504e+00,8.80646e-01,9.99999e-01,9.98233e-01,8.82204e-01,9.99999e-01
1.123142276e+00,8.84288e-01,9.99999e-01,9.99883e-01,8.84390e-01,9.99999e-01
1.128757988e+00,8.86539e-01,9.99999e-01,9.99999e-01,8.86539e-01,9.99999e-01
1.134401778e+00,8.88650e-01,9.99999e-01,9.99999e-01,8.88650e-01,9.99999e-01
1.140073787e+00,8.90725e-01,9.99999e-01,9.99999e-01,8.90725e-01,9.99999e-01
1.145774156e+00,8.92763e-01,9.99999e-01,9.99999e-01,8.92763e-01,9.99999e-01
1.151503026e+00,8.94766e-01,9.99999e-01,9.99999e-01,8.94766e-01,9.99999e-01
1.157260541e+00,8.96733e-01,9.99999e-01,9.99999e-01,8.96733e-01,9.99999e-01
1.163046844e+00,8.98666e-01,9.99999e-01,9.99999e-01,8.98666e-01,9.99999e-01
1.168862078e+00,9.00564e-01,9.99999e-01,9.99999e-01,9.00564e-01,9.99999e-01
1.174706389e+00,9.02429e-01,9.99999e-01,9.99999e-01,9.02429e-01,9.99999e-01
1.180579921e+00,9.04261e-01,9.99999e-01,9.99999e-01,9.04261e-01,9.99999e-01
1.186482820e+00,9.06056e-01,9.99999e-01,9.99994e-01,9.06060e-01,9.99999e-01
1.192415234e+00,8.98806e-01,9.99999e-01,9.90062e-01,9.07828e-01,9.99999e-01
1.198377311e+00,5.18198e-01,9.99999e-01,5.69721e-01,9.09563e-01,9.99999e-01
1.204369197e+00,7.15429e-09,9.99999e-01,7.85091e-09,9.11268e-01,9.99999e-01
1.210391043e+00,1.06161e-30,9.99999e-01,1.16285e-30,9.12942e-01,9.99999e-01
1.216442998e+00,8.49648e-27,9.99999e-01,9.28997e-27,9.14586e-01,9.99999e-01
1.222525213e+00,2.03351e-26,9.99999e-01,2.21950e-26,9.16200e-01,9.99999e-01
1.228637839e+00,1.97252e-20,9.99999e-01,2.14921e-20,9.17786e-01,9.99999e-01
1.234781029e+00,1.43832e-13,9.99999e-01,1.56451e-13,9.19342e-01,9.99999e-01
1.240954934e+00,3.39213e-09,9.99999e-01,3.68361e-09,9.20870e-01,9.99999e-01
1.247159708e+00,2.25815e-05,9.99999e-01,2.44819e-05,9.22371e-01,9.99999e-01
1.253395507e+00,2.07259e-03,9.99999e-01,2.24344e-03,9.23845e-01,9.99999e-01
1.259662485e+00,2.83330e-02,9.99999e-01,3.06205e-02,9.25291e-01,9.99999e-01
1.265960797e+00,1.22697e-01,9.99999e-01,1.32401e-01,9.26711e-01,9.99999e-01
1.272290601e+00,3.99806e-01,9.99999e-01,4.30776e-01,9.28106e-01,9.99999e-01
1.278652054e+00,3.45524e-01,9.99999e-01,3.71741e-01,9.29474e-01,9.99999e-01
1.285045314e+00,1.11708e-02,9.99999e-01,1.20010e-02,9.30818e-01,9.99999e-01
1.291470541e+00,2.64995e-04,9.99999e-01,2.84288e-04,9.32137e-01,9.99999e-01
1.297927893e+00,1.31325e-02,9.99999e-01,1.40690e-02,9.33432e-01,9.99999e-01
1.304417533e+00,2.02590e-01,9.99999e-01,2.16742e-01,9.34703e-01,9.99999e-01
1.310939621e+00,5.16795e-02,9.99999e-01,5.52160e-02,9.35950e-01,9.99999e-01
1.317494319e+00,4.98948e-11,9.99999e-01,5.32396e-11,9.37175e-01,9.99999e-01
1.324081790e+00,7.79165e-08,9.99999e-01,8.30332e-08,9.38377e-01,9.99999e-01
1.330702199e+00,1.24658e-04,9.99999e-01,1.32677e-04,9.39556e-01,9.99999e-01
1.337355710e+00,1.17077e-04,9.99999e-01,1.24456e-04,9.40714e-01,9.99999e-01
1.344042489e+00,3.45717e-05,9.99999e-01,3.67061e-05,9.41850e-01,9.99999e-01
1.350762701e+00,8.49866e-05,9.99999e-01,9.01268e-05,9.42966e-01,9.99999e-01
1.357516515e+00,2.22759e-03,9.99999e-01,2.35958e-03,9.44060e-01,9.99999e-01
1.364304097e+00,1.99750e-02,9.99999e-01,2.11346e-02,9.45134e-01,9.99999e-01
1.371125618e+00,1.25059e-01,9.99999e-01,1.32171e-01,9.46188e-01,9.99999e-01
1.377981246e+00,1.83766e-01,9.99999e-01,1.94005e-01,9.47222e-01,9.99999e-01
1.384871152e+00,3.65128e-01,9.99999e-01,3.85059e-01,9.48237e-01,9.99999e-01
1.391795508e+00,3.93131e-01,9.99999e-01,4.14156e-01,9.49233e-01,9.99999e-01
1.398754485e+00,5.52099e-01,9.99999e-01,5.81028e-01,9.50211e-01,9.99999e-01
1.405748258e+00,6.37445e-01,9.99999e-01,6.70168e-01,9.51170e-01,9.99999e-01
1.412776999e+00,7.39623e-01,9.99999e-01,7.76823e-01,9.52111e-01,9.99999e-01
1.419840884e+00,6.72432e-01,9.99999e-01,7.05569e-01,9.53034e-01,9.99999e-01
1.426940089e+00,7.45793e-02,9.99999e-01,7.81802e-02,9.53940e-01,9.99999e-01
1.434074789e+00,0.00000e+00,9.99999e-01,0.00000e+00,9.54829e-01,9.99999e-01
1.441245163e+00,0.00000e+00,9.99999e-01,0.00000e+00,9.55701e-01,9.99999e-01
1.448451389e+00,0.00000e+00,9.99999e-01,0.00000e+00,9.56557e-01,9.99999e-01
1.455693646e+00,2.33588e-242,9.99999e-01,2.43982e-242,9.57397e-01,9.99999e-01
1.462972114e+00,9.83751e-118,9.99999e-01,1.02664e-117,9.58220e-01,9.99999e-01
1.470286975e+00,9.07709e-50,9.99999e-01,9.46488e-50,9.59028e-01,9.99999e-01
