#,Wave/freq,Total,O2,CO2,Rayleigh,CIA
4.000000000e-01,3.52152e-02,9.99999e-01,9.99999e-01,3.52152e-02,9.99999e-01
4.020000000e-01,3.76241e-02,9.99999e-01,9.99999e-01,3.76241e-02,9.99999e-01
4.040100000e-01,4.01425e-02,9.99999e-01,9.99999e-01,4.01425e-02,9.99999e-01
4.060300500e-01,4.27747e-02,9.99999e-01,9.99999e-01,4.27747e-02,9.99999e-01
4.080602003e-01,4.55223e-02,9.99999e-01,9.99999e-01,4.55223e-02,9.99999e-01
4.101005013e-01,4.83869e-02,9.99999e-01,9.99999e-01,4.83869e-02,9.99999e-01
4.121510038e-01,5.13697e-02,9.99999e-01,9.99999e-01,5.13697e-02,9.99999e-01
4.142117588e-01,5.44721e-02,9.99999e-01,9.99999e-01,5.44721e-02,9.99999e-01
4.162828176e-01,5.76949e-02,9.99999e-01,9.99999e-01,5.76949e-02,9.99999e-01
4.183642317e-01,6.10391e-02,9.99999e-01,9.99999e-01,6.10391e-02,9.99999e-01
4.204560528e-01,6.45053e-02,9.99999e-01,9.99999e-01,6.45053e-02,9.99999e-01
4.225583331e-01,6.80940e-02,9.99999e-01,9.99999e-01,6.80940e-02,9.99999e-01
4.246711247e-01,7.18055e-02,9.99999e-01,9.99999e-01,7.18055e-02,9.99999e-01
4.267944804e-01,7.56400e-02,9.99999e-01,9.99999e-01,7.56400e-02,9.99999e-01
4.289284528e-01,7.95974e-02,9.99999e-01,9.99999e-01,7.95974e-02,9.99999e-01
4.310730950e-01,8.36776e-02,9.99999e-01,9.99999e-01,8.36776e-02,9.99999e-01
4.332284605e-01,8.78800e-02,9.99999e-01,9.99999e-01,8.78800e-02,9.99999e-01
4.353946028e-01,9.22042e-02,9.99999e-01,9.99999e-01,9.22042e-02,9.99999e-01
4.375715758e-01,9.66495e-02,9.99999e-01,9.99999e-01,9.66495e-02,9.99999e-01
4.397594337e-01,1.01215e-01,9.99999e-01,9.99999e-01,1.01215e-01,9.99999e-01
4.419582309e-01,1.05899e-01,9.99999e-01,9.99999e-01,1.05899e-01,9.99999e-01
4.441680220e-01,1.10702e-01,9.99999e-01,9.99999e-01,1.10702e-01,9.99999e-01
4.463888621e-01,1.15620e-01,9.99999e-01,9.99999e-01,1.15620e-01,9.99999e-01
4.486208064e-01,1.20654e-01,9.99999e-01,9.99999e-01,1.20654e-01,9.99999e-01
4.508639105e-01,1.25801e-01,9.99999e-01,9.99999e-01,1.25801e-01,9.99999e-01
4.531182300e-01,1.31059e-01,9.99999e-01,9.99999e-01,1.31059e-01,9.99999e-01
4.553838212e-01,1.36427e-01,9.99999e-01,9.99999e-01,1.36427e-01,9.99999e-01
4.576607403e-01,1.41902e-01,9.99999e-01,9.99999e-01,1.41902e-01,9.99999e-01
4.599490440e-01,1.47481e-01,9.99999e-01,9.99999e-01,1.47481e-01,9.99999e-01
4.622487892e-01,1.53164e-01,9.99999e-01,9.99999e-01,1.53164e-01,9.99999e-01
4.645600332e-01,1.58947e-01,9.99999e-01,9.99999e-01,1.58947e-01,9.99999e-01
4.668828333e-01,1.64827e-01,9.99999e-01,9.99999e-01,1.64827e-01,9.99999e-01
4.692172475e-01,1.70803e-01,9.99999e-01,9.99999e-01,1.70803e-01,9.99999e-01
4.715633337e-01,1.76870e-01,9.99999e-01,9.99999e-01,1.76870e-01,9.99999e-01
4.739211504e-01,1.83027e-01,9.99999e-01,9.99999e-01,1.83027e-01,9.99999e-01
4.762907561e-01,1.89270e-01,9.99999e-01,9.99999e-01,1.89270e-01,9.99999e-01
4.786722099e-01,1.95597e-01,9.99999e-01,9.99999e-01,1.95597e-01,9.99999e-01
4.810655710e-01,2.02004e-01,9.99999e-01,9.99999e-01,2.02004e-01,9.99999e-01
4.834708988e-01,2.08488e-01,9.99999e-01,9.99999e-01,2.08488e-01,9.99999e-01
4.858882533e-01,2.15045e-01,9.99999e-01,9.99999e-01,2.15045e-01,9.99999e-01
4.883176946e-01,2.21674e-01,9.99999e-01,9.99999e-01,2.21674e-01,9.99999e-01
4.907592831e-01,2.28370e-01,9.99999e-01,9.99999e-01,2.28370e-01,9.99999e-01
4.932130795e-01,2.35129e-01,9.99999e-01,9.99999e-01,2.35129e-01,9.99999e-01
4.956791449e-01,2.41950e-01,9.99999e-01,9.99999e-01,2.41950e-01,9.99999e-01
4.981575406e-01,2.48827e-01,9.99999e-01,9.99999e-01,2.48827e-01,9.99999e-01
5.006483283e-01,2.55759e-01,9.99999e-01,9.99999e-01,2.55759e-01,9.99999e-01
5.031515699e-01,2.62741e-01,9.99999e-01,9.99999e-01,2.62741e-01,9.99999e-01
5.056673278e-01,2.69770e-01,9.99999e-01,9.99999e-01,2.69770e-01,9.99999e-01
5.081956644e-01,2.76842e-01,9.99999e-01,9.99999e-01,2.76842e-01,9.99999e-01
5.107366428e-01,2.83955e-01,9.99999e-01,9.99999e-01,2.83955e-01,9.99999e-01
5.132903260e-01,2.91105e-01,9.99999e-01,9.99999e-01,2.91105e-01,9.99999e-01
5.158567776e-01,2.98288e-01,9.99999e-01,9.99999e-01,2.98288e-01,9.99999e-01
5.184360615e-01,3.05501e-01,9.99999e-01,9.99999e-01,3.05501e-01,9.99999e-01
5.210282418e-01,3.12741e-01,9.99999e-01,9.99999e-01,3.12741e-01,9.99999e-01
5.236333830e-01,3.20005e-01,9.99999e-01,9.99999e-01,3.20005e-01,9.99999e-01
5.262515499e-01,3.27289e-01,9.99999e-01,9.99999e-01,3.27289e-01,9.99999e-01
5.288828077e-01,3.34589e-01,9.99999e-01,9.99999e-01,3.34589e-01,9.99999e-01
5.315272217e-01,3.41904e-01,9.99999e-01,9.99999e-01,3.41904e-01,9.99999e-01
5.341848578e-01,3.49229e-01,9.99999e-01,9.99999e-01,3.49229e-01,9.99999e-01
5.368557821e-01,3.56562e-01,9.99999e-01,9.99999e-01,3.56562e-01,9.99999e-01
5.395400610e-01,3.63900e-01,9.99999e-01,9.99999e-01,3.63900e-01,9.99999e-01
5.422377613e-01,3.71239e-01,9.99999e-01,9.99999e-01,3.71239e-01,9.99999e-01
5.449489501e-01,3.78577e-01,9.99999e-01,9.99999e-01,3.78577e-01,9.99999e-01
5.476736949e-01,3.85910e-01,9.99999e-01,9.99999e-01,3.85910e-01,9.99999e-01
5.504120634e-01,3.93237e-01,9.99999e-01,9.99999e-01,3.93237e-01,9.99999e-01
5.531641237e-01,4.00554e-01,9.99999e-01,9.99999e-01,4.00554e-01,9.99999e-01
5.559299443e-01,4.07858e-01,9.99999e-01,9.99999e-01,4.07858e-01,9.99999e-01
5.587095940e-01,4.15148e-01,9.99999e-01,9.99999e-01,4.15148e-01,9.99999e-01
5.615031420e-01,4.22420e-01,9.99999e-01,9.99999e-01,4.22420e-01,9.99999e-01
5.643106577e-01,4.29672e-01,9.99999e-01,9.99999e-01,4.29672e-01,9.99999e-01
5.671322110e-01,4.36901e-01,9.99999e-01,9.99999e-01,4.36901e-01,9.99999e-01
5.699678720e-01,4.44106e-01,9.99999e-01,9.99999e-01,4.44106e-01,9.99999e-01
5.728177114e-01,4.51283e-01,9.99999e-01,9.99999e-01,4.51283e-01,9.99999e-01
5.756818000e-01,4.58432e-01,9.99999e-01,9.99999e-01,4.58432e-01,9.99999e-01
5.785602090e-01,4.65549e-01,9.99999e-01,9.99999e-01,4.65549e-01,9.99999e-01
5.814530100e-01,4.72633e-01,9.99999e-01,9.99999e-01,4.72633e-01,9.99999e-01
5.843602750e-01,4.79682e-01,9.99999e-01,9.99999e-01,4.79682e-01,9.99999e-01
5.872820764e-01,4.86693e-01,9.99999e-01,9.99999e-01,4.86693e-01,9.99999e-01
5.902184868e-01,4.93665e-01,9.99999e-01,9.99999e-01,4.93665e-01,9.99999e-01
5.931695792e-01,5.00597e-01,9.99999e-01,9.99999e-01,5.00597e-01,9.99999e-01
5.961354271e-01,5.07486e-01,9.99999e-01,9.99999e-01,5.07486e-01,9.99999e-01
5.991161043e-01,5.14331e-01,9.99999e-01,9.99999e-01,5.14331e-01,9.99999e-01
6.021116848e-01,5.21130e-01,9.99999e-01,9.99999e-01,5.21130e-01,9.99999e-01
6.051222432e-01,5.27882e-01,9.99999e-01,9.99999e-01,5.27882e-01,9.99999e-01
6.081478544e-01,5.34586e-01,9.99999e-01,9.99999e-01,5.34586e-01,9.99999e-01
6.111885937e-01,5.41240e-01,9.99999e-01,9.99999e-01,5.41240e-01,9.99999e-01
6.142445367e-01,5.47843e-01,9.99999e-01,9.99999e-01,5.47843e-01,9.99999e-01
6.173157594e-01,5.54394e-01,9.99999e-01,9.99999e-01,5.54394e-01,9.99999e-01
6.204023382e-01,5.60891e-01,9.99999e-01,9.99999e-01,5.60891e-01,9.99999e-01
6.235043498e-01,5.67334e-01,9.99999e-01,9.99999e-01,5.67334e-01,9.99999e-01
6.266218716e-01,5.73721e-01,9.99999e-01,9.99999e-01,5.73721e-01,9.99999e-01
6.297549810e-01,5.80052e-01,9.99999e-01,9.99999e-01,5.80052e-01,9.99999e-01
6.329037559e-01,5.86326e-01,9.99999e-01,9.99999e-01,5.86326e-01,9.99999e-01
6.360682746e-01,5.92542e-01,9.99999e-01,9.99999e-01,5.92542e-01,9.99999e-01
6.392486160e-01,5.98699e-01,9.99999e-01,9.99999e-01,5.98699e-01,9.99999e-01
6.424448591e-01,6.04796e-01,9.99999e-01,9.99999e-01,6.04796e-01,9.99999e-01
6.456570834e-01,6.10834e-01,9.99999e-01,9.99999e-01,6.10834e-01,9.99999e-01
6.488853688e-01,6.16810e-01,9.99999e-01,9.99999e-01,6.16810e-01,9.99999e-01
6.521297956e-01,6.22725e-01,9.99999e-01,9.99999e-01,6.22725e-01,9.99999e-01
6.553904446e-01,6.28579e-01,9.99999e-01,9.99999e-01,6.28579e-01,9.99999e-01
6.586673968e-01,6.34370e-01,9.99999e-01,9.99999e-01,6.34370e-01,9.99999e-01
6.619607338e-01,6.40098e-01,9.99999e-01,9.99999e-01,6.40098e-01,9.99999e-01
6.652705375e-01,6.45764e-01,9.99999e-01,9.99999e-01,6.45764e-01,9.99999e-01
6.685968902e-01,6.51366e-01,9.99999e-01,9.99999e-01,6.51366e-01,9.99999e-01
6.719398746e-01,6.56905e-01,9.99999e-01,9.99999e-01,6.56905e-01,9.99999e-01
6.752995740e-01,6.62381e-01,9.99999e-01,9.99999e-01,6.62381e-01,9.99999e-01
6.786760719e-01,6.67792e-01,9.99999e-01,9.99999e-01,6.67792e-01,9.99999e-01
6.820694522e-01,6.73139e-01,9.99999e-01,9.99999e-01,6.73139e-01,9.99999e-01
6.854797995e-01,6.78422e-01,9.99999e-01,9.99999e-01,6.78422e-01,9.99999e-01
6.889071985e-01,6.83642e-01,9.99999e-01,9.99999e-01,6.83642e-01,9.99999e-01
6.923517345e-01,6.88797e-01,9.99999e-01,9.99999e-01,6.88797e-01,9.99999e-01
6.958134932e-01,6.93888e-01,9.99999e-01,9.99999e-01,6.93888e-01,9.99999e-01
6.992925606e-01,6.98915e-01,9.99999e-01,9.99999e-01,6.98915e-01,9.99999e-01
7.027890234e-01,7.03877e-01,9.99999e-01,9.99999e-01,7.03877e-01,9.99999e-01
7.063029686e-01,7.08777e-01,9.99999e-01,9.99999e-01,7.08777e-01,9.99999e-01
7.098344834e-01,7.13612e-01,9.99999e-01,9.99999e-01,7.13612e-01,9.99999e-01
7.133836558e-01,7.18384e-01,9.99999e-01,9.99999e-01,7.18384e-01,9.99999e-01
7.169505741e-01,7.23093e-01,9.99999e-01,9.99999e-01,7.23093e-01,9.99999e-01
7.205353270e-01,7.27738e-01,9.99999e-01,9.99999e-01,7.27738e-01,9.99999e-01
7.241380036e-01,7.32321e-01,9.99999e-01,9.99999e-01,7.32321e-01,9.99999e-01
7.277586936e-01,7.36841e-01,9.99999e-01,9.99999e-01,7.36841e-01,9.99999e-01
7.313974871e-01,7.41299e-01,9.99999e-01,9.99999e-01,7.41299e-01,9.99999e-01
7.350544745e-01,7.45696e-01,9.99999e-01,9.99999e-01,7.45696e-01,9.99999e-01
7.387297469e-01,7.50030e-01,9.99999e-01,9.99999e-01,7.50030e-01,9.99999e-01
7.424233956e-01,7.54304e-01,9.99999e-01,9.99999e-01,7.54304e-01,9.99999e-01
7.461355126e-01,7.58517e-01,9.99999e-01,9.99999e-01,7.58517e-01,9.99999e-01
7.498661902e-01,7.62669e-01,9.99999e-01,9.99999e-01,7.62669e-01,9.99999e-01
7.536155211e-01,7.66761e-01,9.99999e-01,9.99999e-01,7.66761e-01,9.99999e-01
7.573835987e-01,7.70794e-01,9.99999e-01,9.99999e-01,7.70794e-01,9.99999e-01
7.611705167e-01,7.74768e-01,9.99999e-01,9.99999e-01,7.74768e-01,9.99999e-01
7.649763693e-01,7.78683e-01,9.99999e-01,9.99999e-01,7.78683e-01,9.99999e-01
7.688012511e-01,7.82540e-01,9.99999e-01,9.99999e-01,7.82540e-01,9.99999e-01
7.726452574e-01,7.86340e-01,9.99999e-01,9.99999e-01,7.86340e-01,9.99999e-01
7.765084837e-01,7.90082e-01,9.99999e-01,9.99999e-01,7.90082e-01,9.99999e-01
7.803910261e-01,7.84629e-01,9.99999e-01,9.88486e-01,7.93768e-01,9.99999e-01
7.842929812e-01,7.58481e-01,9.99999e-01,9.51196e-01,7.97397e-01,9.99999e-01
7.882144461e-01,7.59123e-01,9.99999e-01,9.47752e-01,8.00971e-01,9.99999e-01
7.921555184e-01,7.80216e-01,9.99999e-01,9.69826e-01,8.04490e-01,9.99999e-01
7.961162960e-01,7.91558e-01,9.99999e-01,9.79705e-01,8.07954e-01,9.99999e-01
8.000968774e-01,8.02413e-01,9.99999e-01,9.88966e-01,8.11365e-01,9.99999e-01
8.040973618e-01,8.10048e-01,9.99999e-01,9.94262e-01,8.14722e-01,9.99999e-01
8.081178486e-01,8.15874e-01,9.99999e-01,9.97368e-01,8.18026e-01,9.99999e-01
8.121584379e-01,8.20608e-01,9.99999e-01,9.99183e-01,8.21278e-01,9.99999e-01
8.162192301e-01,8.24330e-01,9.99999e-01,9.99819e-01,8.24478e-01,9.99999e-01
8.203003262e-01,8.27625e-01,9.99999e-01,9.99996e-01,8.27627e-01,9.99999e-01
8.244018279e-01,8.30726e-01,9.99999e-01,9.99999e-01,8.30726e-01,9.99999e-01
8.285238370e-01,8.33775e-01,9.99999e-01,9.99999e-01,8.33775e-01,9.99999e-01
8.326664562e-01,8.36774e-01,9.99999e-01,9.99999e-01,8.36774e-01,9.99999e-01
8.368297885e-01,8.39725e-01,9.99999e-01,9.99999e-01,8.39725e-01,9.99999e-01
8.410139374e-01,8.42627e-01,9.99999e-01,9.99999e-01,8.42627e-01,9.99999e-01
8.452190071e-01,8.45482e-01,9.99999e-01,9.99999e-01,8.45482e-01,9.99999e-01
8.494451021e-01,8.48289e-01,9.99999e-01,9.99999e-01,8.48289e-01,9.99999e-01
8.536923276e-01,8.51051e-01,9.99999e-01,9.99999e-01,8.51051e-01,9.99999e-01
8.579607893e-01,8.53766e-01,9.99999e-01,9.99999e-01,8.53766e-01,9.99999e-01
8.622505932e-01,8.56437e-01,9.99999e-01,9.99999e-01,8.56437e-01,9.99999e-01
8.665618462e-01,8.30869e-01,9.99999e-01,9.67181e-01,8.59062e-01,9.99999e-01
8.708946554e-01,7.56921e-01,9.99999e-01,8.78460e-01,8.61644e-01,9.99999e-01
8.752491287e-01,7.79859e-01,9.99999e-01,9.02423e-01,8.64182e-01,9.99999e-01
8.796253743e-01,8.19803e-01,9.99999e-01,9.45914e-01,8.66677e-01,9.99999e-01
8.840235012e-01,8.44603e-01,9.99999e-01,9.71779e-01,8.69130e-01,9.99999e-01
8.884436187e-01,8.61772e-01,9.99999e-01,9.88789e-01,8.71542e-01,9.99999e-01
8.928858368e-01,8.69940e-01,9.99999e-01,9.95454e-01,8.73912e-01,9.99999e-01
8.973502660e-01,8.75270e-01,9.99999e-01,9.98891e-01,8.76241e-01,9.99999e-01
9.018370173e-01,8.78424e-01,9.99999e-01,9.99877e-01,8.78531e-01,9.99999e-01
9.063462024e-01,8.78044e-01,9.99999e-01,9.96891e-01,8.80781e-01,9.99999e-01
9.108779334e-01,8.76669e-01,9.99999e-01,9.92837e-01,8.82992e-01,9.99999e-01
9.154323231e-01,8.83668e-01,9.99999e-01,9.98307e-01,8.85165e-01,9.99999e-01
9.200094847e-01,8.64970e-01,9.99999e-01,9.74831e-01,8.87301e-01,9.99999e-01
9.246095321e-01,8.58598e-01,9.99999e-01,9.65368e-01,8.89399e-01,9.99999e-01
9.292325798e-01,8.67134e-01,9.99999e-01,9.72711e-01,8.91460e-01,9.99999e-01
9.338787427e-01,8.69896e-01,9.99999e-01,9.73597e-01,8.93486e-01,9.99999e-01
9.385481364e-01,8.78100e-01,9.99999e-01,9.80595e-01,8.95476e-01,9.99999e-01
9.432408771e-01,8.86736e-01,9.99999e-01,9.88082e-01,8.97430e-01,9.99999e-01
9.479570815e-01,8.93846e-01,9.99999e-01,9.93878e-01,8.99351e-01,9.99999e-01
9.526968669e-01,8.98571e-01,9.99999e-01,9.97040e-01,9.01237e-01,9.99999e-01
9.574603512e-01,9.01947e-01,9.99999e-01,9.98733e-01,9.03090e-01,9.99999e-01
9.622476530e-01,9.04553e-01,9.99999e-01,9.99604e-01,9.04910e-01,9.99999e-01
9.670588912e-01,9.06591e-01,9.99999e-01,9.99881e-01,9.06698e-01,9.99999e-01
9.718941857e-01,9.08446e-01,9.99999e-01,9.99991e-01,9.08454e-01,9.99999e-01
9.767536566e-01,9.10178e-01,9.99999e-01,9.99999e-01,9.10178e-01,9.99999e-01
9.816374249e-01,9.11872e-01,9.99999e-01,9.99999e-01,9.11872e-01,9.99999e-01
9.865456120e-01,9.13535e-01,9.99999e-01,9.99999e-01,9.13535e-01,9.99999e-01
9.914783401e-01,9.15168e-01,9.99999e-01,9.99999e-01,9.15168e-01,9.99999e-01
9.964357318e-01,9.16772e-01,9.99999e-01,9.99999e-01,9.16772e-01,9.99999e-01
1.001417910e+00,9.18347e-01,9.99999e-01,9.99999e-01,9.18347e-01,9.99999e-01
1.006425000e+00,9.19894e-01,9.99999e-01,9.99999e-01,9.19894e-01,9.99999e-01
1.011457125e+00,9.21412e-01,9.99999e-01,9.99999e-01,9.21412e-01,9.99999e-01
1.016514411e+00,9.22903e-01,9.99999e-01,9.99999e-01,9.22903e-01,9.99999e-01
1.021596983e+00,9.24352e-01,9.99999e-01,9.99983e-01,9.24367e-01,9.99999e-01
1.026704968e+00,9.24689e-01,9.99999e-01,9.98795e-01,9.25804e-01,9.99999e-01
1.031838492e+00,9.09497e-01,9.99999e-01,9.80890e-01,9.27215e-01,9.99999e-01
1.036997685e+00,3.59719e-01,9.99999e-01,3.87378e-01,9.28600e-01,9.99999e-01
1.042182673e+00,4.47862e-01,9.99999e-01,4.81593e-01,9.29959e-01,9.99999e-01
1.047393587e+00,3.95420e-01,9.99999e-01,4.24592e-01,9.31294e-01,9.99999e-01
1.052630555e+00,1.06470e-01,9.99999e-01,1.14164e-01,9.32604e-01,9.99999e-01
1.057893707e+00,1.75917e-01,9.99999e-01,1.88370e-01,9.33891e-01,9.99999e-01
1.063183176e+00,2.81822e-01,9.99999e-01,3.01365e-01,9.35153e-01,9.99999e-01
1.068499092e+00,4.26580e-01,9.99999e-01,4.55557e-01,9.36392e-01,9.99999e-01
1.073841587e+00,5.70702e-01,9.99999e-01,6.08678e-01,9.37609e-01,9.99999e-01
1.079210795e+00,6.87105e-01,9.99999e-01,7.31894e-01,9.38803e-01,9.99999e-01
1.084606849e+00,7.93041e-01,9.99999e-01,8.43682e-01,9.39974e-01,9.99999e-01
1.090029883e+00,8.61975e-01,9.99999e-01,9.15898e-01,9.41124e-01,9.99999e-01
1.095480033e+00,9.02363e-01,9.99999e-01,9.57665e-01,9.42253e-01,9.99999e-01
1.100957433e+00,9.23946e-01,9.99999e-01,9.79418e-01,9.43361e-01,9.99999e-01
1.106462220e+00,9.36361e-01,9.99999e-01,9.91437e-01,9.44448e-01,9.99999e-01
1.111994531e+00,9.42508e-01,9.99999e-01,9.96819e-01,9.45515e-01,9.99999e-01
1.117554504e+00,9.45824e-01,9.99999e-01,9.99220e-01,9.46561e-01,9.99999e-01
1.123142276e+00,9.47540e-01,9.99999e-01,9.99948e-01,9.47589e-01,9.99999e-01
1.128757988e+00,9.48597e-01,9.99999e-01,9.99999e-01,9.48597e-01,9.99999e-01
1.134401778e+00,9.49586e-01,9.99999e-01,9.99999e-01,9.49586e-01,9.99999e-01
1.140073787e+00,9.50557e-01,9.99999e-01,9.99999e-01,9.50557e-01,9.99999e-01
1.145774156e+00,9.51510e-01,9.99999e-01,9.99999e-01,9.51510e-01,9.99999e-01
1.151503026e+00,9.52444e-01,9.99999e-01,9.99999e-01,9.52444e-01,9.99999e-01
1.157260541e+00,9.53361e-01,9.99999e-01,9.99999e-01,9.53361e-01,9.99999e-01
1.163046844e+00,9.54261e-01,9.99999e-01,9.99999e-01,9.54261e-01,9.99999e-01
1.168862078e+00,9.55144e-01,9.99999e-01,9.99999e-01,9.55144e-01,9.99999e-01
1.174706389e+00,9.56010e-01,9.99999e-01,9.99999e-01,9.56010e-01,9.99999e-01
1.180579921e+00,9.56860e-01,9.99999e-01,9.99999e-01,9.56860e-01,9.99999e-01
1.186482820e+00,9.57692e-01,9.99999e-01,9.99997e-01,9.57694e-01,9.99999e-01
1.192415234e+00,9.54358e-01,9.99999e-01,9.95666e-01,9.58512e-01,9.99999e-01
1.198377311e+00,5.86613e-01,9.99999e-01,6.11491e-01,9.59314e-01,9.99999e-01
1.204369197e+00,3.88986e-05,9.99999e-01,4.05150e-05,9.60102e-01,9.99999e-01
1.210391043e+00,1.02691e-14,9.99999e-01,1.06873e-14,9.60874e-01,9.99999e-01
1.216442998e+00,5.75608e-13,9.99999e-01,5.98573e-13,9.61632e-01,9.99999e-01
1.222525213e+00,9.77008e-13,9.99999e-01,1.01520e-12,9.62375e-01,9.99999e-01
1.228637839e+00,9.83237e-10,9.99999e-01,1.02090e-09,9.63105e-01,9.99999e-01
1.234781029e+00,4.24863e-07,9.99999e-01,4.40811e-07,9.63820e-01,9.99999e-01
1.240954934e+00,7.58372e-05,9.99999e-01,7.86267e-05,9.64522e-01,9.99999e-01
1.247159708e+00,5.08165e-03,9.99999e-01,5.26481e-03,9.65210e-01,9.99999e-01
1.253395507e+00,5.67748e-02,9.99999e-01,5.87800e-02,9.65886e-01,9.99999e-01
1.259662485e+00,1.95786e-01,9.99999e-01,2.02562e-01,9.66548e-01,9.99999e-01
1.265960797e+00,3.83772e-01,9.99999e-01,3.96787e-01,9.67198e-01,9.99999e-01
1.272290601e+00,6.45278e-01,9.99999e-01,6.66722e-01,9.67835e-01,9.99999e-01
1.278652054e+00,6.06223e-01,9.99999e-01,6.25966e-01,9.68460e-01,9.99999e-01
1.285045314e+00,8.97627e-02,9.99999e-01,9.26272e-02,9.69074e-01,9.99999e-01
1.291470541e+00,2.23006e-02,9.99999e-01,2.29980e-02,9.69675e-01,9.99999e-01
1.297927893e+00,1.05018e-01,9.99999e-01,1.08236e-01,9.70265e-01,9.99999e-01
1.304417533e+00,4.92421e-01,9.99999e-01,5.07209e-01,9.70844e-01,9.99999e-01
1.310939621e+00,1.58236e-01,9.99999e-01,1.62893e-01,9.71411e-01,9.99999e-01
1.317494319e+00,1.97802e-05,9.99999e-01,2.03507e-05,9.71968e-01,9.99999e-01
1.324081790e+00,3.28271e-04,9.99999e-01,3.37548e-04,9.72514e-01,9.99999e-01
1.330702199e+00,1.66208e-02,9.99999e-01,1.70811e-02,9.73050e-01,9.99999e-01
1.337355710e+00,1.07670e-02,9.99999e-01,1.10592e-02,9.73575e-01,9.99999e-01
1.344042489e+00,4.96383e-03,9.99999e-01,5.09585e-03,9.74090e-01,9.99999e-01
1.350762701e+00,1.40930e-02,9.99999e-01,1.44604e-02,9.74595e-01,9.99999e-01
1.357516515e+00,5.82277e-02,9.99999e-01,5.97151e-02,9.75091e-01,9.99999e-01
1.364304097e+00,1.74363e-01,9.99999e-01,1.78728e-01,9.75577e-01,9.99999e-01
1.371125618e+00,3.90087e-01,9.99999e-01,3.99657e-01,9.76053e-01,9.99999e-01
1.377981246e+00,4.74039e-01,9.99999e-01,4.85436e-01,9.76521e-01,9.99999e-01
1.384871152e+00,6.41208e-01,9.99999e-01,6.56317e-01,9.76979e-01,9.99999e-01
1.391795508e+00,6.62673e-01,9.99999e-01,6.77975e-01,9.77428e-01,9.99999e-01
1.398754485e+00,7.70384e-01,9.99999e-01,7.87819e-01,9.77869e-01,9.99999e-01
1.405748258e+00,8.20154e-01,9.99999e-01,8.38344e-01,9.78302e-01,9.99999e-01
1.412776999e+00,8.75832e-01,9.99999e-01,8.94869e-01,9.78726e-01,9.99999e-01
1.419840884e+00,8.28564e-01,9.99999e-01,8.46214e-01,9.79141e-01,9.99999e-01
1.426940089e+00,1.26366e-01,9.99999e-01,1.29005e-01,9.79549e-01,9.99999e-01
1.434074789e+00,2.65916e-197,9.99999e-01,2.71356e-197,9.79949e-01,9.99999e-01
1.441245163e+00,1.37828e-290,9.99999e-01,1.40591e-290,9.80341e-01,9.99999e-01
1.448451389e+00,4.54497e-239,9.99999e-01,4.63429e-239,9.80726e-01,9.99999e-01
1.455693646e+00,1.88456e-107,9.99999e-01,1.92085e-107,9.81103e-01,9.99999e-01
1.462972114e+00,7.59172e-53,9.99999e-01,7.73502e-53,9.81472e-01,9.99999e-01
1.470286975e+00,4.67002e-23,9.99999e-01,4.75641e-23,9.81835e-01,9.99999e-01
