#,Wave/freq,Total,O2,CO2,Rayleigh,CIA
4.000000000e-01,4.02057e-04,9.99999e-01,9.99999e-01,4.02057e-04,9.99999e-01
4.020000000e-01,4.69276e-04,9.99999e-01,9.99999e-01,4.69276e-04,9.99999e-01
4.040100000e-01,5.45979e-04,9.99999e-01,9.99999e-01,5.45979e-04,9.99999e-01
4.060300500e-01,6.33322e-04,9.99999e-01,9.99999e-01,6.33322e-04,9.99999e-01
4.080602003e-01,7.32488e-04,9.99999e-01,9.99999e-01,7.32488e-04,9.99999e-01
4.101005013e-01,8.44751e-04,9.99999e-01,9.99999e-01,8.44751e-04,9.99999e-01
4.121510038e-01,9.71479e-04,9.99999e-01,9.99999e-01,9.71479e-04,9.99999e-01
4.142117588e-01,1.11414e-03,9.99999e-01,9.99999e-01,1.11414e-03,9.99999e-01
4.162828176e-01,1.27429e-03,9.99999e-01,9.99999e-01,1.27429e-03,9.99999e-01
4.183642317e-01,1.45361e-03,9.99999e-01,9.99999e-01,1.45361e-03,9.99999e-01
4.204560528e-01,1.65385e-03,9.99999e-01,9.99999e-01,1.65385e-03,9.99999e-01
4.225583331e-01,1.87688e-03,9.99999e-01,9.99999e-01,1.87688e-03,9.99999e-01
4.246711247e-01,2.12468e-03,9.99999e-01,9.99999e-01,2.12468e-03,9.99999e-01
4.267944804e-01,2.39931e-03,9.99999e-01,9.99999e-01,2.39931e-03,9.99999e-01
4.289284528e-01,2.70294e-03,9.99999e-01,9.99999e-01,2.70294e-03,9.99999e-01
4.310730950e-01,3.03783e-03,9.99999e-01,9.99999e-01,3.03783e-03,9.99999e-01
4.332284605e-01,3.40635e-03,9.99999e-01,9.99999e-01,3.40635e-03,9.99999e-01
4.353946028e-01,3.81095e-03,9.99999e-01,9.99999e-01,3.81095e-03,9.99999e-01
4.375715758e-01,4.25416e-03,9.99999e-01,9.99999e-01,4.25416e-03,9.99999e-01
4.397594337e-01,4.73860e-03,9.99999e-01,9.99999e-01,4.73860e-03,9.99999e-01
4.419582309e-01,5.26698e-03,9.99999e-01,9.99999e-01,5.26698e-03,9.99999e-01
4.441680220e-01,5.84207e-03,9.99999e-01,9.99999e-01,5.84207e-03,9.99999e-01
4.463888621e-01,6.46670e-03,9.99999e-01,9.99999e-01,6.46670e-03,9.99999e-01
4.486208064e-01,7.14376e-03,9.99999e-01,9.99999e-01,7.14376e-03,9.99999e-01
4.508639105e-01,7.87621e-03,9.99999e-01,9.99999e-01,7.87621e-03,9.99999e-01
4.531182300e-01,8.66703e-03,9.99999e-01,9.99999e-01,8.66703e-03,9.99999e-01
4.553838212e-01,9.51924e-03,9.99999e-01,9.99999e-01,9.51924e-03,9.99999e-01
4.576607403e-01,1.04359e-02,9.99999e-01,9.99999e-01,1.04359e-02,9.99999e-01
4.599490440e-01,1.14201e-02,9.99999e-01,9.99999e-01,1.14201e-02,9.99999e-01
4.622487892e-01,1.24748e-02,9.99999e-01,9.99999e-01,1.24748e-02,9.99999e-01
4.645600332e-01,1.36033e-02,9.99999e-01,9.99999e-01,1.36033e-02,9.99999e-01
4.668828333e-01,1.48084e-02,9.99999e-01,9.99999e-01,1.48084e-02,9.99999e-01
4.692172475e-01,1.60933e-02,9.99999e-01,9.99999e-01,1.60933e-02,9.99999e-01
4.715633337e-01,1.74610e-02,9.99999e-01,9.99999e-01,1.74610e-02,9.99999e-01
4.739211504e-01,1.89144e-02,9.99999e-01,9.99999e-01,1.89144e-02,9.99999e-01
4.762907561e-01,2.04564e-02,9.99999e-01,9.99999e-01,2.04564e-02,9.99999e-01
4.786722099e-01,2.20899e-02,9.99999e-01,9.99999e-01,2.20899e-02,9.99999e-01
4.810655710e-01,2.38178e-02,9.99999e-01,9.99999e-01,2.38178e-02,9.99999e-01
4.834708988e-01,2.56425e-02,9.99999e-01,9.99999e-01,2.56425e-02,9.99999e-01
4.858882533e-01,2.75669e-02,9.99999e-01,9.99999e-01,2.75669e-02,9.99999e-01
4.883176946e-01,2.95933e-02,9.99999e-01,9.99999e-01,2.95933e-02,9.99999e-01
4.907592831e-01,3.17243e-02,9.99999e-01,9.99999e-01,3.17243e-02,9.99999e-01
4.932130795e-01,3.39620e-02,9.99999e-01,9.99999e-01,3.39620e-02,9.99999e-01
4.956791449e-01,3.63086e-02,9.99999e-01,9.99999e-01,3.63086e-02,9.99999e-01
4.981575406e-01,3.87662e-02,9.99999e-01,9.99999e-01,3.87662e-02,9.99999e-01
5.006483283e-01,4.13366e-02,9.99999e-01,9.99999e-01,4.13366e-02,9.99999e-01
5.031515699e-01,4.40215e-02,9.99999e-01,9.99999e-01,4.40215e-02,9.99999e-01
5.056673278e-01,4.68227e-02,9.99999e-01,9.99999e-01,4.68227e-02,9.99999e-01
5.081956644e-01,4.97414e-02,9.99999e-01,9.99999e-01,4.97414e-02,9.99999e-01
5.107366428e-01,5.27790e-02,9.99999e-01,9.99999e-01,5.27790e-02,9.99999e-01
5.132903260e-01,5.59365e-02,9.99999e-01,9.99999e-01,5.59365e-02,9.99999e-01
5.158567776e-01,5.92150e-02,9.99999e-01,9.99999e-01,5.92150e-02,9.99999e-01
5.184360615e-01,6.26151e-02,9.99999e-01,9.99999e-01,6.26151e-02,9.99999e-01
5.210282418e-01,6.61375e-02,9.99999e-01,9.99999e-01,6.61375e-02,9.99999e-01
5.236333830e-01,6.97826e-02,9.99999e-01,9.99999e-01,6.97826e-02,9.99999e-01
5.262515499e-01,7.35505e-02,9.99999e-01,9.99999e-01,7.35505e-02,9.99999e-01
5.288828077e-01,7.74414e-02,9.99999e-01,9.99999e-01,7.74414e-02,9.99999e-01
5.315272217e-01,8.14552e-02,9.99999e-01,9.99999e-01,8.14552e-02,9.99999e-01
5.341848578e-01,8.55916e-02,9.99999e-01,9.99999e-01,8.55916e-02,9.99999e-01
5.368557821e-01,8.98500e-02,9.99999e-01,9.99999e-01,8.98500e-02,9.99999e-01
5.395400610e-01,9.42299e-02,9.99999e-01,9.99999e-01,9.42299e-02,9.99999e-01
5.422377613e-01,9.87304e-02,9.99999e-01,9.99999e-01,9.87304e-02,9.99999e-01
5.449489501e-01,1.03351e-01,9.99999e-01,9.99999e-01,1.03351e-01,9.99999e-01
5.476736949e-01,1.08089e-01,9.99999e-01,9.99999e-01,1.08089e-01,9.99999e-01
5.504120634e-01,1.12945e-01,9.99999e-01,9.99999e-01,1.12945e-01,9.99999e-01
5.531641237e-01,1.17917e-01,9.99999e-01,9.99999e-01,1.17917e-01,9.99999e-01
5.559299443e-01,1.23003e-01,9.99999e-01,9.99999e-01,1.23003e-01,9.99999e-01
5.587095940e-01,1.28201e-01,9.99999e-01,9.99999e-01,1.28201e-01,9.99999e-01
5.615031420e-01,1.33510e-01,9.99999e-01,9.99999e-01,1.33510e-01,9.99999e-01
5.643106577e-01,1.38927e-01,9.99999e-01,9.99999e-01,1.38927e-01,9.99999e-01
5.671322110e-01,1.44450e-01,9.99999e-01,9.99999e-01,1.44450e-01,9.99999e-01
5.699678720e-01,1.50078e-01,9.99999e-01,9.99999e-01,1.50078e-01,9.99999e-01
5.728177114e-01,1.55806e-01,9.99999e-01,9.99999e-01,1.55806e-01,9.99999e-01
5.756818000e-01,1.61634e-01,9.99999e-01,9.99999e-01,1.61634e-01,9.99999e-01
5.785602090e-01,1.67559e-01,9.99999e-01,9.99999e-01,1.67559e-01,9.99999e-01
5.814530100e-01,1.73577e-01,9.99999e-01,9.99999e-01,1.73577e-01,9.99999e-01
5.843602750e-01,1.79686e-01,9.99999e-01,9.99999e-01,1.79686e-01,9.99999e-01
5.872820764e-01,1.85883e-01,9.99999e-01,9.99999e-01,1.85883e-01,9.99999e-01
5.902184868e-01,1.92165e-01,9.99999e-01,9.99999e-01,1.92165e-01,9.99999e-01
5.931695792e-01,1.98528e-01,9.99999e-01,9.99999e-01,1.98528e-01,9.99999e-01
5.961354271e-01,2.04971e-01,9.99999e-01,9.99999e-01,2.04971e-01,9.99999e-01
5.991161043e-01,2.11489e-01,9.99999e-01,9.99999e-01,2.11489e-01,9.99999e-01
6.021116848e-01,2.18080e-01,9.99999e-01,9.99999e-01,2.18080e-01,9.99999e-01
6.051222432e-01,2.24739e-01,9.99999e-01,9.99999e-01,2.24739e-01,9.99999e-01
6.081478544e-01,2.31465e-01,9.99999e-01,9.99999e-01,2.31465e-01,9.99999e-01
6.111885937e-01,2.38253e-01,9.99999e-01,9.99999e-01,2.38253e-01,9.99999e-01
6.142445367e-01,2.45100e-01,9.99999e-01,9.99999e-01,2.45100e-01,9.99999e-01
6.173157594e-01,2.52003e-01,9.99999e-01,9.99999e-01,2.52003e-01,9.99999e-01
6.204023382e-01,2.58958e-01,9.99999e-01,9.99999e-01,2.58958e-01,9.99999e-01
6.235043498e-01,2.65962e-01,9.99999e-01,9.99999e-01,2.65962e-01,9.99999e-01
6.266218716e-01,2.73011e-01,9.99999e-01,9.99999e-01,2.73011e-01,9.99999e-01
6.297549810e-01,2.80103e-01,9.99999e-01,9.99999e-01,2.80103e-01,9.99999e-01
6.329037559e-01,2.87233e-01,9.99999e-01,9.99999e-01,2.87233e-01,9.99999e-01
6.360682746e-01,2.94398e-01,9.99999e-01,9.99999e-01,2.94398e-01,9.99999e-01
6.392486160e-01,3.01596e-01,9.99999e-01,9.99999e-01,3.01596e-01,9.99999e-01
6.424448591e-01,3.08822e-01,9.99999e-01,9.99999e-01,3.08822e-01,9.99999e-01
6.456570834e-01,3.16073e-01,9.99999e-01,9.99999e-01,3.16073e-01,9.99999e-01
6.488853688e-01,3.23346e-01,9.99999e-01,9.99999e-01,3.23346e-01,9.99999e-01
6.521297956e-01,3.30638e-01,9.99999e-01,9.99999e-01,3.30638e-01,9.99999e-01
6.553904446e-01,3.37946e-01,9.99999e-01,9.99999e-01,3.37946e-01,9.99999e-01
6.586673968e-01,3.45266e-01,9.99999e-01,9.99999e-01,3.45266e-01,9.99999e-01
6.619607338e-01,3.52595e-01,9.99999e-01,9.99999e-01,3.52595e-01,9.99999e-01
6.652705375e-01,3.59930e-01,9.99999e-01,9.99999e-01,3.59930e-01,9.99999e-01
6.685968902e-01,3.67269e-01,9.99999e-01,9.99999e-01,3.67269e-01,9.99999e-01
6.719398746e-01,3.74608e-01,9.99999e-01,9.99999e-01,3.74608e-01,9.99999e-01
6.752995740e-01,3.81944e-01,9.99999e-01,9.99999e-01,3.81944e-01,9.99999e-01
6.786760719e-01,3.89275e-01,9.99999e-01,9.99999e-01,3.89275e-01,9.99999e-01
6.820694522e-01,3.96597e-01,9.99999e-01,9.99999e-01,3.96597e-01,9.99999e-01
6.854797995e-01,4.03909e-01,9.99999e-01,9.99999e-01,4.03909e-01,9.99999e-01
6.889071985e-01,4.11207e-01,9.99999e-01,9.99999e-01,4.11207e-01,9.99999e-01
6.923517345e-01,4.18488e-01,9.99999e-01,9.99999e-01,4.18488e-01,9.99999e-01
6.958134932e-01,4.25751e-01,9.99999e-01,9.99999e-01,4.25751e-01,9.99999e-01
6.992925606e-01,4.32993e-01,9.99999e-01,9.99999e-01,4.32993e-01,9.99999e-01
7.027890234e-01,4.40212e-01,9.99999e-01,9.99999e-01,4.40212e-01,9.99999e-01
7.063029686e-01,4.47404e-01,9.99999e-01,9.99999e-01,4.47404e-01,9.99999e-01
7.098344834e-01,4.54569e-01,9.99999e-01,9.99999e-01,4.54569e-01,9.99999e-01
7.133836558e-01,4.61703e-01,9.99999e-01,9.99999e-01,4.61703e-01,9.99999e-01
7.169505741e-01,4.68805e-01,9.99999e-01,9.99999e-01,4.68805e-01,9.99999e-01
7.205353270e-01,4.75873e-01,9.99999e-01,9.99999e-01,4.75873e-01,9.99999e-01
7.241380036e-01,4.82905e-01,9.99999e-01,9.99999e-01,4.82905e-01,9.99999e-01
7.277586936e-01,4.89898e-01,9.99999e-01,9.99999e-01,4.89898e-01,9.99999e-01
7.313974871e-01,4.96852e-01,9.99999e-01,9.99999e-01,4.96852e-01,9.99999e-01
7.350544745e-01,5.03764e-01,9.99999e-01,9.99999e-01,5.03764e-01,9.99999e-01
7.387297469e-01,5.10633e-01,9.99999e-01,9.99999e-01,5.10633e-01,9.99999e-01
7.424233956e-01,5.17458e-01,9.99999e-01,9.99999e-01,5.17458e-01,9.99999e-01
7.461355126e-01,5.24236e-01,9.99999e-01,9.99999e-01,5.24236e-01,9.99999e-01
7.498661902e-01,5.30966e-01,9.99999e-01,9.99999e-01,5.30966e-01,9.99999e-01
7.536155211e-01,5.37647e-01,9.99999e-01,9.99999e-01,5.37647e-01,9.99999e-01
7.573835987e-01,5.44278e-01,9.99999e-01,9.99999e-01,5.44278e-01,9.99999e-01
7.611705167e-01,5.50857e-01,9.99999e-01,9.99999e-01,5.50857e-01,9.99999e-01
7.649763693e-01,5.57383e-01,9.99999e-01,9.99999e-01,5.57383e-01,9.99999e-01
7.688012511e-01,5.63856e-01,9.99999e-01,9.99999e-01,5.63856e-01,9.99999e-01
7.726452574e-01,5.70273e-01,9.99999e-01,9.99999e-01,5.70273e-01,9.99999e-01
7.765084837e-01,5.76635e-01,9.99999e-01,9.99999e-01,5.76635e-01,9.99999e-01
7.803910261e-01,5.66904e-01,9.99999e-01,9.72490e-01,5.82940e-01,9.99999e-01
7.842929812e-01,5.25638e-01,9.99999e-01,8.92141e-01,5.89187e-01,9.99999e-01
7.882144461e-01,5.26198e-01,9.99999e-01,8.83807e-01,5.95376e-01,9.99999e-01
7.921555184e-01,5.59970e-01,9.99999e-01,9.30947e-01,6.01506e-01,9.99999e-01
7.961162960e-01,5.79476e-01,9.99999e-01,9.53751e-01,6.07575e-01,9.99999e-01
8.000968774e-01,5.98000e-01,9.99999e-01,9.74599e-01,6.13585e-01,9.99999e-01
8.040973618e-01,6.11375e-01,9.99999e-01,9.86830e-01,6.19533e-01,9.99999e-01
8.081178486e-01,6.21608e-01,9.99999e-01,9.93905e-01,6.25420e-01,9.99999e-01
8.121584379e-01,6.30070e-01,9.99999e-01,9.98138e-01,6.31245e-01,9.99999e-01
8.162192301e-01,6.36745e-01,9.99999e-01,9.99588e-01,6.37007e-01,9.99999e-01
8.203003262e-01,6.42704e-01,9.99999e-01,9.99994e-01,6.42707e-01,9.99999e-01
8.244018279e-01,6.48344e-01,9.99999e-01,9.99999e-01,6.48344e-01,9.99999e-01
8.285238370e-01,6.53917e-01,9.99999e-01,9.99999e-01,6.53917e-01,9.99999e-01
8.326664562e-01,6.59427e-01,9.99999e-01,9.99999e-01,6.59427e-01,9.99999e-01
8.368297885e-01,6.64873e-01,9.99999e-01,9.99999e-01,6.64873e-01,9.99999e-01
8.410139374e-01,6.70255e-01,9.99999e-01,9.99999e-01,6.70255e-01,9.99999e-01
8.452190071e-01,6.75572e-01,9.99999e-01,9.99999e-01,6.75572e-01,9.99999e-01
8.494451021e-01,6.80826e-01,9.99999e-01,9.99999e-01,6.80826e-01,9.99999e-01
8.536923276e-01,6.86016e-01,9.99999e-01,9.99999e-01,6.86016e-01,9.99999e-01
8.579607893e-01,6.91142e-01,9.99999e-01,9.99999e-01,6.91142e-01,9.99999e-01
8.622505932e-01,6.96203e-01,9.99999e-01,9.99999e-01,6.96203e-01,9.99999e-01
8.665618462e-01,6.55423e-01,9.99999e-01,9.34714e-01,7.01201e-01,9.99999e-01
8.708946554e-01,5.26348e-01,9.99999e-01,7.45393e-01,7.06134e-01,9.99999e-01
8.752491287e-01,5.62562e-01,9.99999e-01,7.91221e-01,7.11004e-01,9.99999e-01
8.796253743e-01,6.29910e-01,9.99999e-01,8.79995e-01,7.15811e-01,9.99999e-01
8.840235012e-01,6.74445e-01,9.99999e-01,9.36009e-01,7.20553e-01,9.99999e-01
8.884436187e-01,7.06682e-01,9.99999e-01,9.74420e-01,7.25233e-01,9.99999e-01
8.928858368e-01,7.22220e-01,9.99999e-01,9.89545e-01,7.29850e-01,9.99999e-01
8.973502660e-01,7.32545e-01,9.99999e-01,9.97468e-01,7.34404e-01,9.99999e-01
9.018370173e-01,7.38690e-01,9.99999e-01,9.99721e-01,7.38896e-01,9.99999e-01
9.063462024e-01,7.37782e-01,9.99999e-01,9.92542e-01,7.43325e-01,9.99999e-01
9.108779334e-01,7.35351e-01,9.99999e-01,9.83492e-01,7.47693e-01,9.99999e-01
9.154323231e-01,7.49110e-01,9.99999e-01,9.96156e-01,7.52000e-01,9.99999e-01
9.200094847e-01,7.12892e-01,9.99999e-01,9.42672e-01,7.56245e-01,9.99999e-01
9.246095321e-01,7.00803e-01,9.99999e-01,9.21587e-01,7.60430e-01,9.99999e-01
9.292325798e-01,7.16424e-01,9.99999e-01,9.37046e-01,7.64555e-01,9.99999e-01
9.338787427e-01,7.22461e-01,9.99999e-01,9.39944e-01,7.68620e-01,9.99999e-01
9.385481364e-01,7.38263e-01,9.99999e-01,9.55524e-01,7.72626e-01,9.99999e-01
9.432408771e-01,7.55324e-01,9.99999e-01,9.72636e-01,7.76573e-01,9.99999e-01
9.479570815e-01,7.69407e-01,9.99999e-01,9.85836e-01,7.80461e-01,9.99999e-01
9.526968669e-01,7.78931e-01,9.99999e-01,9.93164e-01,7.84292e-01,9.99999e-01
9.574603512e-01,7.85760e-01,9.99999e-01,9.97075e-01,7.88065e-01,9.99999e-01
9.622476530e-01,7.91060e-01,9.99999e-01,9.99088e-01,7.91781e-01,9.99999e-01
9.670588912e-01,7.95224e-01,9.99999e-01,9.99727e-01,7.95441e-01,9.99999e-01
9.718941857e-01,7.99030e-01,9.99999e-01,9.99980e-01,7.99045e-01,9.99999e-01
9.767536566e-01,8.02593e-01,9.99999e-01,9.99999e-01,8.02593e-01,9.99999e-01
9.816374249e-01,8.06087e-01,9.99999e-01,9.99999e-01,8.06087e-01,9.99999e-01
9.865456120e-01,8.09527e-01,9.99999e-01,9.99999e-01,8.09527e-01,9.99999e-01
9.914783401e-01,8.12912e-01,9.99999e-01,9.99999e-01,8.12912e-01,9.99999e-01
9.964357318e-01,8.16245e-01,9.99999e-01,9.99999e-01,8.16245e-01,9.99999e-01
1.001417910e+00,8.19525e-01,9.99999e-01,9.99999e-01,8.19525e-01,9.99999e-01
1.006425000e+00,8.22753e-01,9.99999e-01,9.99999e-01,8.22753e-01,9.99999e-01
1.011457125e+00,8.25930e-01,9.99999e-01,9.99999e-01,8.25930e-01,9.99999e-01
1.016514411e+00,8.29056e-01,9.99999e-01,9.99999e-01,8.29056e-01,9.99999e-01
1.021596983e+00,8.32094e-01,9.99999e-01,9.99953e-01,8.32132e-01,9.99999e-01
1.026704968e+00,8.32716e-01,9.99999e-01,9.97076e-01,8.35158e-01,9.99999e-01
1.031838492e+00,8.04451e-01,9.99999e-01,9.59810e-01,8.38135e-01,9.99999e-01
1.036997685e+00,1.63535e-01,9.99999e-01,1.94438e-01,8.41063e-01,9.99999e-01
1.042182673e+00,1.65567e-01,9.99999e-01,1.96182e-01,8.43943e-01,9.99999e-01
1.047393587e+00,1.70836e-01,9.99999e-01,2.01748e-01,8.46776e-01,9.99999e-01
1.052630555e+00,1.03657e-02,9.99999e-01,1.22013e-02,8.49563e-01,9.99999e-01
1.057893707e+00,2.36690e-02,9.99999e-01,2.77706e-02,8.52303e-01,9.99999e-01
1.063183176e+00,6.17691e-02,9.99999e-01,7.22447e-02,8.54998e-01,9.99999e-01
1.068499092e+00,1.41424e-01,9.99999e-01,1.64897e-01,8.57648e-01,9.99999e-01
1.073841587e+00,2.77109e-01,9.99999e-01,3.22125e-01,8.60253e-01,9.99999e-01
1.079210795e+00,4.21290e-01,9.99999e-01,4.88274e-01,8.62815e-01,9.99999e-01
1.084606849e+00,5.84582e-01,9.99999e-01,6.75557e-01,8.65333e-01,9.99999e-01
1.090029883e+00,7.07901e-01,9.99999e-01,8.15733e-01,8.67809e-01,9.99999e-01
1.095480033e+00,7.87349e-01,9.99999e-01,9.04746e-01,8.70242e-01,9.99999e-01
1.100957433e+00,8.31548e-01,9.99999e-01,9.52915e-01,8.72635e-01,9.99999e-01
1.106462220e+00,8.57750e-01,9.99999e-01,9.80300e-01,8.74986e-01,9.99999e-01
1.111994531e+00,8.70852e-01,9.99999e-01,9.92653e-01,8.77297e-01,9.99999e-01
1.117554504e+00,8.77998e-01,9.99999e-01,9.98213e-01,8.79569e-01,9.99999e-01
1.123142276e+00,8.81699e-01,9.99999e-01,9.99883e-01,8.81801e-01,9.99999e-01
1.128757988e+00,8.83995e-01,9.99999e-01,9.99999e-01,8.83995e-01,9.99999e-01
1.134401778e+00,8.86150e-01,9.99999e-01,9.99999e-01,8.86150e-01,9.99999e-01
1.140073787e+00,8.88268e-01,9.99999e-01,9.99999e-01,8.88268e-01,9.99999e-01
1.145774156e+00,8.90350e-01,9.99999e-01,9.99999e-01,8.90350e-01,9.99999e-01
1.151503026e+00,8.92395e-01,9.99999e-01,9.99999e-01,8.92395e-01,9.99999e-01
1.157260541e+00,8.94404e-01,9.99999e-01,9.99999e-01,8.94404e-01,9.99999e-01
1.163046844e+00,8.96377e-01,9.99999e-01,9.99999e-01,8.96377e-01,9.99999e-01
1.168862078e+00,8.98316e-01,9.99999e-01,9.99999e-01,8.98316e-01,9.99999e-01
1.174706389e+00,9.00221e-01,9.99999e-01,9.99999e-01,9.00221e-01,9.99999e-01
1.180579921e+00,9.02092e-01,9.99999e-01,9.99999e-01,9.02092e-01,9.99999e-01
1.186482820e+00,9.03924e-01,9.99999e-01,9.99992e-01,9.03930e-01,9.99999e-01
1.192415234e+00,8.96218e-01,9.99999e-01,9.89492e-01,9.05735e-01,9.99999e-01
1.198377311e+00,5.15248e-01,9.99999e-01,5.67761e-01,9.07508e-01,9.99999e-01
1.204369197e+00,4.95571e-09,9.99999e-01,5.45033e-09,9.09249e-01,9.99999e-01
1.210391043e+00,2.19228e-31,9.99999e-01,2.40655e-31,9.10960e-01,9.99999e-01
1.216442998e+00,2.17837e-27,9.99999e-01,2.38689e-27,9.12639e-01,9.99999e-01
1.222525213e+00,5.31871e-27,9.99999e-01,5.81731e-27,9.14289e-01,9.99999e-01
1.228637839e+00,6.89794e-21,9.99999e-01,7.53125e-21,9.15908e-01,9.99999e-01
1.234781029e+00,7.67476e-14,9.99999e-01,8.36486e-14,9.17499e-01,9.99999e-01
1.240954934e+00,2.35280e-09,9.99999e-01,2.56000e-09,9.19061e-01,9.99999e-01
1.247159708e+00,1.85532e-05,9.99999e-01,2.01535e-05,9.20594e-01,9.99999e-01
1.253395507e+00,1.84225e-03,9.99999e-01,1.99789e-03,9.22100e-01,9.99999e-01
1.259662485e+00,2.64352e-02,9.99999e-01,2.86225e-02,9.23578e-01,9.99999e-01
1.265960797e+00,1.18571e-01,9.99999e-01,1.28180e-01,9.25030e-01,9.99999e-01
1.272290601e+00,3.92667e-01,9.99999e-01,4.23838e-01,9.26455e-01,9.99999e-01
1.278652054e+00,3.34779e-01,9.99999e-01,3.60809e-01,9.27854e-01,9.99999e-01
1.285045314e+00,1.02250e-02,9.99999e-01,1.10038e-02,9.29227e-01,9.99999e-01
1.291470541e+00,2.21354e-04,9.99999e-01,2.37868e-04,9.30575e-01,9.99999e-01
1.297927893e+00,2.16733e-02,9.99999e-01,2.32571e-02,9.31899e-01,9.99999e-01
1.304417533e+00,1.95418e-01,9.99999e-01,2.09407e-01,9.33198e-01,9.99999e-01
1.310939621e+00,3.29879e-02,9.99999e-01,3.53010e-02,9.34473e-01,9.99999e-01
1.317494319e+00,2.60060e-11,9.99999e-01,2.77923e-11,9.35725e-01,9.99999e-01
1.324081790e+00,2.13153e-06,9.99999e-01,2.27496e-06,9.36954e-01,9.99999e-01
1.330702199e+00,1.01557e-04,9.99999e-01,1.08251e-04,9.38159e-01,9.99999e-01
1.337355710e+00,1.49514e-04,9.99999e-01,1.59169e-04,9.39343e-01,9.99999e-01
1.344042489e+00,1.12142e-05,9.99999e-01,1.19236e-05,9.40505e-01,9.99999e-01
1.350762701e+00,7.02207e-05,9.99999e-01,7.45722e-05,9.41645e-01,9.99999e-01
1.357516515e+00,2.01671e-03,9.99999e-01,2.13914e-03,9.42764e-01,9.99999e-01
1.364304097e+00,1.84224e-02,9.99999e-01,1.95181e-02,9.43862e-01,9.99999e-01
1.371125618e+00,1.20526e-01,9.99999e-01,1.27549e-01,9.44940e-01,9.99999e-01
1.377981246e+00,1.77016e-01,9.99999e-01,1.87121e-01,9.45998e-01,9.99999e-01
1.384871152e+00,3.57431e-01,9.99999e-01,3.77421e-01,9.47035e-01,9.99999e-01
1.391795508e+00,3.85584e-01,9.99999e-01,4.06710e-01,9.48054e-01,9.99999e-01
1.398754485e+00,5.45093e-01,9.99999e-01,5.74354e-01,9.49053e-01,9.99999e-01
1.405748258e+00,6.31719e-01,9.99999e-01,6.64943e-01,9.50034e-01,9.99999e-01
1.412776999e+00,7.35209e-01,9.99999e-01,7.73092e-01,9.50997e-01,9.99999e-01
1.419840884e+00,6.62827e-01,9.99999e-01,6.96289e-01,9.51941e-01,9.99999e-01
1.426940089e+00,7.16458e-02,9.99999e-01,7.51896e-02,9.52867e-01,9.99999e-01
1.434074789e+00,0.00000e+00,9.99999e-01,0.00000e+00,9.53776e-01,9.99999e-01
1.441245163e+00,0.00000e+00,9.99999e-01,0.00000e+00,9.54668e-01,9.99999e-01
1.448451389e+00,0.00000e+00,9.99999e-01,0.00000e+00,9.55544e-01,9.99999e-01
1.455693646e+00,3.86723e-248,9.99999e-01,4.04352e-248,9.56402e-01,9.99999e-01
1.462972114e+00,1.63136e-120,9.99999e-01,1.70422e-120,9.57245e-01,9.99999e-01
1.470286975e+00,6.51687e-51,9.99999e-01,6.80207e-51,9.58071e-01,9.99999e-01
