#,Wave/freq,Total,O2,CO2,Rayleigh,CIA
4.000000000e-01,1.54468e-06,9.99999e-01,9.99999e-01,1.54468e-06,9.99999e-01
4.020000000e-01,2.01252e-06,9.99999e-01,9.99999e-01,2.01252e-06,9.99999e-01
4.040100000e-01,2.60769e-06,9.99999e-01,9.99999e-01,2.60769e-06,9.99999e-01
4.060300500e-01,3.36162e-06,9.99999e-01,9.99999e-01,3.36162e-06,9.99999e-01
4.080602003e-01,4.31184e-06,9.99999e-01,9.99999e-01,4.31184e-06,9.99999e-01
4.101005013e-01,5.50352e-06,9.99999e-01,9.99999e-01,5.50352e-06,9.99999e-01
4.121510038e-01,6.99079e-06,9.99999e-01,9.99999e-01,6.99079e-06,9.99999e-01
4.142117588e-01,8.83812e-06,9.99999e-01,9.99999e-01,8.83812e-06,9.99999e-01
4.162828176e-01,1.11220e-05,9.99999e-01,9.99999e-01,1.11220e-05,9.99999e-01
4.183642317e-01,1.39326e-05,9.99999e-01,9.99999e-01,1.39326e-05,9.99999e-01
4.204560528e-01,1.73760e-05,9.99999e-01,9.99999e-01,1.73760e-05,9.99999e-01
4.225583331e-01,2.15761e-05,9.99999e-01,9.99999e-01,2.15761e-05,9.99999e-01
4.246711247e-01,2.66770e-05,9.99999e-01,9.99999e-01,2.66770e-05,9.99999e-01
4.267944804e-01,3.28460e-05,9.99999e-01,9.99999e-01,3.28460e-05,9.99999e-01
4.289284528e-01,4.02757e-05,9.99999e-01,9.99999e-01,4.02757e-05,9.99999e-01
4.310730950e-01,4.91875e-05,9.99999e-01,9.99999e-01,4.91875e-05,9.99999e-01
4.332284605e-01,5.98344e-05,9.99999e-01,9.99999e-01,5.98344e-05,9.99999e-01
4.353946028e-01,7.25048e-05,9.99999e-01,9.99999e-01,7.25048e-05,9.99999e-01
4.375715758e-01,8.75255e-05,9.99999e-01,9.99999e-01,8.75255e-05,9.99999e-01
4.397594337e-01,1.05266e-04,9.99999e-01,9.99999e-01,1.05266e-04,9.99999e-01
4.419582309e-01,1.26141e-04,9.99999e-01,9.99999e-01,1.26141e-04,9.99999e-01
4.441680220e-01,1.50617e-04,9.99999e-01,9.99999e-01,1.50617e-04,9.99999e-01
4.463888621e-01,1.79214e-04,9.99999e-01,9.99999e-01,1.79214e-04,9.99999e-01
4.486208064e-01,2.12509e-04,9.99999e-01,9.99999e-01,2.12509e-04,9.99999e-01
4.508639105e-01,2.51142e-04,9.99999e-01,9.99999e-01,2.51142e-04,9.99999e-01
4.531182300e-01,2.95822e-04,9.99999e-01,9.99999e-01,2.95822e-04,9.99999e-01
4.553838212e-01,3.47325e-04,9.99999e-01,9.99999e-01,3.47325e-04,9.99999e-01
4.576607403e-01,4.06505e-04,9.99999e-01,9.99999e-01,4.06505e-04,9.99999e-01
4.599490440e-01,4.74291e-04,9.99999e-01,9.99999e-01,4.74291e-04,9.99999e-01
4.622487892e-01,5.51698e-04,9.99999e-01,9.99999e-01,5.51698e-04,9.99999e-01
4.645600332e-01,6.39824e-04,9.99999e-01,9.99999e-01,6.39824e-04,9.99999e-01
4.668828333e-01,7.39859e-04,9.99999e-01,9.99999e-01,7.39859e-04,9.99999e-01
4.692172475e-01,8.53082e-04,9.99999e-01,9.99999e-01,8.53082e-04,9.99999e-01
4.715633337e-01,9.80870e-04,9.99999e-01,9.99999e-01,9.80870e-04,9.99999e-01
4.739211504e-01,1.12469e-03,9.99999e-01,9.99999e-01,1.12469e-03,9.99999e-01
4.762907561e-01,1.28613e-03,9.99999e-01,9.99999e-01,1.28613e-03,9.99999e-01
4.786722099e-01,1.46684e-03,9.99999e-01,9.99999e-01,1.46684e-03,9.99999e-01
4.810655710e-01,1.66861e-03,9.99999e-01,9.99999e-01,1.66861e-03,9.99999e-01
4.834708988e-01,1.89330e-03,9.99999e-01,9.99999e-01,1.89330e-03,9.99999e-01
4.858882533e-01,2.14289e-03,9.99999e-01,9.99999e-01,2.14289e-03,9.99999e-01
4.883176946e-01,2.41947e-03,9.99999e-01,9.99999e-01,2.41947e-03,9.99999e-01
4.907592831e-01,2.72520e-03,9.99999e-01,9.99999e-01,2.72520e-03,9.99999e-01
4.932130795e-01,3.06235e-03,9.99999e-01,9.99999e-01,3.06235e-03,9.99999e-01
4.956791449e-01,3.43330e-03,9.99999e-01,9.99999e-01,3.43330e-03,9.99999e-01
4.981575406e-01,3.84050e-03,9.99999e-01,9.99999e-01,3.84050e-03,9.99999e-01
5.006483283e-01,4.28649e-03,9.99999e-01,9.99999e-01,4.28649e-03,9.99999e-01
5.031515699e-01,4.77391e-03,9.99999e-01,9.99999e-01,4.77391e-03,9.99999e-01
5.056673278e-01,5.30545e-03,9.99999e-01,9.99999e-01,5.30545e-03,9.99999e-01
5.081956644e-01,5.88389e-03,9.99999e-01,9.99999e-01,5.88389e-03,9.99999e-01
5.107366428e-01,6.51207e-03,9.99999e-01,9.99999e-01,6.51207e-03,9.99999e-01
5.132903260e-01,7.19289e-03,9.99999e-01,9.99999e-01,7.19289e-03,9.99999e-01
5.158567776e-01,7.92930e-03,9.99999e-01,9.99999e-01,7.92930e-03,9.99999e-01
5.184360615e-01,8.72429e-03,9.99999e-01,9.99999e-01,8.72429e-03,9.99999e-01
5.210282418e-01,9.58089e-03,9.99999e-01,9.99999e-01,9.58089e-03,9.99999e-01
5.236333830e-01,1.05021e-02,9.99999e-01,9.99999e-01,1.05021e-02,9.99999e-01
5.262515499e-01,1.14911e-02,9.99999e-01,9.99999e-01,1.14911e-02,9.99999e-01
5.288828077e-01,1.25509e-02,9.99999e-01,9.99999e-01,1.25509e-02,9.99999e-01
5.315272217e-01,1.36846e-02,9.99999e-01,9.99999e-01,1.36846e-02,9.99999e-01
5.341848578e-01,1.48952e-02,9.99999e-01,9.99999e-01,1.48952e-02,9.99999e-01
5.368557821e-01,1.61857e-02,9.99999e-01,9.99999e-01,1.61857e-02,9.99999e-01
5.395400610e-01,1.75593e-02,9.99999e-01,9.99999e-01,1.75593e-02,9.99999e-01
5.422377613e-01,1.90187e-02,9.99999e-01,9.99999e-01,1.90187e-02,9.99999e-01
5.449489501e-01,2.05670e-02,9.99999e-01,9.99999e-01,2.05670e-02,9.99999e-01
5.476736949e-01,2.22071e-02,9.99999e-01,9.99999e-01,2.22071e-02,9.99999e-01
5.504120634e-01,2.39415e-02,9.99999e-01,9.99999e-01,2.39415e-02,9.99999e-01
5.531641237e-01,2.57732e-02,9.99999e-01,9.99999e-01,2.57732e-02,9.99999e-01
5.559299443e-01,2.77045e-02,9.99999e-01,9.99999e-01,2.77045e-02,9.99999e-01
5.587095940e-01,2.97382e-02,9.99999e-01,9.99999e-01,2.97382e-02,9.99999e-01
5.615031420e-01,3.18765e-02,9.99999e-01,9.99999e-01,3.18765e-02,9.99999e-01
5.643106577e-01,3.41217e-02,9.99999e-01,9.99999e-01,3.41217e-02,9.99999e-01
5.671322110e-01,3.64760e-02,9.99999e-01,9.99999e-01,3.64760e-02,9.99999e-01
5.699678720e-01,3.89413e-02,9.99999e-01,9.99999e-01,3.89413e-02,9.99999e-01
5.728177114e-01,4.15196e-02,9.99999e-01,9.99999e-01,4.15196e-02,9.99999e-01
5.756818000e-01,4.42126e-02,9.99999e-01,9.99999e-01,4.42126e-02,9.99999e-01
5.785602090e-01,4.70219e-02,9.99999e-01,9.99999e-01,4.70219e-02,9.99999e-01
5.814530100e-01,4.99489e-02,9.99999e-01,9.99999e-01,4.99489e-02,9.99999e-01
5.843602750e-01,5.29948e-02,9.99999e-01,9.99999e-01,5.29948e-02,9.99999e-01
5.872820764e-01,5.61607e-02,9.99999e-01,9.99999e-01,5.61607e-02,9.99999e-01
5.902184868e-01,5.94476e-02,9.99999e-01,9.99999e-01,5.94476e-02,9.99999e-01
5.931695792e-01,6.28562e-02,9.99999e-01,9.99999e-01,6.28562e-02,9.99999e-01
5.961354271e-01,6.63871e-02,9.99999e-01,9.99999e-01,6.63871e-02,9.99999e-01
5.991161043e-01,7.00407e-02,9.99999e-01,9.99999e-01,7.00407e-02,9.99999e-01
6.021116848e-01,7.38172e-02,9.99999e-01,9.99999e-01,7.38172e-02,9.99999e-01
6.051222432e-01,7.77167e-02,9.99999e-01,9.99999e-01,7.77167e-02,9.99999e-01
6.081478544e-01,8.17390e-02,9.99999e-01,9.99999e-01,8.17390e-02,9.99999e-01
6.111885937e-01,8.58839e-02,9.99999e-01,9.99999e-01,8.58839e-02,9.99999e-01
6.142445367e-01,9.01508e-02,9.99999e-01,9.99999e-01,9.01508e-02,9.99999e-01
6.173157594e-01,9.45391e-02,9.99999e-01,9.99999e-01,9.45391e-02,9.99999e-01
6.204023382e-01,9.90480e-02,9.99999e-01,9.99999e-01,9.90480e-02,9.99999e-01
6.235043498e-01,1.03676e-01,9.99999e-01,9.99999e-01,1.03676e-01,9.99999e-01
6.266218716e-01,1.08423e-01,9.99999e-01,9.99999e-01,1.08423e-01,9.99999e-01
6.297549810e-01,1.13287e-01,9.99999e-01,9.99999e-01,1.13287e-01,9.99999e-01
6.329037559e-01,1.18267e-01,9.99999e-01,9.99999e-01,1.18267e-01,9.99999e-01
6.360682746e-01,1.23361e-01,9.99999e-01,9.99999e-01,1.23361e-01,9.99999e-01
6.392486160e-01,1.28567e-01,9.99999e-01,9.99999e-01,1.28567e-01,9.99999e-01
6.424448591e-01,1.33883e-01,9.99999e-01,9.99999e-01,1.33883e-01,9.99999e-01
6.456570834e-01,1.39308e-01,9.99999e-01,9.99999e-01,1.39308e-01,9.99999e-01
6.488853688e-01,1.44838e-01,9.99999e-01,9.99999e-01,1.44838e-01,9.99999e-01
6.521297956e-01,1.50473e-01,9.99999e-01,9.99999e-01,1.50473e-01,9.99999e-01
6.553904446e-01,1.56209e-01,9.99999e-01,9.99999e-01,1.56209e-01,9.99999e-01
6.586673968e-01,1.62044e-01,9.99999e-01,9.99999e-01,1.62044e-01,9.99999e-01
6.619607338e-01,1.67974e-01,9.99999e-01,9.99999e-01,1.67974e-01,9.99999e-01
6.652705375e-01,1.73999e-01,9.99999e-01,9.99999e-01,1.73999e-01,9.99999e-01
6.685968902e-01,1.80114e-01,9.99999e-01,9.99999e-01,1.80114e-01,9.99999e-01
6.719398746e-01,1.86317e-01,9.99999e-01,9.99999e-01,1.86317e-01,9.99999e-01
6.752995740e-01,1.92605e-01,9.99999e-01,9.99999e-01,1.92605e-01,9.99999e-01
6.786760719e-01,1.98974e-01,9.99999e-01,9.99999e-01,1.98974e-01,9.99999e-01
6.820694522e-01,2.05422e-01,9.99999e-01,9.99999e-01,2.05422e-01,9.99999e-01
6.854797995e-01,2.11945e-01,9.99999e-01,9.99999e-01,2.11945e-01,9.99999e-01
6.889071985e-01,2.18541e-01,9.99999e-01,9.99999e-01,2.18541e-01,9.99999e-01
6.923517345e-01,2.25205e-01,9.99999e-01,9.99999e-01,2.25205e-01,9.99999e-01
6.958134932e-01,2.31935e-01,9.99999e-01,9.99999e-01,2.31935e-01,9.99999e-01
6.992925606e-01,2.38727e-01,9.99999e-01,9.99999e-01,2.38727e-01,9.99999e-01
7.027890234e-01,2.45578e-01,9.99999e-01,9.99999e-01,2.45578e-01,9.99999e-01
7.063029686e-01,2.52485e-01,9.99999e-01,9.99999e-01,2.52485e-01,9.99999e-01
7.098344834e-01,2.59443e-01,9.99999e-01,9.99999e-01,2.59443e-01,9.99999e-01
7.133836558e-01,2.66451e-01,9.99999e-01,9.99999e-01,2.66451e-01,9.99999e-01
7.169505741e-01,2.73503e-01,9.99999e-01,9.99999e-01,2.73503e-01,9.99999e-01
7.205353270e-01,2.80597e-01,9.99999e-01,9.99999e-01,2.80597e-01,9.99999e-01
7.241380036e-01,2.87730e-01,9.99999e-01,9.99999e-01,2.87730e-01,9.99999e-01
7.277586936e-01,2.94898e-01,9.99999e-01,9.99999e-01,2.94898e-01,9.99999e-01
7.313974871e-01,3.02097e-01,9.99999e-01,9.99999e-01,3.02097e-01,9.99999e-01
7.350544745e-01,3.09325e-01,9.99999e-01,9.99999e-01,3.09325e-01,9.99999e-01
7.387297469e-01,3.16578e-01,9.99999e-01,9.99999e-01,3.16578e-01,9.99999e-01
7.424233956e-01,3.23853e-01,9.99999e-01,9.99999e-01,3.23853e-01,9.99999e-01
7.461355126e-01,3.31146e-01,9.99999e-01,9.99999e-01,3.31146e-01,9.99999e-01
7.498661902e-01,3.38455e-01,9.99999e-01,9.99999e-01,3.38455e-01,9.99999e-01
7.536155211e-01,3.45775e-01,9.99999e-01,9.99999e-01,3.45775e-01,9.99999e-01
7.573835987e-01,3.53105e-01,9.99999e-01,9.99999e-01,3.53105e-01,9.99999e-01
7.611705167e-01,3.60441e-01,9.99999e-01,9.99999e-01,3.60441e-01,9.99999e-01
7.649763693e-01,3.67779e-01,9.99999e-01,9.99999e-01,3.67779e-01,9.99999e-01
7.688012511e-01,3.75118e-01,9.99999e-01,9.99999e-01,3.75118e-01,9.99999e-01
7.726452574e-01,3.82454e-01,9.99999e-01,9.99999e-01,3.82454e-01,9.99999e-01
7.765084837e-01,3.89784e-01,9.99999e-01,9.99999e-01,3.89784e-01,9.99999e-01
7.803910261e-01,3.79786e-01,9.99999e-01,9.56384e-01,3.97106e-01,9.99999e-01
7.842929812e-01,3.33565e-01,9.99999e-01,8.24805e-01,4.04417e-01,9.99999e-01
7.882144461e-01,3.34733e-01,9.99999e-01,8.13023e-01,4.11714e-01,9.99999e-01
7.921555184e-01,3.70960e-01,9.99999e-01,8.85357e-01,4.18994e-01,9.99999e-01
7.961162960e-01,3.93038e-01,9.99999e-01,9.22071e-01,4.26256e-01,9.99999e-01
8.000968774e-01,4.14812e-01,9.99999e-01,9.56899e-01,4.33496e-01,9.99999e-01
8.040973618e-01,4.30801e-01,9.99999e-01,9.77508e-01,4.40713e-01,9.99999e-01
8.081178486e-01,4.43235e-01,9.99999e-01,9.89576e-01,4.47904e-01,9.99999e-01
8.121584379e-01,4.53608e-01,9.99999e-01,9.96796e-01,4.55066e-01,9.99999e-01
8.162192301e-01,4.61871e-01,9.99999e-01,9.99291e-01,4.62198e-01,9.99999e-01
8.203003262e-01,4.69294e-01,9.99999e-01,9.99989e-01,4.69298e-01,9.99999e-01
8.244018279e-01,4.76364e-01,9.99999e-01,9.99999e-01,4.76364e-01,9.99999e-01
8.285238370e-01,4.83393e-01,9.99999e-01,9.99999e-01,4.83393e-01,9.99999e-01
8.326664562e-01,4.90384e-01,9.99999e-01,9.99999e-01,4.90384e-01,9.99999e-01
8.368297885e-01,4.97334e-01,9.99999e-01,9.99999e-01,4.97334e-01,9.99999e-01
8.410139374e-01,5.04244e-01,9.99999e-01,9.99999e-01,5.04244e-01,9.99999e-01
8.452190071e-01,5.11110e-01,9.99999e-01,9.99999e-01,5.11110e-01,9.99999e-01
8.494451021e-01,5.17931e-01,9.99999e-01,9.99999e-01,5.17931e-01,9.99999e-01
8.536923276e-01,5.24705e-01,9.99999e-01,9.99999e-01,5.24705e-01,9.99999e-01
8.579607893e-01,5.31432e-01,9.99999e-01,9.99999e-01,5.31432e-01,9.99999e-01
8.622505932e-01,5.38110e-01,9.99999e-01,9.99999e-01,5.38110e-01,9.99999e-01
8.665618462e-01,4.96395e-01,9.99999e-01,9.11255e-01,5.44737e-01,9.99999e-01
8.708946554e-01,3.38288e-01,9.99999e-01,6.13604e-01,5.51312e-01,9.99999e-01
8.752491287e-01,3.76021e-01,9.99999e-01,6.74070e-01,5.57835e-01,9.99999e-01
8.796253743e-01,4.53999e-01,9.99999e-01,8.04529e-01,5.64304e-01,9.99999e-01
8.840235012e-01,5.09687e-01,9.99999e-01,8.93062e-01,5.70717e-01,9.99999e-01
8.884436187e-01,5.51991e-01,9.99999e-01,9.56531e-01,5.77075e-01,9.99999e-01
8.928858368e-01,5.72946e-01,9.99999e-01,9.82121e-01,5.83376e-01,9.99999e-01
8.973502660e-01,5.87055e-01,9.99999e-01,9.95649e-01,5.89619e-01,9.99999e-01
9.018370173e-01,5.95519e-01,9.99999e-01,9.99520e-01,5.95804e-01,9.99999e-01
9.063462024e-01,5.94373e-01,9.99999e-01,9.87445e-01,6.01930e-01,9.99999e-01
9.108779334e-01,5.90903e-01,9.99999e-01,9.71886e-01,6.07995e-01,9.99999e-01
9.154323231e-01,6.09941e-01,9.99999e-01,9.93387e-01,6.14001e-01,9.99999e-01
9.200094847e-01,5.62721e-01,9.99999e-01,9.07694e-01,6.19945e-01,9.99999e-01
9.246095321e-01,5.44289e-01,9.99999e-01,8.69710e-01,6.25827e-01,9.99999e-01
9.292325798e-01,5.65829e-01,9.99999e-01,8.95797e-01,6.31648e-01,9.99999e-01
9.338787427e-01,5.73480e-01,9.99999e-01,8.99708e-01,6.37406e-01,9.99999e-01
9.385481364e-01,5.94973e-01,9.99999e-01,9.25161e-01,6.43101e-01,9.99999e-01
9.432408771e-01,6.18608e-01,9.99999e-01,9.53562e-01,6.48734e-01,9.99999e-01
9.479570815e-01,6.38506e-01,9.99999e-01,9.75857e-01,6.54302e-01,9.99999e-01
9.526968669e-01,6.52095e-01,9.99999e-01,9.88309e-01,6.59808e-01,9.99999e-01
9.574603512e-01,6.61915e-01,9.99999e-01,9.94988e-01,6.65249e-01,9.99999e-01
9.622476530e-01,6.69578e-01,9.99999e-01,9.98435e-01,6.70627e-01,9.99999e-01
9.670588912e-01,6.75624e-01,9.99999e-01,9.99531e-01,6.75940e-01,9.99999e-01
9.718941857e-01,6.81167e-01,9.99999e-01,9.99967e-01,6.81189e-01,9.99999e-01
9.767536566e-01,6.86375e-01,9.99999e-01,9.99999e-01,6.86375e-01,9.99999e-01
9.816374249e-01,6.91496e-01,9.99999e-01,9.99999e-01,6.91496e-01,9.99999e-01
9.865456120e-01,6.96553e-01,9.99999e-01,9.99999e-01,6.96553e-01,9.99999e-01
9.914783401e-01,7.01546e-01,9.99999e-01,9.99999e-01,7.01546e-01,9.99999e-01
9.964357318e-01,7.06475e-01,9.99999e-01,9.99999e-01,7.06475e-01,9.99999e-01
1.001417910e+00,7.11341e-01,9.99999e-01,9.99999e-01,7.11341e-01,9.99999e-01
1.006425000e+00,7.16143e-01,9.99999e-01,9.99999e-01,7.16143e-01,9.99999e-01
1.011457125e+00,7.20881e-01,9.99999e-01,9.99999e-01,7.20881e-01,9.99999e-01
1.016514411e+00,7.25556e-01,9.99999e-01,9.99999e-01,7.25556e-01,9.99999e-01
1.021596983e+00,7.30115e-01,9.99999e-01,9.99925e-01,7.30169e-01,9.99999e-01
1.026704968e+00,7.31092e-01,9.99999e-01,9.95063e-01,7.34718e-01,9.99999e-01
1.031838492e+00,6.98082e-01,9.99999e-01,9.44366e-01,7.39206e-01,9.99999e-01
1.036997685e+00,8.86178e-02,9.99999e-01,1.19169e-01,7.43631e-01,9.99999e-01
1.042182673e+00,5.18667e-02,9.99999e-01,6.93410e-02,7.47995e-01,9.99999e-01
1.047393587e+00,6.97338e-02,9.99999e-01,9.26944e-02,7.52297e-01,9.99999e-01
1.052630555e+00,8.28184e-04,9.99999e-01,1.09470e-03,7.56538e-01,9.99999e-01
1.057893707e+00,2.43473e-03,9.99999e-01,3.20056e-03,7.60719e-01,9.99999e-01
1.063183176e+00,1.07714e-02,9.99999e-01,1.40833e-02,7.64840e-01,9.99999e-01
1.068499092e+00,3.75284e-02,9.99999e-01,4.88078e-02,7.68901e-01,9.99999e-01
1.073841587e+00,1.14546e-01,9.99999e-01,1.48202e-01,7.72902e-01,9.99999e-01
1.079210795e+00,2.31809e-01,9.99999e-01,2.98398e-01,7.76845e-01,9.99999e-01
1.084606849e+00,4.00256e-01,9.99999e-01,5.12669e-01,7.80729e-01,9.99999e-01
1.090029883e+00,5.54141e-01,9.99999e-01,7.06311e-01,7.84556e-01,9.99999e-01
1.095480033e+00,6.64279e-01,9.99999e-01,8.42646e-01,7.88325e-01,9.99999e-01
1.100957433e+00,7.29262e-01,9.99999e-01,9.20741e-01,7.92037e-01,9.99999e-01
1.106462220e+00,7.69010e-01,9.99999e-01,9.66465e-01,7.95693e-01,9.99999e-01
1.111994531e+00,7.89250e-01,9.99999e-01,9.87434e-01,7.99293e-01,9.99999e-01
1.117554504e+00,8.00375e-01,9.99999e-01,9.96931e-01,8.02838e-01,9.99999e-01
1.123142276e+00,8.06167e-01,9.99999e-01,9.99799e-01,8.06328e-01,9.99999e-01
1.128757988e+00,8.09764e-01,9.99999e-01,9.99999e-01,8.09764e-01,9.99999e-01
1.134401778e+00,8.13146e-01,9.99999e-01,9.99999e-01,8.13146e-01,9.99999e-01
1.140073787e+00,8.16475e-01,9.99999e-01,9.99999e-01,8.16475e-01,9.99999e-01
1.145774156e+00,8.19752e-01,9.99999e-01,9.99999e-01,8.19752e-01,9.99999e-01
1.151503026e+00,8.22976e-01,9.99999e-01,9.99999e-01,8.22976e-01,9.99999e-01
1.157260541e+00,8.26149e-01,9.99999e-01,9.99999e-01,8.26149e-01,9.99999e-01
1.163046844e+00,8.29272e-01,9.99999e-01,9.99999e-01,8.29272e-01,9.99999e-01
1.168862078e+00,8.32344e-01,9.99999e-01,9.99999e-01,8.32344e-01,9.99999e-01
1.174706389e+00,8.35366e-01,9.99999e-01,9.99999e-01,8.35366e-01,9.99999e-01
1.180579921e+00,8.38340e-01,9.99999e-01,9.99999e-01,8.38340e-01,9.99999e-01
1.186482820e+00,8.41256e-01,9.99999e-01,9.99988e-01,8.41265e-01,9.99999e-01
1.192415234e+00,8.29374e-01,9.99999e-01,9.82504e-01,8.44142e-01,9.99999e-01
1.198377311e+00,4.68815e-01,9.99999e-01,5.53518e-01,8.46972e-01,9.99999e-01
1.204369197e+00,7.44882e-14,9.99999e-01,8.76584e-14,8.49755e-01,9.99999e-01
1.210391043e+00,4.17504e-52,9.99999e-01,4.89744e-52,8.52492e-01,9.99999e-01
1.216442998e+00,2.88593e-45,9.99999e-01,3.37463e-45,8.55184e-01,9.99999e-01
1.222525213e+00,1.31959e-44,9.99999e-01,1.53828e-44,8.57830e-01,9.99999e-01
1.228637839e+00,1.50286e-34,9.99999e-01,1.74663e-34,8.60433e-01,9.99999e-01
1.234781029e+00,4.35398e-22,9.99999e-01,5.04522e-22,8.62991e-01,9.99999e-01
1.240954934e+00,7.53185e-15,9.99999e-01,8.70224e-15,8.65507e-01,9.99999e-01
1.247159708e+00,6.10804e-08,9.99999e-01,7.03707e-08,8.67979e-01,9.99999e-01
1.253395507e+00,3.28931e-05,9.99999e-01,3.77903e-05,8.70410e-01,9.99999e-01
1.259662485e+00,2.52371e-03,9.99999e-01,2.89151e-03,8.72800e-01,9.99999e-01
1.265960797e+00,3.05944e-02,9.99999e-01,3.49590e-02,8.75148e-01,9.99999e-01
1.272290601e+00,2.06261e-01,9.99999e-01,2.35067e-01,8.77457e-01,9.99999e-01
1.278652054e+00,1.73712e-01,9.99999e-01,1.97461e-01,8.79725e-01,9.99999e-01
1.285045314e+00,2.16264e-03,9.99999e-01,2.45210e-03,8.81955e-01,9.99999e-01
1.291470541e+00,9.43196e-07,9.99999e-01,1.06679e-06,8.84146e-01,9.99999e-01
1.297927893e+00,3.36037e-03,9.99999e-01,3.79146e-03,8.86299e-01,9.99999e-01
1.304417533e+00,6.30034e-02,9.99999e-01,7.09166e-02,8.88414e-01,9.99999e-01
1.310939621e+00,1.01522e-02,9.99999e-01,1.14006e-02,8.90493e-01,9.99999e-01
1.317494319e+00,1.85408e-18,9.99999e-01,2.07732e-18,8.92535e-01,9.99999e-01
1.324081790e+00,1.78279e-12,9.99999e-01,1.99296e-12,8.94542e-01,9.99999e-01
1.330702199e+00,2.16743e-07,9.99999e-01,2.41762e-07,8.96513e-01,9.99999e-01
1.337355710e+00,4.24100e-07,9.99999e-01,4.72034e-07,8.98450e-01,9.99999e-01
1.344042489e+00,1.38194e-07,9.99999e-01,1.53489e-07,9.00352e-01,9.99999e-01
1.350762701e+00,1.29258e-07,9.99999e-01,1.43267e-07,9.02221e-01,9.99999e-01
1.357516515e+00,4.42742e-05,9.99999e-01,4.89728e-05,9.04057e-01,9.99999e-01
1.364304097e+00,1.21009e-03,9.99999e-01,1.33585e-03,9.05859e-01,9.99999e-01
1.371125618e+00,2.95677e-02,9.99999e-01,3.25767e-02,9.07630e-01,9.99999e-01
1.377981246e+00,5.25480e-02,9.99999e-01,5.77850e-02,9.09369e-01,9.99999e-01
1.384871152e+00,1.73509e-01,9.99999e-01,1.90444e-01,9.11078e-01,9.99999e-01
1.391795508e+00,1.97336e-01,9.99999e-01,2.16198e-01,9.12755e-01,9.99999e-01
1.398754485e+00,3.54067e-01,9.99999e-01,3.87211e-01,9.14402e-01,9.99999e-01
1.405748258e+00,4.56515e-01,9.99999e-01,4.98368e-01,9.16020e-01,9.99999e-01
1.412776999e+00,5.90734e-01,9.99999e-01,6.43775e-01,9.17608e-01,9.99999e-01
1.419840884e+00,5.25796e-01,9.99999e-01,5.72034e-01,9.19168e-01,9.99999e-01
1.426940089e+00,3.96821e-02,9.99999e-01,4.30998e-02,9.20700e-01,9.99999e-01
1.434074789e+00,0.00000e+00,9.99999e-01,0.00000e+00,9.22204e-01,9.99999e-01
1.441245163e+00,0.00000e+00,9.99999e-01,0.00000e+00,9.23680e-01,9.99999e-01
1.448451389e+00,0.00000e+00,9.99999e-01,0.00000e+00,9.25130e-01,9.99999e-01
1.455693646e+00,0.00000e+00,9.99999e-01,0.00000e+00,9.26553e-01,9.99999e-01
1.462972114e+00,1.28949e-204,9.99999e-01,1.38961e-204,9.27950e-01,9.99999e-01
1.470286975e+00,1.61313e-85,9.99999e-01,1.73581e-85,9.29321e-01,9.99999e-01
