#,Wave/freq,Total,O2,CO2,Rayleigh,CIA
4.000000000e-01,6.74881e-04,9.99999e-01,9.99999e-01,6.74881e-04,9.99999e-01
4.020000000e-01,7.79691e-04,9.99999e-01,9.99999e-01,7.79691e-04,9.99999e-01
4.040100000e-01,8.98079e-04,9.99999e-01,9.99999e-01,8.98079e-04,9.99999e-01
4.060300500e-01,1.03156e-03,9.99999e-01,9.99999e-01,1.03156e-03,9.99999e-01
4.080602003e-01,1.18164e-03,9.99999e-01,9.99999e-01,1.18164e-03,9.99999e-01
4.101005013e-01,1.34993e-03,9.99999e-01,9.99999e-01,1.34993e-03,9.99999e-01
4.121510038e-01,1.53813e-03,9.99999e-01,9.99999e-01,1.53813e-03,9.99999e-01
4.142117588e-01,1.74807e-03,9.99999e-01,9.99999e-01,1.74807e-03,9.99999e-01
4.162828176e-01,1.98164e-03,9.99999e-01,9.99999e-01,1.98164e-03,9.99999e-01
4.183642317e-01,2.24086e-03,9.99999e-01,9.99999e-01,2.24086e-03,9.99999e-01
4.204560528e-01,2.52785e-03,9.99999e-01,9.99999e-01,2.52785e-03,9.99999e-01
4.225583331e-01,2.84481e-03,9.99999e-01,9.99999e-01,2.84481e-03,9.99999e-01
4.246711247e-01,3.19405e-03,9.99999e-01,9.99999e-01,3.19405e-03,9.99999e-01
4.267944804e-01,3.57797e-03,9.99999e-01,9.99999e-01,3.57797e-03,9.99999e-01
4.289284528e-01,3.99907e-03,9.99999e-01,9.99999e-01,3.99907e-03,9.99999e-01
4.310730950e-01,4.45991e-03,9.99999e-01,9.99999e-01,4.45991e-03,9.99999e-01
4.332284605e-01,4.96315e-03,9.99999e-01,9.99999e-01,4.96315e-03,9.99999e-01
4.353946028e-01,5.51153e-03,9.99999e-01,9.99999e-01,5.51153e-03,9.99999e-01
4.375715758e-01,6.10784e-03,9.99999e-01,9.99999e-01,6.10784e-03,9.99999e-01
4.397594337e-01,6.75494e-03,9.99999e-01,9.99999e-01,6.75494e-03,9.99999e-01
4.419582309e-01,7.45576e-03,9.99999e-01,9.99999e-01,7.45576e-03,9.99999e-01
4.441680220e-01,8.21326e-03,9.99999e-01,9.99999e-01,8.21326e-03,9.99999e-01
4.463888621e-01,9.03045e-03,9.99999e-01,9.99999e-01,9.03045e-03,9.99999e-01
4.486208064e-01,9.91035e-03,9.99999e-01,9.99999e-01,9.91035e-03,9.99999e-01
4.508639105e-01,1.08560e-02,9.99999e-01,9.99999e-01,1.08560e-02,9.99999e-01
4.531182300e-01,1.18706e-02,9.99999e-01,9.99999e-01,1.18706e-02,9.99999e-01
4.553838212e-01,1.29570e-02,9.99999e-01,9.99999e-01,1.29570e-02,9.99999e-01
4.576607403e-01,1.41185e-02,9.99999e-01,9.99999e-01,1.41185e-02,9.99999e-01
4.599490440e-01,1.53580e-02,9.99999e-01,9.99999e-01,1.53580e-02,9.99999e-01
4.622487892e-01,1.66786e-02,9.99999e-01,9.99999e-01,1.66786e-02,9.99999e-01
4.645600332e-01,1.80832e-02,9.99999e-01,9.99999e-01,1.80832e-02,9.99999e-01
4.668828333e-01,1.95749e-02,9.99999e-01,9.99999e-01,1.95749e-02,9.99999e-01
4.692172475e-01,2.11564e-02,9.99999e-01,9.99999e-01,2.11564e-02,9.99999e-01
4.715633337e-01,2.28307e-02,9.99999e-01,9.99999e-01,2.28307e-02,9.99999e-01
4.739211504e-01,2.46004e-02,9.99999e-01,9.99999e-01,2.46004e-02,9.99999e-01
4.762907561e-01,2.64682e-02,9.99999e-01,9.99999e-01,2.64682e-02,9.99999e-01
4.786722099e-01,2.84367e-02,9.99999e-01,9.99999e-01,2.84367e-02,9.99999e-01
4.810655710e-01,3.05084e-02,9.99999e-01,9.99999e-01,3.05084e-02,9.99999e-01
4.834708988e-01,3.26856e-02,9.99999e-01,9.99999e-01,3.26856e-02,9.99999e-01
4.858882533e-01,3.49704e-02,9.99999e-01,9.99999e-01,3.49704e-02,9.99999e-01
4.883176946e-01,3.73651e-02,9.99999e-01,9.99999e-01,3.73651e-02,9.99999e-01
4.907592831e-01,3.98716e-02,9.99999e-01,9.99999e-01,3.98716e-02,9.99999e-01
4.932130795e-01,4.24917e-02,9.99999e-01,9.99999e-01,4.24917e-02,9.99999e-01
4.956791449e-01,4.52271e-02,9.99999e-01,9.99999e-01,4.52271e-02,9.99999e-01
4.981575406e-01,4.80793e-02,9.99999e-01,9.99999e-01,4.80793e-02,9.99999e-01
5.006483283e-01,5.10496e-02,9.99999e-01,9.99999e-01,5.10496e-02,9.99999e-01
5.031515699e-01,5.41393e-02,9.99999e-01,9.99999e-01,5.41393e-02,9.99999e-01
5.056673278e-01,5.73494e-02,9.99999e-01,9.99999e-01,5.73494e-02,9.99999e-01
5.081956644e-01,6.06808e-02,9.99999e-01,9.99999e-01,6.06808e-02,9.99999e-01
5.107366428e-01,6.41341e-02,9.99999e-01,9.99999e-01,6.41341e-02,9.99999e-01
5.132903260e-01,6.77098e-02,9.99999e-01,9.99999e-01,6.77098e-02,9.99999e-01
5.158567776e-01,7.14084e-02,9.99999e-01,9.99999e-01,7.14084e-02,9.99999e-01
5.184360615e-01,7.52299e-02,9.99999e-01,9.99999e-01,7.52299e-02,9.99999e-01
5.210282418e-01,7.91744e-02,9.99999e-01,9.99999e-01,7.91744e-02,9.99999e-01
5.236333830e-01,8.32416e-02,9.99999e-01,9.99999e-01,8.32416e-02,9.99999e-01
5.262515499e-01,8.74312e-02,9.99999e-01,9.99999e-01,8.74312e-02,9.99999e-01
5.288828077e-01,9.17426e-02,9.99999e-01,9.99999e-01,9.17426e-02,9.99999e-01
5.315272217e-01,9.61751e-02,9.99999e-01,9.99999e-01,9.61751e-02,9.99999e-01
5.341848578e-01,1.00728e-01,9.99999e-01,9.99999e-01,1.00728e-01,9.99999e-01
5.368557821e-01,1.05400e-01,9.99999e-01,9.99999e-01,1.05400e-01,9.99999e-01
5.395400610e-01,1.10190e-01,9.99999e-01,9.99999e-01,1.10190e-01,9.99999e-01
5.422377613e-01,1.15096e-01,9.99999e-01,9.99999e-01,1.15096e-01,9.99999e-01
5.449489501e-01,1.20118e-01,9.99999e-01,9.99999e-01,1.20118e-01,9.99999e-01
5.476736949e-01,1.25253e-01,9.99999e-01,9.99999e-01,1.25253e-01,9.99999e-01
5.504120634e-01,1.30499e-01,9.99999e-01,9.99999e-01,1.30499e-01,9.99999e-01
5.531641237e-01,1.35856e-01,9.99999e-01,9.99999e-01,1.35856e-01,9.99999e-01
5.559299443e-01,1.41319e-01,9.99999e-01,9.99999e-01,1.41319e-01,9.99999e-01
5.587095940e-01,1.46888e-01,9.99999e-01,9.99999e-01,1.46888e-01,9.99999e-01
5.615031420e-01,1.52560e-01,9.99999e-01,9.99999e-01,1.52560e-01,9.99999e-01
5.643106577e-01,1.58333e-01,9.99999e-01,9.99999e-01,1.58333e-01,9.99999e-01
5.671322110e-01,1.64203e-01,9.99999e-01,9.99999e-01,1.64203e-01,9.99999e-01
5.699678720e-01,1.70168e-01,9.99999e-01,9.99999e-01,1.70168e-01,9.99999e-01
5.728177114e-01,1.76226e-01,9.99999e-01,9.99999e-01,1.76226e-01,9.99999e-01
5.756818000e-01,1.82374e-01,9.99999e-01,9.99999e-01,1.82374e-01,9.99999e-01
5.785602090e-01,1.88608e-01,9.99999e-01,9.99999e-01,1.88608e-01,9.99999e-01
5.814530100e-01,1.94926e-01,9.99999e-01,9.99999e-01,1.94926e-01,9.99999e-01
5.843602750e-01,2.01325e-01,9.99999e-01,9.99999e-01,2.01325e-01,9.99999e-01
5.872820764e-01,2.07801e-01,9.99999e-01,9.99999e-01,2.07801e-01,9.99999e-01
5.902184868e-01,2.14351e-01,9.99999e-01,9.99999e-01,2.14351e-01,9.99999e-01
5.931695792e-01,2.20972e-01,9.99999e-01,9.99999e-01,2.20972e-01,9.99999e-01
5.961354271e-01,2.27661e-01,9.99999e-01,9.99999e-01,2.27661e-01,9.99999e-01
5.991161043e-01,2.34414e-01,9.99999e-01,9.99999e-01,2.34414e-01,9.99999e-01
6.021116848e-01,2.41228e-01,9.99999e-01,9.99999e-01,2.41228e-01,9.99999e-01
6.051222432e-01,2.48100e-01,9.99999e-01,9.99999e-01,2.48100e-01,9.99999e-01
6.081478544e-01,2.55025e-01,9.99999e-01,9.99999e-01,2.55025e-01,9.99999e-01
6.111885937e-01,2.62002e-01,9.99999e-01,9.99999e-01,2.62002e-01,9.99999e-01
6.142445367e-01,2.69026e-01,9.99999e-01,9.99999e-01,2.69026e-01,9.99999e-01
6.173157594e-01,2.76095e-01,9.99999e-01,9.99999e-01,2.76095e-01,9.99999e-01
6.204023382e-01,2.83203e-01,9.99999e-01,9.99999e-01,2.83203e-01,9.99999e-01
6.235043498e-01,2.90349e-01,9.99999e-01,9.99999e-01,2.90349e-01,9.99999e-01
6.266218716e-01,2.97529e-01,9.99999e-01,9.99999e-01,2.97529e-01,9.99999e-01
6.297549810e-01,3.04739e-01,9.99999e-01,9.99999e-01,3.04739e-01,9.99999e-01
6.329037559e-01,3.11977e-01,9.99999e-01,9.99999e-01,3.11977e-01,9.99999e-01
6.360682746e-01,3.19238e-01,9.99999e-01,9.99999e-01,3.19238e-01,9.99999e-01
6.392486160e-01,3.26520e-01,9.99999e-01,9.99999e-01,3.26520e-01,9.99999e-01
6.424448591e-01,3.33819e-01,9.99999e-01,9.99999e-01,3.33819e-01,9.99999e-01
6.456570834e-01,3.41132e-01,9.99999e-01,9.99999e-01,3.41132e-01,9.99999e-01
6.488853688e-01,3.48457e-01,9.99999e-01,9.99999e-01,3.48457e-01,9.99999e-01
6.521297956e-01,3.55789e-01,9.99999e-01,9.99999e-01,3.55789e-01,9.99999e-01
6.553904446e-01,3.63126e-01,9.99999e-01,9.99999e-01,3.63126e-01,9.99999e-01
6.586673968e-01,3.70465e-01,9.99999e-01,9.99999e-01,3.70465e-01,9.99999e-01
6.619607338e-01,3.77803e-01,9.99999e-01,9.99999e-01,3.77803e-01,9.99999e-01
6.652705375e-01,3.85137e-01,9.99999e-01,9.99999e-01,3.85137e-01,9.99999e-01
6.685968902e-01,3.92465e-01,9.99999e-01,9.99999e-01,3.92465e-01,9.99999e-01
6.719398746e-01,3.99783e-01,9.99999e-01,9.99999e-01,3.99783e-01,9.99999e-01
6.752995740e-01,4.07089e-01,9.99999e-01,9.99999e-01,4.07089e-01,9.99999e-01
6.786760719e-01,4.14380e-01,9.99999e-01,9.99999e-01,4.14380e-01,9.99999e-01
6.820694522e-01,4.21654e-01,9.99999e-01,9.99999e-01,4.21654e-01,9.99999e-01
6.854797995e-01,4.28908e-01,9.99999e-01,9.99999e-01,4.28908e-01,9.99999e-01
6.889071985e-01,4.36140e-01,9.99999e-01,9.99999e-01,4.36140e-01,9.99999e-01
6.923517345e-01,4.43347e-01,9.99999e-01,9.99999e-01,4.43347e-01,9.99999e-01
6.958134932e-01,4.50528e-01,9.99999e-01,9.99999e-01,4.50528e-01,9.99999e-01
6.992925606e-01,4.57680e-01,9.99999e-01,9.99999e-01,4.57680e-01,9.99999e-01
7.027890234e-01,4.64800e-01,9.99999e-01,9.99999e-01,4.64800e-01,9.99999e-01
7.063029686e-01,4.71888e-01,9.99999e-01,9.99999e-01,4.71888e-01,9.99999e-01
7.098344834e-01,4.78940e-01,9.99999e-01,9.99999e-01,4.78940e-01,9.99999e-01
7.133836558e-01,4.85955e-01,9.99999e-01,9.99999e-01,4.85955e-01,9.99999e-01
7.169505741e-01,4.92932e-01,9.99999e-01,9.99999e-01,4.92932e-01,9.99999e-01
7.205353270e-01,4.99868e-01,9.99999e-01,9.99999e-01,4.99868e-01,9.99999e-01
7.241380036e-01,5.06761e-01,9.99999e-01,9.99999e-01,5.06761e-01,9.99999e-01
7.277586936e-01,5.13611e-01,9.99999e-01,9.99999e-01,5.13611e-01,9.99999e-01
7.313974871e-01,5.20415e-01,9.99999e-01,9.99999e-01,5.20415e-01,9.99999e-01
7.350544745e-01,5.27173e-01,9.99999e-01,9.99999e-01,5.27173e-01,9.99999e-01
7.387297469e-01,5.33882e-01,9.99999e-01,9.99999e-01,5.33882e-01,9.99999e-01
7.424233956e-01,5.40541e-01,9.99999e-01,9.99999e-01,5.40541e-01,9.99999e-01
7.461355126e-01,5.47149e-01,9.99999e-01,9.99999e-01,5.47149e-01,9.99999e-01
7.498661902e-01,5.53706e-01,9.99999e-01,9.99999e-01,5.53706e-01,9.99999e-01
7.536155211e-01,5.60209e-01,9.99999e-01,9.99999e-01,5.60209e-01,9.99999e-01
7.573835987e-01,5.66657e-01,9.99999e-01,9.99999e-01,5.66657e-01,9.99999e-01
7.611705167e-01,5.73051e-01,9.99999e-01,9.99999e-01,5.73051e-01,9.99999e-01
7.649763693e-01,5.79388e-01,9.99999e-01,9.99999e-01,5.79388e-01,9.99999e-01
7.688012511e-01,5.85668e-01,9.99999e-01,9.99999e-01,5.85668e-01,9.99999e-01
7.726452574e-01,5.91889e-01,9.99999e-01,9.99999e-01,5.91889e-01,9.99999e-01
7.765084837e-01,5.98053e-01,9.99999e-01,9.99999e-01,5.98053e-01,9.99999e-01
7.803910261e-01,5.89471e-01,9.99999e-01,9.75691e-01,6.04156e-01,9.99999e-01
7.842929812e-01,5.47942e-01,9.99999e-01,8.97970e-01,6.10200e-01,9.99999e-01
7.882144461e-01,5.49064e-01,9.99999e-01,8.91072e-01,6.16183e-01,9.99999e-01
7.921555184e-01,5.81992e-01,9.99999e-01,9.35520e-01,6.22105e-01,9.99999e-01
7.961162960e-01,6.00565e-01,9.99999e-01,9.56367e-01,6.27965e-01,9.99999e-01
8.000968774e-01,6.18633e-01,9.99999e-01,9.76127e-01,6.33762e-01,9.99999e-01
8.040973618e-01,6.31540e-01,9.99999e-01,9.87556e-01,6.39497e-01,9.99999e-01
8.081178486e-01,6.41477e-01,9.99999e-01,9.94275e-01,6.45170e-01,9.99999e-01
8.121584379e-01,6.49624e-01,9.99999e-01,9.98225e-01,6.50779e-01,9.99999e-01
8.162192301e-01,6.56067e-01,9.99999e-01,9.99607e-01,6.56324e-01,9.99999e-01
8.203003262e-01,6.61802e-01,9.99999e-01,9.99993e-01,6.61806e-01,9.99999e-01
8.244018279e-01,6.67224e-01,9.99999e-01,9.99999e-01,6.67224e-01,9.99999e-01
8.285238370e-01,6.72578e-01,9.99999e-01,9.99999e-01,6.72578e-01,9.99999e-01
8.326664562e-01,6.77868e-01,9.99999e-01,9.99999e-01,6.77868e-01,9.99999e-01
8.368297885e-01,6.83094e-01,9.99999e-01,9.99999e-01,6.83094e-01,9.99999e-01
8.410139374e-01,6.88256e-01,9.99999e-01,9.99999e-01,6.88256e-01,9.99999e-01
8.452190071e-01,6.93354e-01,9.99999e-01,9.99999e-01,6.93354e-01,9.99999e-01
8.494451021e-01,6.98388e-01,9.99999e-01,9.99999e-01,6.98388e-01,9.99999e-01
8.536923276e-01,7.03357e-01,9.99999e-01,9.99999e-01,7.03357e-01,9.99999e-01
8.579607893e-01,7.08263e-01,9.99999e-01,9.99999e-01,7.08263e-01,9.99999e-01
8.622505932e-01,7.13105e-01,9.99999e-01,9.99999e-01,7.13105e-01,9.99999e-01
8.665618462e-01,6.75344e-01,9.99999e-01,9.40742e-01,7.17884e-01,9.99999e-01
8.708946554e-01,5.48678e-01,9.99999e-01,7.59312e-01,7.22599e-01,9.99999e-01
8.752491287e-01,5.83370e-01,9.99999e-01,8.02157e-01,7.27251e-01,9.99999e-01
8.796253743e-01,6.48817e-01,9.99999e-01,8.86554e-01,7.31841e-01,9.99999e-01
8.840235012e-01,6.91930e-01,9.99999e-01,9.39652e-01,7.36368e-01,9.99999e-01
8.884436187e-01,7.22888e-01,9.99999e-01,9.75777e-01,7.40832e-01,9.99999e-01
8.928858368e-01,7.37879e-01,9.99999e-01,9.90128e-01,7.45235e-01,9.99999e-01
8.973502660e-01,7.47771e-01,9.99999e-01,9.97591e-01,7.49576e-01,9.99999e-01
9.018370173e-01,7.53656e-01,9.99999e-01,9.99733e-01,7.53856e-01,9.99999e-01
9.063462024e-01,7.52938e-01,9.99999e-01,9.93222e-01,7.58075e-01,9.99999e-01
9.108779334e-01,7.50397e-01,9.99999e-01,9.84470e-01,7.62234e-01,9.99999e-01
9.154323231e-01,7.63519e-01,9.99999e-01,9.96327e-01,7.66333e-01,9.99999e-01
9.200094847e-01,7.29655e-01,9.99999e-01,9.47146e-01,7.70372e-01,9.99999e-01
9.246095321e-01,7.17199e-01,9.99999e-01,9.26191e-01,7.74352e-01,9.99999e-01
9.292325798e-01,7.32856e-01,9.99999e-01,9.41642e-01,7.78273e-01,9.99999e-01
9.338787427e-01,7.37962e-01,9.99999e-01,9.43520e-01,7.82136e-01,9.99999e-01
9.385481364e-01,7.53121e-01,9.99999e-01,9.58240e-01,7.85942e-01,9.99999e-01
9.432408771e-01,7.69342e-01,9.99999e-01,9.74232e-01,7.89690e-01,9.99999e-01
9.479570815e-01,7.82835e-01,9.99999e-01,9.86706e-01,7.93382e-01,9.99999e-01
9.526968669e-01,7.91890e-01,9.99999e-01,9.93566e-01,7.97017e-01,9.99999e-01
9.574603512e-01,7.98391e-01,9.99999e-01,9.97244e-01,8.00597e-01,9.99999e-01
9.622476530e-01,8.03430e-01,9.99999e-01,9.99139e-01,8.04122e-01,9.99999e-01
9.670588912e-01,8.07384e-01,9.99999e-01,9.99741e-01,8.07592e-01,9.99999e-01
9.718941857e-01,8.10993e-01,9.99999e-01,9.99981e-01,8.11008e-01,9.99999e-01
9.767536566e-01,8.14370e-01,9.99999e-01,9.99999e-01,8.14370e-01,9.99999e-01
9.816374249e-01,8.17680e-01,9.99999e-01,9.99999e-01,8.17680e-01,9.99999e-01
9.865456120e-01,8.20938e-01,9.99999e-01,9.99999e-01,8.20938e-01,9.99999e-01
9.914783401e-01,8.24143e-01,9.99999e-01,9.99999e-01,8.24143e-01,9.99999e-01
9.964357318e-01,8.27298e-01,9.99999e-01,9.99999e-01,8.27298e-01,9.99999e-01
1.001417910e+00,8.30402e-01,9.99999e-01,9.99999e-01,8.30402e-01,9.99999e-01
1.006425000e+00,8.33456e-01,9.99999e-01,9.99999e-01,8.33456e-01,9.99999e-01
1.011457125e+00,8.36460e-01,9.99999e-01,9.99999e-01,8.36460e-01,9.99999e-01
1.016514411e+00,8.39416e-01,9.99999e-01,9.99999e-01,8.39416e-01,9.99999e-01
1.021596983e+00,8.42294e-01,9.99999e-01,9.99964e-01,8.42323e-01,9.99999e-01
1.026704968e+00,8.42953e-01,9.99999e-01,9.97361e-01,8.45183e-01,9.99999e-01
1.031838492e+00,8.18936e-01,9.99999e-01,9.65731e-01,8.47996e-01,9.99999e-01
1.036997685e+00,1.78320e-01,9.99999e-01,2.09600e-01,8.50762e-01,9.99999e-01
1.042182673e+00,1.83863e-01,9.99999e-01,2.15427e-01,8.53482e-01,9.99999e-01
1.047393587e+00,1.89558e-01,9.99999e-01,2.21406e-01,8.56157e-01,9.99999e-01
1.052630555e+00,1.33954e-02,9.99999e-01,1.55981e-02,8.58788e-01,9.99999e-01
1.057893707e+00,2.90789e-02,9.99999e-01,3.37587e-02,8.61374e-01,9.99999e-01
1.063183176e+00,7.25767e-02,9.99999e-01,8.40088e-02,8.63917e-01,9.99999e-01
1.068499092e+00,1.60606e-01,9.99999e-01,1.85368e-01,8.66416e-01,9.99999e-01
1.073841587e+00,2.99772e-01,9.99999e-01,3.45012e-01,8.68874e-01,9.99999e-01
1.079210795e+00,4.44642e-01,9.99999e-01,5.10326e-01,8.71289e-01,9.99999e-01
1.084606849e+00,6.04294e-01,9.99999e-01,6.91678e-01,8.73664e-01,9.99999e-01
1.090029883e+00,7.23670e-01,9.99999e-01,8.26109e-01,8.75998e-01,9.99999e-01
1.095480033e+00,7.99417e-01,9.99999e-01,9.10194e-01,8.78291e-01,9.99999e-01
1.100957433e+00,8.41556e-01,9.99999e-01,9.55720e-01,8.80546e-01,9.99999e-01
1.106462220e+00,8.66383e-01,9.99999e-01,9.81446e-01,8.82761e-01,9.99999e-01
1.111994531e+00,8.78819e-01,9.99999e-01,9.93084e-01,8.84938e-01,9.99999e-01
1.117554504e+00,8.85575e-01,9.99999e-01,9.98306e-01,8.87077e-01,9.99999e-01
1.123142276e+00,8.89080e-01,9.99999e-01,9.99888e-01,8.89179e-01,9.99999e-01
1.128757988e+00,8.91245e-01,9.99999e-01,9.99999e-01,8.91245e-01,9.99999e-01
1.134401778e+00,8.93274e-01,9.99999e-01,9.99999e-01,8.93274e-01,9.99999e-01
1.140073787e+00,8.95267e-01,9.99999e-01,9.99999e-01,8.95267e-01,9.99999e-01
1.145774156e+00,8.97226e-01,9.99999e-01,9.99999e-01,8.97226e-01,9.99999e-01
1.151503026e+00,8.99150e-01,9.99999e-01,9.99999e-01,8.99150e-01,9.99999e-01
1.157260541e+00,9.01040e-01,9.99999e-01,9.99999e-01,9.01040e-01,9.99999e-01
1.163046844e+00,9.02897e-01,9.99999e-01,9.99999e-01,9.02897e-01,9.99999e-01
1.168862078e+00,9.04720e-01,9.99999e-01,9.99999e-01,9.04720e-01,9.99999e-01
1.174706389e+00,9.06511e-01,9.99999e-01,9.99999e-01,9.06511e-01,9.99999e-01
1.180579921e+00,9.08270e-01,9.99999e-01,9.99999e-01,9.08270e-01,9.99999e-01
1.186482820e+00,9.09994e-01,9.99999e-01,9.99995e-01,9.09998e-01,9.99999e-01
1.192415234e+00,9.03101e-01,9.99999e-01,9.90573e-01,9.11695e-01,9.99999e-01
1.198377311e+00,5.21952e-01,9.99999e-01,5.71462e-01,9.13361e-01,9.99999e-01
1.204369197e+00,1.39995e-08,9.99999e-01,1.53000e-08,9.14998e-01,9.99999e-01
1.210391043e+00,1.89800e-29,9.99999e-01,2.07069e-29,9.16605e-01,9.99999e-01
1.216442998e+00,1.02298e-25,9.99999e-01,1.11414e-25,9.18183e-01,9.99999e-01
1.222525213e+00,2.36058e-25,9.99999e-01,2.56659e-25,9.19732e-01,9.99999e-01
1.228637839e+00,1.33881e-19,9.99999e-01,1.45324e-19,9.21253e-01,9.99999e-01
1.234781029e+00,4.53714e-13,9.99999e-01,4.91699e-13,9.22747e-01,9.99999e-01
1.240954934e+00,7.21421e-09,9.99999e-01,7.80578e-09,9.24214e-01,9.99999e-01
1.247159708e+00,3.28619e-05,9.99999e-01,3.55013e-05,9.25653e-01,9.99999e-01
1.253395507e+00,2.65022e-03,9.99999e-01,2.85872e-03,9.27067e-01,9.99999e-01
1.259662485e+00,3.27270e-02,9.99999e-01,3.52488e-02,9.28455e-01,9.99999e-01
1.265960797e+00,1.33312e-01,9.99999e-01,1.43375e-01,9.29817e-01,9.99999e-01
1.272290601e+00,4.15538e-01,9.99999e-01,4.46261e-01,9.31155e-01,9.99999e-01
1.278652054e+00,3.61118e-01,9.99999e-01,3.87271e-01,9.32467e-01,9.99999e-01
1.285045314e+00,1.71165e-02,9.99999e-01,1.83308e-02,9.33756e-01,9.99999e-01
1.291470541e+00,3.70955e-04,9.99999e-01,3.96734e-04,9.35021e-01,9.99999e-01
1.297927893e+00,1.50501e-02,9.99999e-01,1.60747e-02,9.36263e-01,9.99999e-01
1.304417533e+00,2.16643e-01,9.99999e-01,2.31090e-01,9.37481e-01,9.99999e-01
1.310939621e+00,5.64652e-02,9.99999e-01,6.01539e-02,9.38678e-01,9.99999e-01
1.317494319e+00,1.35105e-10,9.99999e-01,1.43751e-10,9.39852e-01,9.99999e-01
1.324081790e+00,1.46303e-07,9.99999e-01,1.55476e-07,9.41004e-01,9.99999e-01
1.330702199e+00,1.81567e-04,9.99999e-01,1.92718e-04,9.42135e-01,9.99999e-01
1.337355710e+00,1.63095e-04,9.99999e-01,1.72908e-04,9.43245e-01,9.99999e-01
1.344042489e+00,4.90133e-05,9.99999e-01,5.19025e-05,9.44334e-01,9.99999e-01
1.350762701e+00,1.24831e-04,9.99999e-01,1.32040e-04,9.45403e-01,9.99999e-01
1.357516515e+00,2.82263e-03,9.99999e-01,2.98232e-03,9.46452e-01,9.99999e-01
1.364304097e+00,2.35539e-02,9.99999e-01,2.48594e-02,9.47481e-01,9.99999e-01
1.371125618e+00,1.36087e-01,9.99999e-01,1.43477e-01,9.48492e-01,9.99999e-01
1.377981246e+00,1.97720e-01,9.99999e-01,2.08239e-01,9.49483e-01,9.99999e-01
1.384871152e+00,3.81290e-01,9.99999e-01,4.01165e-01,9.50456e-01,9.99999e-01
1.391795508e+00,4.09186e-01,9.99999e-01,4.30083e-01,9.51410e-01,9.99999e-01
1.398754485e+00,5.66485e-01,9.99999e-01,5.94830e-01,9.52346e-01,9.99999e-01
1.405748258e+00,6.49852e-01,9.99999e-01,6.81711e-01,9.53265e-01,9.99999e-01
1.412776999e+00,7.49243e-01,9.99999e-01,7.85232e-01,9.54167e-01,9.99999e-01
1.419840884e+00,6.83842e-01,9.99999e-01,7.16025e-01,9.55052e-01,9.99999e-01
1.426940089e+00,7.79148e-02,9.99999e-01,8.15076e-02,9.55920e-01,9.99999e-01
1.434074789e+00,0.00000e+00,9.99999e-01,0.00000e+00,9.56771e-01,9.99999e-01
1.441245163e+00,0.00000e+00,9.99999e-01,0.00000e+00,9.57607e-01,9.99999e-01
1.448451389e+00,0.00000e+00,9.99999e-01,0.00000e+00,9.58426e-01,9.99999e-01
1.455693646e+00,8.65635e-232,9.99999e-01,9.02426e-232,9.59231e-01,9.99999e-01
1.462972114e+00,1.19174e-112,9.99999e-01,1.24136e-112,9.60019e-01,9.99999e-01
1.470286975e+00,1.12104e-47,9.99999e-01,1.16679e-47,9.60794e-01,9.99999e-01
