#,Wave/freq,Total,O2,CO2,Rayleigh,CIA
4.000000000e-01,8.43347e-06,9.99999e-01,9.99999e-01,8.43347e-06,9.99999e-01
4.020000000e-01,1.06250e-05,9.99999e-01,9.99999e-01,1.06250e-05,9.99999e-01
4.040100000e-01,1.33221e-05,9.99999e-01,9.99999e-01,1.33221e-05,9.99999e-01
4.060300500e-01,1.66293e-05,9.99999e-01,9.99999e-01,1.66293e-05,9.99999e-01
4.080602003e-01,2.06668e-05,9.99999e-01,9.99999e-01,2.06668e-05,9.99999e-01
4.101005013e-01,2.55746e-05,9.99999e-01,9.99999e-01,2.55746e-05,9.99999e-01
4.121510038e-01,3.15149e-05,9.99999e-01,9.99999e-01,3.15149e-05,9.99999e-01
4.142117588e-01,3.86751e-05,9.99999e-01,9.99999e-01,3.86751e-05,9.99999e-01
4.162828176e-01,4.72705e-05,9.99999e-01,9.99999e-01,4.72705e-05,9.99999e-01
4.183642317e-01,5.75477e-05,9.99999e-01,9.99999e-01,5.75477e-05,9.99999e-01
4.204560528e-01,6.97875e-05,9.99999e-01,9.99999e-01,6.97875e-05,9.99999e-01
4.225583331e-01,8.43089e-05,9.99999e-01,9.99999e-01,8.43089e-05,9.99999e-01
4.246711247e-01,1.01472e-04,9.99999e-01,9.99999e-01,1.01472e-04,9.99999e-01
4.267944804e-01,1.21684e-04,9.99999e-01,9.99999e-01,1.21684e-04,9.99999e-01
4.289284528e-01,1.45398e-04,9.99999e-01,9.99999e-01,1.45398e-04,9.99999e-01
4.310730950e-01,1.73124e-04,9.99999e-01,9.99999e-01,1.73124e-04,9.99999e-01
4.332284605e-01,2.05428e-04,9.99999e-01,9.99999e-01,2.05428e-04,9.99999e-01
4.353946028e-01,2.42937e-04,9.99999e-01,9.99999e-01,2.42937e-04,9.99999e-01
4.375715758e-01,2.86344e-04,9.99999e-01,9.99999e-01,2.86344e-04,9.99999e-01
4.397594337e-01,3.36414e-04,9.99999e-01,9.99999e-01,3.36414e-04,9.99999e-01
4.419582309e-01,3.93982e-04,9.99999e-01,9.99999e-01,3.93982e-04,9.99999e-01
4.441680220e-01,4.59965e-04,9.99999e-01,9.99999e-01,4.59965e-04,9.99999e-01
4.463888621e-01,5.35358e-04,9.99999e-01,9.99999e-01,5.35358e-04,9.99999e-01
4.486208064e-01,6.21243e-04,9.99999e-01,9.99999e-01,6.21243e-04,9.99999e-01
4.508639105e-01,7.18791e-04,9.99999e-01,9.99999e-01,7.18791e-04,9.99999e-01
4.531182300e-01,8.29263e-04,9.99999e-01,9.99999e-01,8.29263e-04,9.99999e-01
4.553838212e-01,9.54016e-04,9.99999e-01,9.99999e-01,9.54016e-04,9.99999e-01
4.576607403e-01,1.09450e-03,9.99999e-01,9.99999e-01,1.09450e-03,9.99999e-01
4.599490440e-01,1.25228e-03,9.99999e-01,9.99999e-01,1.25228e-03,9.99999e-01
4.622487892e-01,1.42898e-03,9.99999e-01,9.99999e-01,1.42898e-03,9.99999e-01
4.645600332e-01,1.62638e-03,9.99999e-01,9.99999e-01,1.62638e-03,9.99999e-01
4.668828333e-01,1.84632e-03,9.99999e-01,9.99999e-01,1.84632e-03,9.99999e-01
4.692172475e-01,2.09076e-03,9.99999e-01,9.99999e-01,2.09076e-03,9.99999e-01
4.715633337e-01,2.36176e-03,9.99999e-01,9.99999e-01,2.36176e-03,9.99999e-01
4.739211504e-01,2.66147e-03,9.99999e-01,9.99999e-01,2.66147e-03,9.99999e-01
4.762907561e-01,2.99213e-03,9.99999e-01,9.99999e-01,2.99213e-03,9.99999e-01
4.786722099e-01,3.35611e-03,9.99999e-01,9.99999e-01,3.35611e-03,9.99999e-01
4.810655710e-01,3.75584e-03,9.99999e-01,9.99999e-01,3.75584e-03,9.99999e-01
4.834708988e-01,4.19385e-03,9.99999e-01,9.99999e-01,4.19385e-03,9.99999e-01
4.858882533e-01,4.67275e-03,9.99999e-01,9.99999e-01,4.67275e-03,9.99999e-01
4.883176946e-01,5.19522e-03,9.99999e-01,9.99999e-01,5.19522e-03,9.99999e-01
4.907592831e-01,5.76403e-03,9.99999e-01,9.99999e-01,5.76403e-03,9.99999e-01
4.932130795e-01,6.38201e-03,9.99999e-01,9.99999e-01,6.38201e-03,9.99999e-01
4.956791449e-01,7.05205e-03,9.99999e-01,9.99999e-01,7.05205e-03,9.99999e-01
4.981575406e-01,7.77708e-03,9.99999e-01,9.99999e-01,7.77708e-03,9.99999e-01
5.006483283e-01,8.56008e-03,9.99999e-01,9.99999e-01,8.56008e-03,9.99999e-01
5.031515699e-01,9.40409e-03,9.99999e-01,9.99999e-01,9.40409e-03,9.99999e-01
5.056673278e-01,1.03121e-02,9.99999e-01,9.99999e-01,1.03121e-02,9.99999e-01
5.081956644e-01,1.12873e-02,9.99999e-01,9.99999e-01,1.12873e-02,9.99999e-01
5.107366428e-01,1.23326e-02,9.99999e-01,9.99999e-01,1.23326e-02,9.99999e-01
5.132903260e-01,1.34512e-02,9.99999e-01,9.99999e-01,1.34512e-02,9.99999e-01
5.158567776e-01,1.46462e-02,9.99999e-01,9.99999e-01,1.46462e-02,9.99999e-01
5.184360615e-01,1.59205e-02,9.99999e-01,9.99999e-01,1.59205e-02,9.99999e-01
5.210282418e-01,1.72771e-02,9.99999e-01,9.99999e-01,1.72771e-02,9.99999e-01
5.236333830e-01,1.87191e-02,9.99999e-01,9.99999e-01,1.87191e-02,9.99999e-01
5.262515499e-01,2.02494e-02,9.99999e-01,9.99999e-01,2.02494e-02,9.99999e-01
5.288828077e-01,2.18708e-02,9.99999e-01,9.99999e-01,2.18708e-02,9.99999e-01
5.315272217e-01,2.35861e-02,9.99999e-01,9.99999e-01,2.35861e-02,9.99999e-01
5.341848578e-01,2.53981e-02,9.99999e-01,9.99999e-01,2.53981e-02,9.99999e-01
5.368557821e-01,2.73092e-02,9.99999e-01,9.99999e-01,2.73092e-02,9.99999e-01
5.395400610e-01,2.93222e-02,9.99999e-01,9.99999e-01,2.93222e-02,9.99999e-01
5.422377613e-01,3.14393e-02,9.99999e-01,9.99999e-01,3.14393e-02,9.99999e-01
5.449489501e-01,3.36629e-02,9.99999e-01,9.99999e-01,3.36629e-02,9.99999e-01
5.476736949e-01,3.59952e-02,9.99999e-01,9.99999e-01,3.59952e-02,9.99999e-01
5.504120634e-01,3.84381e-02,9.99999e-01,9.99999e-01,3.84381e-02,9.99999e-01
5.531641237e-01,4.09936e-02,9.99999e-01,9.99999e-01,4.09936e-02,9.99999e-01
5.559299443e-01,4.36635e-02,9.99999e-01,9.99999e-01,4.36635e-02,9.99999e-01
5.587095940e-01,4.64494e-02,9.99999e-01,9.99999e-01,4.64494e-02,9.99999e-01
5.615031420e-01,4.93526e-02,9.99999e-01,9.99999e-01,4.93526e-02,9.99999e-01
5.643106577e-01,5.23746e-02,9.99999e-01,9.99999e-01,5.23746e-02,9.99999e-01
5.671322110e-01,5.55164e-02,9.99999e-01,9.99999e-01,5.55164e-02,9.99999e-01
5.699678720e-01,5.87789e-02,9.99999e-01,9.99999e-01,5.87789e-02,9.99999e-01
5.728177114e-01,6.21631e-02,9.99999e-01,9.99999e-01,6.21631e-02,9.99999e-01
5.756818000e-01,6.56695e-02,9.99999e-01,9.99999e-01,6.56695e-02,9.99999e-01
5.785602090e-01,6.92984e-02,9.99999e-01,9.99999e-01,6.92984e-02,9.99999e-01
5.814530100e-01,7.30503e-02,9.99999e-01,9.99999e-01,7.30503e-02,9.99999e-01
5.843602750e-01,7.69251e-02,9.99999e-01,9.99999e-01,7.69251e-02,9.99999e-01
5.872820764e-01,8.09229e-02,9.99999e-01,9.99999e-01,8.09229e-02,9.99999e-01
5.902184868e-01,8.50432e-02,9.99999e-01,9.99999e-01,8.50432e-02,9.99999e-01
5.931695792e-01,8.92857e-02,9.99999e-01,9.99999e-01,8.92857e-02,9.99999e-01
5.961354271e-01,9.36497e-02,9.99999e-01,9.99999e-01,9.36497e-02,9.99999e-01
5.991161043e-01,9.81345e-02,9.99999e-01,9.99999e-01,9.81345e-02,9.99999e-01
6.021116848e-01,1.02739e-01,9.99999e-01,9.99999e-01,1.02739e-01,9.99999e-01
6.051222432e-01,1.07462e-01,9.99999e-01,9.99999e-01,1.07462e-01,9.99999e-01
6.081478544e-01,1.12303e-01,9.99999e-01,9.99999e-01,1.12303e-01,9.99999e-01
6.111885937e-01,1.17260e-01,9.99999e-01,9.99999e-01,1.17260e-01,9.99999e-01
6.142445367e-01,1.22331e-01,9.99999e-01,9.99999e-01,1.22331e-01,9.99999e-01
6.173157594e-01,1.27514e-01,9.99999e-01,9.99999e-01,1.27514e-01,9.99999e-01
6.204023382e-01,1.32809e-01,9.99999e-01,9.99999e-01,1.32809e-01,9.99999e-01
6.235043498e-01,1.38212e-01,9.99999e-01,9.99999e-01,1.38212e-01,9.99999e-01
6.266218716e-01,1.43721e-01,9.99999e-01,9.99999e-01,1.43721e-01,9.99999e-01
6.297549810e-01,1.49335e-01,9.99999e-01,9.99999e-01,1.49335e-01,9.99999e-01
6.329037559e-01,1.55051e-01,9.99999e-01,9.99999e-01,1.55051e-01,9.99999e-01
6.360682746e-01,1.60866e-01,9.99999e-01,9.99999e-01,1.60866e-01,9.99999e-01
6.392486160e-01,1.66778e-01,9.99999e-01,9.99999e-01,1.66778e-01,9.99999e-01
6.424448591e-01,1.72784e-01,9.99999e-01,9.99999e-01,1.72784e-01,9.99999e-01
6.456570834e-01,1.78881e-01,9.99999e-01,9.99999e-01,1.78881e-01,9.99999e-01
6.488853688e-01,1.85067e-01,9.99999e-01,9.99999e-01,1.85067e-01,9.99999e-01
6.521297956e-01,1.91338e-01,9.99999e-01,9.99999e-01,1.91338e-01,9.99999e-01
6.553904446e-01,1.97691e-01,9.99999e-01,9.99999e-01,1.97691e-01,9.99999e-01
6.586673968e-01,2.04123e-01,9.99999e-01,9.99999e-01,2.04123e-01,9.99999e-01
6.619607338e-01,2.10632e-01,9.99999e-01,9.99999e-01,2.10632e-01,9.99999e-01
6.652705375e-01,2.17213e-01,9.99999e-01,9.99999e-01,2.17213e-01,9.99999e-01
6.685968902e-01,2.23864e-01,9.99999e-01,9.99999e-01,2.23864e-01,9.99999e-01
6.719398746e-01,2.30581e-01,9.99999e-01,9.99999e-01,2.30581e-01,9.99999e-01
6.752995740e-01,2.37361e-01,9.99999e-01,9.99999e-01,2.37361e-01,9.99999e-01
6.786760719e-01,2.44200e-01,9.99999e-01,9.99999e-01,2.44200e-01,9.99999e-01
6.820694522e-01,2.51096e-01,9.99999e-01,9.99999e-01,2.51096e-01,9.99999e-01
6.854797995e-01,2.58045e-01,9.99999e-01,9.99999e-01,2.58045e-01,9.99999e-01
6.889071985e-01,2.65042e-01,9.99999e-01,9.99999e-01,2.65042e-01,9.99999e-01
6.923517345e-01,2.72086e-01,9.99999e-01,9.99999e-01,2.72086e-01,9.99999e-01
6.958134932e-01,2.79172e-01,9.99999e-01,9.99999e-01,2.79172e-01,9.99999e-01
6.992925606e-01,2.86297e-01,9.99999e-01,9.99999e-01,2.86297e-01,9.99999e-01
7.027890234e-01,2.93458e-01,9.99999e-01,9.99999e-01,2.93458e-01,9.99999e-01
7.063029686e-01,3.00652e-01,9.99999e-01,9.99999e-01,3.00652e-01,9.99999e-01
7.098344834e-01,3.07874e-01,9.99999e-01,9.99999e-01,3.07874e-01,9.99999e-01
7.133836558e-01,3.15122e-01,9.99999e-01,9.99999e-01,3.15122e-01,9.99999e-01
7.169505741e-01,3.22393e-01,9.99999e-01,9.99999e-01,3.22393e-01,9.99999e-01
7.205353270e-01,3.29683e-01,9.99999e-01,9.99999e-01,3.29683e-01,9.99999e-01
7.241380036e-01,3.36988e-01,9.99999e-01,9.99999e-01,3.36988e-01,9.99999e-01
7.277586936e-01,3.44307e-01,9.99999e-01,9.99999e-01,3.44307e-01,9.99999e-01
7.313974871e-01,3.51635e-01,9.99999e-01,9.99999e-01,3.51635e-01,9.99999e-01
7.350544745e-01,3.58970e-01,9.99999e-01,9.99999e-01,3.58970e-01,9.99999e-01
7.387297469e-01,3.66308e-01,9.99999e-01,9.99999e-01,3.66308e-01,9.99999e-01
7.424233956e-01,3.73647e-01,9.99999e-01,9.99999e-01,3.73647e-01,9.99999e-01
7.461355126e-01,3.80984e-01,9.99999e-01,9.99999e-01,3.80984e-01,9.99999e-01
7.498661902e-01,3.88316e-01,9.99999e-01,9.99999e-01,3.88316e-01,9.99999e-01
7.536155211e-01,3.95639e-01,9.99999e-01,9.99999e-01,3.95639e-01,9.99999e-01
7.573835987e-01,4.02952e-01,9.99999e-01,9.99999e-01,4.02952e-01,9.99999e-01
7.611705167e-01,4.10252e-01,9.99999e-01,9.99999e-01,4.10252e-01,9.99999e-01
7.649763693e-01,4.17536e-01,9.99999e-01,9.99999e-01,4.17536e-01,9.99999e-01
7.688012511e-01,4.24802e-01,9.99999e-01,9.99999e-01,4.24802e-01,9.99999e-01
7.726452574e-01,4.32047e-01,9.99999e-01,9.99999e-01,4.32047e-01,9.99999e-01
7.765084837e-01,4.39268e-01,9.99999e-01,9.99999e-01,4.39268e-01,9.99999e-01
7.803910261e-01,4.28757e-01,9.99999e-01,9.60338e-01,4.46464e-01,9.99999e-01
7.842929812e-01,3.83302e-01,9.99999e-01,8.44961e-01,4.53633e-01,9.99999e-01
7.882144461e-01,3.84107e-01,9.99999e-01,8.33616e-01,4.60771e-01,9.99999e-01
7.921555184e-01,4.20574e-01,9.99999e-01,8.98897e-01,4.67878e-01,9.99999e-01
7.961162960e-01,4.42563e-01,9.99999e-01,9.31808e-01,4.74950e-01,9.99999e-01
8.000968774e-01,4.63831e-01,9.99999e-01,9.62331e-01,4.81987e-01,9.99999e-01
8.040973618e-01,4.79407e-01,9.99999e-01,9.80411e-01,4.88985e-01,9.99999e-01
8.081178486e-01,4.91438e-01,9.99999e-01,9.90912e-01,4.95944e-01,9.99999e-01
8.121584379e-01,5.01467e-01,9.99999e-01,9.97226e-01,5.02862e-01,9.99999e-01
8.162192301e-01,5.09424e-01,9.99999e-01,9.99385e-01,5.09737e-01,9.99999e-01
8.203003262e-01,5.16563e-01,9.99999e-01,9.99991e-01,5.16567e-01,9.99999e-01
8.244018279e-01,5.23351e-01,9.99999e-01,9.99999e-01,5.23351e-01,9.99999e-01
8.285238370e-01,5.30088e-01,9.99999e-01,9.99999e-01,5.30088e-01,9.99999e-01
8.326664562e-01,5.36775e-01,9.99999e-01,9.99999e-01,5.36775e-01,9.99999e-01
8.368297885e-01,5.43413e-01,9.99999e-01,9.99999e-01,5.43413e-01,9.99999e-01
8.410139374e-01,5.49998e-01,9.99999e-01,9.99999e-01,5.49998e-01,9.99999e-01
8.452190071e-01,5.56532e-01,9.99999e-01,9.99999e-01,5.56532e-01,9.99999e-01
8.494451021e-01,5.63011e-01,9.99999e-01,9.99999e-01,5.63011e-01,9.99999e-01
8.536923276e-01,5.69436e-01,9.99999e-01,9.99999e-01,5.69436e-01,9.99999e-01
8.579607893e-01,5.75805e-01,9.99999e-01,9.99999e-01,5.75805e-01,9.99999e-01
8.622505932e-01,5.82118e-01,9.99999e-01,9.99999e-01,5.82118e-01,9.99999e-01
8.665618462e-01,5.38996e-01,9.99999e-01,9.16079e-01,5.88373e-01,9.99999e-01
8.708946554e-01,3.86741e-01,9.99999e-01,6.50456e-01,5.94569e-01,9.99999e-01
8.752491287e-01,4.25280e-01,9.99999e-01,7.07966e-01,6.00707e-01,9.99999e-01
8.796253743e-01,5.01886e-01,9.99999e-01,8.27123e-01,6.06784e-01,9.99999e-01
8.840235012e-01,5.55300e-01,9.99999e-01,9.06165e-01,6.12802e-01,9.99999e-01
8.884436187e-01,5.95298e-01,9.99999e-01,9.62085e-01,6.18758e-01,9.99999e-01
8.928858368e-01,6.14934e-01,9.99999e-01,9.84439e-01,6.24653e-01,9.99999e-01
8.973502660e-01,6.28107e-01,9.99999e-01,9.96226e-01,6.30486e-01,9.99999e-01
9.018370173e-01,6.35993e-01,9.99999e-01,9.99585e-01,6.36257e-01,9.99999e-01
9.063462024e-01,6.34833e-01,9.99999e-01,9.88889e-01,6.41965e-01,9.99999e-01
9.108779334e-01,6.31722e-01,9.99999e-01,9.75467e-01,6.47610e-01,9.99999e-01
9.154323231e-01,6.49455e-01,9.99999e-01,9.94279e-01,6.53191e-01,9.99999e-01
9.200094847e-01,6.04341e-01,9.99999e-01,9.17461e-01,6.58709e-01,9.99999e-01
9.246095321e-01,5.88041e-01,9.99999e-01,8.85386e-01,6.64163e-01,9.99999e-01
9.292325798e-01,6.07843e-01,9.99999e-01,9.07832e-01,6.69554e-01,9.99999e-01
9.338787427e-01,6.15422e-01,9.99999e-01,9.11897e-01,6.74880e-01,9.99999e-01
9.385481364e-01,6.35520e-01,9.99999e-01,9.34392e-01,6.80142e-01,9.99999e-01
9.432408771e-01,6.57537e-01,9.99999e-01,9.59431e-01,6.85340e-01,9.99999e-01
9.479570815e-01,6.75922e-01,9.99999e-01,9.78923e-01,6.90474e-01,9.99999e-01
9.526968669e-01,6.88459e-01,9.99999e-01,9.89813e-01,6.95544e-01,9.99999e-01
9.574603512e-01,6.97495e-01,9.99999e-01,9.95637e-01,7.00550e-01,9.99999e-01
9.622476530e-01,7.04533e-01,9.99999e-01,9.98640e-01,7.05492e-01,9.99999e-01
9.670588912e-01,7.10082e-01,9.99999e-01,9.99593e-01,7.10370e-01,9.99999e-01
9.718941857e-01,7.15165e-01,9.99999e-01,9.99971e-01,7.15185e-01,9.99999e-01
9.767536566e-01,7.19936e-01,9.99999e-01,9.99999e-01,7.19936e-01,9.99999e-01
9.816374249e-01,7.24624e-01,9.99999e-01,9.99999e-01,7.24624e-01,9.99999e-01
9.865456120e-01,7.29249e-01,9.99999e-01,9.99999e-01,7.29249e-01,9.99999e-01
9.914783401e-01,7.33811e-01,9.99999e-01,9.99999e-01,7.33811e-01,9.99999e-01
9.964357318e-01,7.38311e-01,9.99999e-01,9.99999e-01,7.38311e-01,9.99999e-01
1.001417910e+00,7.42749e-01,9.99999e-01,9.99999e-01,7.42749e-01,9.99999e-01
1.006425000e+00,7.47125e-01,9.99999e-01,9.99999e-01,7.47125e-01,9.99999e-01
1.011457125e+00,7.51439e-01,9.99999e-01,9.99999e-01,7.51439e-01,9.99999e-01
1.016514411e+00,7.55693e-01,9.99999e-01,9.99999e-01,7.55693e-01,9.99999e-01
1.021596983e+00,7.59833e-01,9.99999e-01,9.99930e-01,7.59886e-01,9.99999e-01
1.026704968e+00,7.60678e-01,9.99999e-01,9.95626e-01,7.64019e-01,9.99999e-01
1.031838492e+00,7.27557e-01,9.99999e-01,9.47226e-01,7.68091e-01,9.99999e-01
1.036997685e+00,1.03419e-01,9.99999e-01,1.33945e-01,7.72105e-01,9.99999e-01
1.042182673e+00,7.35037e-02,9.99999e-01,9.47140e-02,7.76059e-01,9.99999e-01
1.047393587e+00,9.04159e-02,9.99999e-01,1.15924e-01,7.79955e-01,9.99999e-01
1.052630555e+00,1.73344e-03,9.99999e-01,2.21160e-03,7.83793e-01,9.99999e-01
1.057893707e+00,4.81873e-03,9.99999e-01,6.11844e-03,7.87574e-01,9.99999e-01
1.063183176e+00,1.81857e-02,9.99999e-01,2.29821e-02,7.91298e-01,9.99999e-01
1.068499092e+00,5.59808e-02,9.99999e-01,7.04191e-02,7.94965e-01,9.99999e-01
1.073841587e+00,1.49993e-01,9.99999e-01,1.87825e-01,7.98576e-01,9.99999e-01
1.079210795e+00,2.78070e-01,9.99999e-01,3.46663e-01,8.02132e-01,9.99999e-01
1.084606849e+00,4.49663e-01,9.99999e-01,5.58148e-01,8.05633e-01,9.99999e-01
1.090029883e+00,5.97324e-01,9.99999e-01,7.38275e-01,8.09079e-01,9.99999e-01
1.095480033e+00,6.99848e-01,9.99999e-01,8.61380e-01,8.12472e-01,9.99999e-01
1.100957433e+00,7.59159e-01,9.99999e-01,9.30556e-01,8.15812e-01,9.99999e-01
1.106462220e+00,7.95134e-01,9.99999e-01,9.70742e-01,8.19099e-01,9.99999e-01
1.111994531e+00,8.13331e-01,9.99999e-01,9.89052e-01,8.22334e-01,9.99999e-01
1.117554504e+00,8.23319e-01,9.99999e-01,9.97336e-01,8.25517e-01,9.99999e-01
1.123142276e+00,8.28506e-01,9.99999e-01,9.99826e-01,8.28650e-01,9.99999e-01
1.128757988e+00,8.31732e-01,9.99999e-01,9.99999e-01,8.31732e-01,9.99999e-01
1.134401778e+00,8.34764e-01,9.99999e-01,9.99999e-01,8.34764e-01,9.99999e-01
1.140073787e+00,8.37748e-01,9.99999e-01,9.99999e-01,8.37748e-01,9.99999e-01
1.145774156e+00,8.40682e-01,9.99999e-01,9.99999e-01,8.40682e-01,9.99999e-01
1.151503026e+00,8.43569e-01,9.99999e-01,9.99999e-01,8.43569e-01,9.99999e-01
1.157260541e+00,8.46408e-01,9.99999e-01,9.99999e-01,8.46408e-01,9.99999e-01
1.163046844e+00,8.49201e-01,9.99999e-01,9.99999e-01,8.49201e-01,9.99999e-01
1.168862078e+00,8.51947e-01,9.99999e-01,9.99999e-01,8.51947e-01,9.99999e-01
1.174706389e+00,8.54648e-01,9.99999e-01,9.99999e-01,8.54648e-01,9.99999e-01
1.180579921e+00,8.57303e-01,9.99999e-01,9.99999e-01,8.57303e-01,9.99999e-01
1.186482820e+00,8.59905e-01,9.99999e-01,9.99988e-01,8.59914e-01,9.99999e-01
1.192415234e+00,8.49024e-01,9.99999e-01,9.84396e-01,8.62482e-01,9.99999e-01
1.198377311e+00,4.81569e-01,9.99999e-01,5.56723e-01,8.65006e-01,9.99999e-01
1.204369197e+00,2.20333e-12,9.99999e-01,2.53990e-12,8.67487e-01,9.99999e-01
1.210391043e+00,8.71451e-46,9.99999e-01,1.00175e-45,8.69926e-01,9.99999e-01
1.216442998e+00,8.18274e-40,9.99999e-01,9.38038e-40,8.72324e-01,9.99999e-01
1.222525213e+00,3.08635e-39,9.99999e-01,3.52855e-39,8.74681e-01,9.99999e-01
1.228637839e+00,2.13986e-30,9.99999e-01,2.43998e-30,8.76997e-01,9.99999e-01
1.234781029e+00,1.42404e-19,9.99999e-01,1.61957e-19,8.79274e-01,9.99999e-01
1.240954934e+00,3.56426e-13,9.99999e-01,4.04335e-13,8.81511e-01,9.99999e-01
1.247159708e+00,3.31068e-07,9.99999e-01,3.74634e-07,8.83710e-01,9.99999e-01
1.253395507e+00,1.11355e-04,9.99999e-01,1.25701e-04,8.85870e-01,9.99999e-01
1.259662485e+00,5.12644e-03,9.99999e-01,5.77305e-03,8.87993e-01,9.99999e-01
1.265960797e+00,4.60286e-02,9.99999e-01,5.17129e-02,8.90079e-01,9.99999e-01
1.272290601e+00,2.51105e-01,9.99999e-01,2.81467e-01,8.92129e-01,9.99999e-01
1.278652054e+00,2.10196e-01,9.99999e-01,2.35080e-01,8.94143e-01,9.99999e-01
1.285045314e+00,3.33875e-03,9.99999e-01,3.72578e-03,8.96121e-01,9.99999e-01
1.291470541e+00,4.89236e-06,9.99999e-01,5.44767e-06,8.98064e-01,9.99999e-01
1.297927893e+00,5.76970e-03,9.99999e-01,6.41095e-03,8.99974e-01,9.99999e-01
1.304417533e+00,8.88561e-02,9.99999e-01,9.85264e-02,9.01849e-01,9.99999e-01
1.310939621e+00,1.41934e-02,9.99999e-01,1.57060e-02,9.03691e-01,9.99999e-01
1.317494319e+00,2.72787e-16,9.99999e-01,3.01256e-16,9.05501e-01,9.99999e-01
1.324081790e+00,1.82246e-08,9.99999e-01,2.00871e-08,9.07278e-01,9.99999e-01
1.330702199e+00,1.39545e-06,9.99999e-01,1.53511e-06,9.09023e-01,9.99999e-01
1.337355710e+00,3.28773e-06,9.99999e-01,3.60996e-06,9.10738e-01,9.99999e-01
1.344042489e+00,1.11045e-07,9.99999e-01,1.21704e-07,9.12421e-01,9.99999e-01
1.350762701e+00,8.70475e-07,9.99999e-01,9.52301e-07,9.14074e-01,9.99999e-01
1.357516515e+00,1.39621e-04,9.99999e-01,1.52475e-04,9.15698e-01,9.99999e-01
1.364304097e+00,2.76865e-03,9.99999e-01,3.01828e-03,9.17292e-01,9.99999e-01
1.371125618e+00,4.53414e-02,9.99999e-01,4.93454e-02,9.18858e-01,9.99999e-01
1.377981246e+00,7.61256e-02,9.99999e-01,8.27096e-02,9.20395e-01,9.99999e-01
1.384871152e+00,2.16412e-01,9.99999e-01,2.34745e-01,9.21904e-01,9.99999e-01
1.391795508e+00,2.42296e-01,9.99999e-01,2.62399e-01,9.23386e-01,9.99999e-01
1.398754485e+00,4.04188e-01,9.99999e-01,4.37034e-01,9.24841e-01,9.99999e-01
1.405748258e+00,5.04487e-01,9.99999e-01,5.44643e-01,9.26270e-01,9.99999e-01
1.412776999e+00,6.31979e-01,9.99999e-01,6.81252e-01,9.27672e-01,9.99999e-01
1.419840884e+00,5.60913e-01,9.99999e-01,6.03749e-01,9.29049e-01,9.99999e-01
1.426940089e+00,4.65715e-02,9.99999e-01,5.00554e-02,9.30400e-01,9.99999e-01
1.434074789e+00,0.00000e+00,9.99999e-01,0.00000e+00,9.31727e-01,9.99999e-01
1.441245163e+00,0.00000e+00,9.99999e-01,0.00000e+00,9.33029e-01,9.99999e-01
1.448451389e+00,0.00000e+00,9.99999e-01,0.00000e+00,9.34307e-01,9.99999e-01
1.455693646e+00,0.00000e+00,9.99999e-01,0.00000e+00,9.35562e-01,9.99999e-01
1.462972114e+00,5.76952e-179,9.99999e-01,6.15879e-179,9.36794e-01,9.99999e-01
1.470286975e+00,5.78595e-75,9.99999e-01,6.16836e-75,9.38003e-01,9.99999e-01
