#,Wave/freq,Total,O2,CO2,Rayleigh,CIA
4.000000000e-01,6.63800e-25,9.99999e-01,9.99999e-01,6.63800e-25,9.99999e-01
4.020000000e-01,1.99567e-24,9.99999e-01,9.99999e-01,1.99567e-24,9.99999e-01
4.040100000e-01,5.86436e-24,9.99999e-01,9.99999e-01,5.86436e-24,9.99999e-01
4.060300500e-01,1.68697e-23,9.99999e-01,9.99999e-01,1.68697e-23,9.99999e-01
4.080602003e-01,4.75256e-23,9.99999e-01,9.99999e-01,4.75256e-23,9.99999e-01
4.101005013e-01,1.31179e-22,9.99999e-01,9.99999e-01,1.31179e-22,9.99999e-01
4.121510038e-01,3.54887e-22,9.99999e-01,9.99999e-01,3.54887e-22,9.99999e-01
4.142117588e-01,9.41409e-22,9.99999e-01,9.99999e-01,9.41409e-22,9.99999e-01
4.162828176e-01,2.44962e-21,9.99999e-01,9.99999e-01,2.44962e-21,9.99999e-01
4.183642317e-01,6.25482e-21,9.99999e-01,9.99999e-01,6.25482e-21,9.99999e-01
4.204560528e-01,1.56780e-20,9.99999e-01,9.99999e-01,1.56780e-20,9.99999e-01
4.225583331e-01,3.85906e-20,9.99999e-01,9.99999e-01,3.85906e-20,9.99999e-01
4.246711247e-01,9.33140e-20,9.99999e-01,9.99999e-01,9.33140e-20,9.99999e-01
4.267944804e-01,2.21737e-19,9.99999e-01,9.99999e-01,2.21737e-19,9.99999e-01
4.289284528e-01,5.17969e-19,9.99999e-01,9.99999e-01,5.17969e-19,9.99999e-01
4.310730950e-01,1.18985e-18,9.99999e-01,9.99999e-01,1.18985e-18,9.99999e-01
4.332284605e-01,2.68872e-18,9.99999e-01,9.99999e-01,2.68872e-18,9.99999e-01
4.353946028e-01,5.97867e-18,9.99999e-01,9.99999e-01,5.97867e-18,9.99999e-01
4.375715758e-01,1.30861e-17,9.99999e-01,9.99999e-01,1.30861e-17,9.99999e-01
4.397594337e-01,2.82029e-17,9.99999e-01,9.99999e-01,2.82029e-17,9.99999e-01
4.419582309e-01,5.98676e-17,9.99999e-01,9.99999e-01,5.98676e-17,9.99999e-01
4.441680220e-01,1.25208e-16,9.99999e-01,9.99999e-01,1.25208e-16,9.99999e-01
4.463888621e-01,2.58074e-16,9.99999e-01,9.99999e-01,2.58074e-16,9.99999e-01
4.486208064e-01,5.24385e-16,9.99999e-01,9.99999e-01,5.24385e-16,9.99999e-01
4.508639105e-01,1.05069e-15,9.99999e-01,9.99999e-01,1.05069e-15,9.99999e-01
4.531182300e-01,2.07653e-15,9.99999e-01,9.99999e-01,2.07653e-15,9.99999e-01
4.553838212e-01,4.04909e-15,9.99999e-01,9.99999e-01,4.04909e-15,9.99999e-01
4.576607403e-01,7.79198e-15,9.99999e-01,9.99999e-01,7.79198e-15,9.99999e-01
4.599490440e-01,1.48021e-14,9.99999e-01,9.99999e-01,1.48021e-14,9.99999e-01
4.622487892e-01,2.77647e-14,9.99999e-01,9.99999e-01,2.77647e-14,9.99999e-01
4.645600332e-01,5.14360e-14,9.99999e-01,9.99999e-01,5.14360e-14,9.99999e-01
4.668828333e-01,9.41354e-14,9.99999e-01,9.99999e-01,9.41354e-14,9.99999e-01
4.692172475e-01,1.70237e-13,9.99999e-01,9.99999e-01,1.70237e-13,9.99999e-01
4.715633337e-01,3.04279e-13,9.99999e-01,9.99999e-01,3.04279e-13,9.99999e-01
4.739211504e-01,5.37661e-13,9.99999e-01,9.99999e-01,5.37661e-13,9.99999e-01
4.762907561e-01,9.39423e-13,9.99999e-01,9.99999e-01,9.39423e-13,9.99999e-01
4.786722099e-01,1.62341e-12,9.99999e-01,9.99999e-01,1.62341e-12,9.99999e-01
4.810655710e-01,2.77524e-12,9.99999e-01,9.99999e-01,2.77524e-12,9.99999e-01
4.834708988e-01,4.69433e-12,9.99999e-01,9.99999e-01,4.69433e-12,9.99999e-01
4.858882533e-01,7.85847e-12,9.99999e-01,9.99999e-01,7.85847e-12,9.99999e-01
4.883176946e-01,1.30222e-11,9.99999e-01,9.99999e-01,1.30222e-11,9.99999e-01
4.907592831e-01,2.13646e-11,9.99999e-01,9.99999e-01,2.13646e-11,9.99999e-01
4.932130795e-01,3.47104e-11,9.99999e-01,9.99999e-01,3.47104e-11,9.99999e-01
4.956791449e-01,5.58549e-11,9.99999e-01,9.99999e-01,5.58549e-11,9.99999e-01
4.981575406e-01,8.90395e-11,9.99999e-01,9.99999e-01,8.90395e-11,9.99999e-01
5.006483283e-01,1.40638e-10,9.99999e-01,9.99999e-01,1.40638e-10,9.99999e-01
5.031515699e-01,2.20142e-10,9.99999e-01,9.99999e-01,2.20142e-10,9.99999e-01
5.056673278e-01,3.41553e-10,9.99999e-01,9.99999e-01,3.41553e-10,9.99999e-01
5.081956644e-01,5.25346e-10,9.99999e-01,9.99999e-01,5.25346e-10,9.99999e-01
5.107366428e-01,8.01198e-10,9.99999e-01,9.99999e-01,8.01198e-10,9.99999e-01
5.132903260e-01,1.21175e-09,9.99999e-01,9.99999e-01,1.21175e-09,9.99999e-01
5.158567776e-01,1.81777e-09,9.99999e-01,9.99999e-01,1.81777e-09,9.99999e-01
5.184360615e-01,2.70510e-09,9.99999e-01,9.99999e-01,2.70510e-09,9.99999e-01
5.210282418e-01,3.99411e-09,9.99999e-01,9.99999e-01,3.99411e-09,9.99999e-01
5.236333830e-01,5.85211e-09,9.99999e-01,9.99999e-01,5.85211e-09,9.99999e-01
5.262515499e-01,8.50998e-09,9.99999e-01,9.99999e-01,8.50998e-09,9.99999e-01
5.288828077e-01,1.22838e-08,9.99999e-01,9.99999e-01,1.22838e-08,9.99999e-01
5.315272217e-01,1.76030e-08,9.99999e-01,9.99999e-01,1.76030e-08,9.99999e-01
5.341848578e-01,2.50470e-08,9.99999e-01,9.99999e-01,2.50470e-08,9.99999e-01
5.368557821e-01,3.53916e-08,9.99999e-01,9.99999e-01,3.53916e-08,9.99999e-01
5.395400610e-01,4.96681e-08,9.99999e-01,9.99999e-01,4.96681e-08,9.99999e-01
5.422377613e-01,6.92386e-08,9.99999e-01,9.99999e-01,6.92386e-08,9.99999e-01
5.449489501e-01,9.58890e-08,9.99999e-01,9.99999e-01,9.58890e-08,9.99999e-01
5.476736949e-01,1.31946e-07,9.99999e-01,9.99999e-01,1.31946e-07,9.99999e-01
5.504120634e-01,1.80420e-07,9.99999e-01,9.99999e-01,1.80420e-07,9.99999e-01
5.531641237e-01,2.45183e-07,9.99999e-01,9.99999e-01,2.45183e-07,9.99999e-01
5.559299443e-01,3.31180e-07,9.99999e-01,9.99999e-01,3.31180e-07,9.99999e-01
5.587095940e-01,4.44692e-07,9.99999e-01,9.99999e-01,4.44692e-07,9.99999e-01
5.615031420e-01,5.93644e-07,9.99999e-01,9.99999e-01,5.93644e-07,9.99999e-01
5.643106577e-01,7.87978e-07,9.99999e-01,9.99999e-01,7.87978e-07,9.99999e-01
5.671322110e-01,1.04010e-06,9.99999e-01,9.99999e-01,1.04010e-06,9.99999e-01
5.699678720e-01,1.36537e-06,9.99999e-01,9.99999e-01,1.36537e-06,9.99999e-01
5.728177114e-01,1.78276e-06,9.99999e-01,9.99999e-01,1.78276e-06,9.99999e-01
5.756818000e-01,2.31552e-06,9.99999e-01,9.99999e-01,2.31552e-06,9.99999e-01
5.785602090e-01,2.99200e-06,9.99999e-01,9.99999e-01,2.99200e-06,9.99999e-01
5.814530100e-01,3.84658e-06,9.99999e-01,9.99999e-01,3.84658e-06,9.99999e-01
5.843602750e-01,4.92077e-06,9.99999e-01,9.99999e-01,4.92077e-06,9.99999e-01
5.872820764e-01,6.26439e-06,9.99999e-01,9.99999e-01,6.26439e-06,9.99999e-01
5.902184868e-01,7.93694e-06,9.99999e-01,9.99999e-01,7.93694e-06,9.99999e-01
5.931695792e-01,1.00092e-05,9.99999e-01,9.99999e-01,1.00092e-05,9.99999e-01
5.961354271e-01,1.25647e-05,9.99999e-01,9.99999e-01,1.25647e-05,9.99999e-01
5.991161043e-01,1.57020e-05,9.99999e-01,9.99999e-01,1.57020e-05,9.99999e-01
6.021116848e-01,1.95365e-05,9.99999e-01,9.99999e-01,1.95365e-05,9.99999e-01
6.051222432e-01,2.42028e-05,9.99999e-01,9.99999e-01,2.42028e-05,9.99999e-01
6.081478544e-01,2.98569e-05,9.99999e-01,9.99999e-01,2.98569e-05,9.99999e-01
6.111885937e-01,3.66796e-05,9.99999e-01,9.99999e-01,3.66796e-05,9.99999e-01
6.142445367e-01,4.48785e-05,9.99999e-01,9.99999e-01,4.48785e-05,9.99999e-01
6.173157594e-01,5.46916e-05,9.99999e-01,9.99999e-01,5.46916e-05,9.99999e-01
6.204023382e-01,6.63907e-05,9.99999e-01,9.99999e-01,6.63907e-05,9.99999e-01
6.235043498e-01,8.02844e-05,9.99999e-01,9.99999e-01,8.02844e-05,9.99999e-01
6.266218716e-01,9.67219e-05,9.99999e-01,9.99999e-01,9.67219e-05,9.99999e-01
6.297549810e-01,1.16097e-04,9.99999e-01,9.99999e-01,1.16097e-04,9.99999e-01
6.329037559e-01,1.38851e-04,9.99999e-01,9.99999e-01,1.38851e-04,9.99999e-01
6.360682746e-01,1.65480e-04,9.99999e-01,9.99999e-01,1.65480e-04,9.99999e-01
6.392486160e-01,1.96532e-04,9.99999e-01,9.99999e-01,1.96532e-04,9.99999e-01
6.424448591e-01,2.32620e-04,9.99999e-01,9.99999e-01,2.32620e-04,9.99999e-01
6.456570834e-01,2.74420e-04,9.99999e-01,9.99999e-01,2.74420e-04,9.99999e-01
6.488853688e-01,3.22675e-04,9.99999e-01,9.99999e-01,3.22675e-04,9.99999e-01
6.521297956e-01,3.78204e-04,9.99999e-01,9.99999e-01,3.78204e-04,9.99999e-01
6.553904446e-01,4.41900e-04,9.99999e-01,9.99999e-01,4.41900e-04,9.99999e-01
6.586673968e-01,5.14739e-04,9.99999e-01,9.99999e-01,5.14739e-04,9.99999e-01
6.619607338e-01,5.97780e-04,9.99999e-01,9.99999e-01,5.97780e-04,9.99999e-01
6.652705375e-01,6.92170e-04,9.99999e-01,9.99999e-01,6.92170e-04,9.99999e-01
6.685968902e-01,7.99147e-04,9.99999e-01,9.99999e-01,7.99147e-04,9.99999e-01
6.719398746e-01,9.20041e-04,9.99999e-01,9.99999e-01,9.20041e-04,9.99999e-01
6.752995740e-01,1.05628e-03,9.99999e-01,9.99999e-01,1.05628e-03,9.99999e-01
6.786760719e-01,1.20939e-03,9.99999e-01,9.99999e-01,1.20939e-03,9.99999e-01
6.820694522e-01,1.38100e-03,9.99999e-01,9.99999e-01,1.38100e-03,9.99999e-01
6.854797995e-01,1.57283e-03,9.99999e-01,9.99999e-01,1.57283e-03,9.99999e-01
6.889071985e-01,1.78671e-03,9.99999e-01,9.99999e-01,1.78671e-03,9.99999e-01
6.923517345e-01,2.02457e-03,9.99999e-01,9.99999e-01,2.02457e-03,9.99999e-01
6.958134932e-01,2.28844e-03,9.99999e-01,9.99999e-01,2.28844e-03,9.99999e-01
6.992925606e-01,2.58045e-03,9.99999e-01,9.99999e-01,2.58045e-03,9.99999e-01
7.027890234e-01,2.90283e-03,9.99999e-01,9.99999e-01,2.90283e-03,9.99999e-01
7.063029686e-01,3.25789e-03,9.99999e-01,9.99999e-01,3.25789e-03,9.99999e-01
7.098344834e-01,3.64806e-03,9.99999e-01,9.99999e-01,3.64806e-03,9.99999e-01
7.133836558e-01,4.07584e-03,9.99999e-01,9.99999e-01,4.07584e-03,9.99999e-01
7.169505741e-01,4.54383e-03,9.99999e-01,9.99999e-01,4.54383e-03,9.99999e-01
7.205353270e-01,5.05468e-03,9.99999e-01,9.99999e-01,5.05468e-03,9.99999e-01
7.241380036e-01,5.61114e-03,9.99999e-01,9.99999e-01,5.61114e-03,9.99999e-01
7.277586936e-01,6.21603e-03,9.99999e-01,9.99999e-01,6.21603e-03,9.99999e-01
7.313974871e-01,6.87221e-03,9.99999e-01,9.99999e-01,6.87221e-03,9.99999e-01
7.350544745e-01,7.58262e-03,9.99999e-01,9.99999e-01,7.58262e-03,9.99999e-01
7.387297469e-01,8.35022e-03,9.99999e-01,9.99999e-01,8.35022e-03,9.99999e-01
7.424233956e-01,9.17803e-03,9.99999e-01,9.99999e-01,9.17803e-03,9.99999e-01
7.461355126e-01,1.00691e-02,9.99999e-01,9.99999e-01,1.00691e-02,9.99999e-01
7.498661902e-01,1.10265e-02,9.99999e-01,9.99999e-01,1.10265e-02,9.99999e-01
7.536155211e-01,1.20532e-02,9.99999e-01,9.99999e-01,1.20532e-02,9.99999e-01
7.573835987e-01,1.31524e-02,9.99999e-01,9.99999e-01,1.31524e-02,9.99999e-01
7.611705167e-01,1.43272e-02,9.99999e-01,9.99999e-01,1.43272e-02,9.99999e-01
7.649763693e-01,1.55805e-02,9.99999e-01,9.99999e-01,1.55805e-02,9.99999e-01
7.688012511e-01,1.69154e-02,9.99999e-01,9.99999e-01,1.69154e-02,9.99999e-01
7.726452574e-01,1.83349e-02,9.99999e-01,9.99999e-01,1.83349e-02,9.99999e-01
7.765084837e-01,1.98418e-02,9.99999e-01,9.99999e-01,1.98418e-02,9.99999e-01
7.803910261e-01,1.85873e-02,9.99999e-01,8.66975e-01,2.14392e-02,9.99999e-01
7.842929812e-01,1.11563e-02,9.99999e-01,4.82332e-01,2.31298e-02,9.99999e-01
7.882144461e-01,1.15832e-02,9.99999e-01,4.64883e-01,2.49163e-02,9.99999e-01
7.921555184e-01,1.64046e-02,9.99999e-01,6.12082e-01,2.68014e-02,9.99999e-01
7.961162960e-01,2.06306e-02,9.99999e-01,7.16650e-01,2.87875e-02,9.99999e-01
8.000968774e-01,2.57525e-02,9.99999e-01,8.34028e-01,3.08773e-02,9.99999e-01
8.040973618e-01,3.01088e-02,9.99999e-01,9.10376e-01,3.30729e-02,9.99999e-01
8.081178486e-01,3.38736e-02,9.99999e-01,9.57512e-01,3.53766e-02,9.99999e-01
8.121584379e-01,3.72940e-02,9.99999e-01,9.86861e-01,3.77905e-02,9.99999e-01
8.162192301e-01,4.01988e-02,9.99999e-01,9.97079e-01,4.03165e-02,9.99999e-01
8.203003262e-01,4.29548e-02,9.99999e-01,9.99960e-01,4.29564e-02,9.99999e-01
8.244018279e-01,4.57119e-02,9.99999e-01,9.99999e-01,4.57119e-02,9.99999e-01
8.285238370e-01,4.85844e-02,9.99999e-01,9.99999e-01,4.85844e-02,9.99999e-01
8.326664562e-01,5.15753e-02,9.99999e-01,9.99999e-01,5.15753e-02,9.99999e-01
8.368297885e-01,5.46858e-02,9.99999e-01,9.99999e-01,5.46858e-02,9.99999e-01
8.410139374e-01,5.79168e-02,9.99999e-01,9.99999e-01,5.79168e-02,9.99999e-01
8.452190071e-01,6.12692e-02,9.99999e-01,9.99999e-01,6.12692e-02,9.99999e-01
8.494451021e-01,6.47437e-02,9.99999e-01,9.99999e-01,6.47437e-02,9.99999e-01
8.536923276e-01,6.83406e-02,9.99999e-01,9.99999e-01,6.83406e-02,9.99999e-01
8.579607893e-01,7.20605e-02,9.99999e-01,9.99999e-01,7.20605e-02,9.99999e-01
8.622505932e-01,7.59032e-02,9.99999e-01,9.99999e-01,7.59032e-02,9.99999e-01
8.665618462e-01,6.63263e-02,9.99999e-01,8.30438e-01,7.98689e-02,9.99999e-01
8.708946554e-01,1.44294e-02,9.99999e-01,1.71865e-01,8.39573e-02,9.99999e-01
8.752491287e-01,1.94688e-02,9.99999e-01,2.20815e-01,8.81680e-02,9.99999e-01
8.796253743e-01,3.93124e-02,9.99999e-01,4.24997e-01,9.25005e-02,9.99999e-01
8.840235012e-01,6.12819e-02,9.99999e-01,6.32073e-01,9.69539e-02,9.99999e-01
8.884436187e-01,8.45890e-02,9.99999e-01,8.33164e-01,1.01527e-01,9.99999e-01
8.928858368e-01,9.85957e-02,9.99999e-01,9.28222e-01,1.06220e-01,9.99999e-01
8.973502660e-01,1.09051e-01,9.99999e-01,9.82173e-01,1.11030e-01,9.99999e-01
9.018370173e-01,1.15728e-01,9.99999e-01,9.98028e-01,1.15957e-01,9.99999e-01
9.063462024e-01,1.14974e-01,9.99999e-01,9.50211e-01,1.20998e-01,9.99999e-01
9.108779334e-01,1.12173e-01,9.99999e-01,8.89185e-01,1.26152e-01,9.99999e-01
9.154323231e-01,1.27890e-01,9.99999e-01,9.73153e-01,1.31418e-01,9.99999e-01
9.200094847e-01,9.95925e-02,9.99999e-01,7.28053e-01,1.36793e-01,9.99999e-01
9.246095321e-01,8.05295e-02,9.99999e-01,5.66013e-01,1.42275e-01,9.99999e-01
9.292325798e-01,9.55500e-02,9.99999e-01,6.46211e-01,1.47862e-01,9.99999e-01
9.338787427e-01,1.00206e-01,9.99999e-01,6.52590e-01,1.53551e-01,9.99999e-01
9.385481364e-01,1.15895e-01,9.99999e-01,7.27341e-01,1.59341e-01,9.99999e-01
9.432408771e-01,1.35759e-01,9.99999e-01,8.21648e-01,1.65228e-01,9.99999e-01
9.479570815e-01,1.54721e-01,9.99999e-01,9.03695e-01,1.71209e-01,9.99999e-01
9.526968669e-01,1.68872e-01,9.99999e-01,9.52557e-01,1.77283e-01,9.99999e-01
9.574603512e-01,1.79669e-01,9.99999e-01,9.79412e-01,1.83446e-01,9.99999e-01
9.622476530e-01,1.88470e-01,9.99999e-01,9.93541e-01,1.89695e-01,9.99999e-01
9.670588912e-01,1.95648e-01,9.99999e-01,9.98064e-01,1.96027e-01,9.99999e-01
9.718941857e-01,2.02412e-01,9.99999e-01,9.99867e-01,2.02439e-01,9.99999e-01
9.767536566e-01,2.08928e-01,9.99999e-01,9.99999e-01,2.08928e-01,9.99999e-01
9.816374249e-01,2.15491e-01,9.99999e-01,9.99999e-01,2.15491e-01,9.99999e-01
9.865456120e-01,2.22124e-01,9.99999e-01,9.99999e-01,2.22124e-01,9.99999e-01
9.914783401e-01,2.28824e-01,9.99999e-01,9.99999e-01,2.28824e-01,9.99999e-01
9.964357318e-01,2.35588e-01,9.99999e-01,9.99999e-01,2.35588e-01,9.99999e-01
1.001417910e+00,2.42412e-01,9.99999e-01,9.99999e-01,2.42412e-01,9.99999e-01
1.006425000e+00,2.49293e-01,9.99999e-01,9.99999e-01,2.49293e-01,9.99999e-01
1.011457125e+00,2.56228e-01,9.99999e-01,9.99999e-01,2.56228e-01,9.99999e-01
1.016514411e+00,2.63214e-01,9.99999e-01,9.99999e-01,2.63214e-01,9.99999e-01
1.021596983e+00,2.70158e-01,9.99999e-01,9.99673e-01,2.70246e-01,9.99999e-01
1.026704968e+00,2.71674e-01,9.99999e-01,9.79637e-01,2.77321e-01,9.99999e-01
1.031838492e+00,2.44820e-01,9.99999e-01,8.60717e-01,2.84436e-01,9.99999e-01
1.036997685e+00,7.23057e-03,9.99999e-01,2.47971e-02,2.91589e-01,9.99999e-01
1.042182673e+00,7.21788e-05,9.99999e-01,2.41583e-04,2.98774e-01,9.99999e-01
1.047393587e+00,2.02228e-04,9.99999e-01,6.60899e-04,3.05989e-01,9.99999e-01
1.052630555e+00,1.54170e-10,9.99999e-01,4.92193e-10,3.13231e-01,9.99999e-01
1.057893707e+00,5.88164e-10,9.99999e-01,1.83517e-09,3.20496e-01,9.99999e-01
1.063183176e+00,1.75522e-07,9.99999e-01,5.35485e-07,3.27781e-01,9.99999e-01
1.068499092e+00,4.34478e-06,9.99999e-01,1.29663e-05,3.35083e-01,9.99999e-01
1.073841587e+00,2.06386e-04,9.99999e-01,6.02764e-04,3.42398e-01,9.99999e-01
1.079210795e+00,3.51689e-03,9.99999e-01,1.00562e-02,3.49724e-01,9.99999e-01
1.084606849e+00,2.48251e-02,9.99999e-01,6.95268e-02,3.57057e-01,9.99999e-01
1.090029883e+00,8.92214e-02,9.99999e-01,2.44848e-01,3.64395e-01,9.99999e-01
1.095480033e+00,1.84976e-01,9.99999e-01,4.97602e-01,3.71734e-01,9.99999e-01
1.100957433e+00,2.69821e-01,9.99999e-01,7.11792e-01,3.79072e-01,9.99999e-01
1.106462220e+00,3.35653e-01,9.99999e-01,8.68654e-01,3.86405e-01,9.99999e-01
1.111994531e+00,3.73654e-01,9.99999e-01,9.49008e-01,3.93731e-01,9.99999e-01
1.117554504e+00,3.95990e-01,9.99999e-01,9.87389e-01,4.01047e-01,9.99999e-01
1.123142276e+00,4.08014e-01,9.99999e-01,9.99174e-01,4.08351e-01,9.99999e-01
1.128757988e+00,4.15639e-01,9.99999e-01,9.99999e-01,4.15639e-01,9.99999e-01
1.134401778e+00,4.22910e-01,9.99999e-01,9.99999e-01,4.22910e-01,9.99999e-01
1.140073787e+00,4.30160e-01,9.99999e-01,9.99999e-01,4.30160e-01,9.99999e-01
1.145774156e+00,4.37388e-01,9.99999e-01,9.99999e-01,4.37388e-01,9.99999e-01
1.151503026e+00,4.44591e-01,9.99999e-01,9.99999e-01,4.44591e-01,9.99999e-01
1.157260541e+00,4.51767e-01,9.99999e-01,9.99999e-01,4.51767e-01,9.99999e-01
1.163046844e+00,4.58913e-01,9.99999e-01,9.99999e-01,4.58913e-01,9.99999e-01
1.168862078e+00,4.66028e-01,9.99999e-01,9.99999e-01,4.66028e-01,9.99999e-01
1.174706389e+00,4.73110e-01,9.99999e-01,9.99999e-01,4.73110e-01,9.99999e-01
1.180579921e+00,4.80156e-01,9.99999e-01,9.99999e-01,4.80156e-01,9.99999e-01
1.186482820e+00,4.87140e-01,9.99999e-01,9.99948e-01,4.87165e-01,9.99999e-01
1.192415234e+00,4.61173e-01,9.99999e-01,9.33293e-01,4.94134e-01,9.99999e-01
1.198377311e+00,2.37160e-01,9.99999e-01,4.73314e-01,5.01063e-01,9.99999e-01
1.204369197e+00,1.58276e-50,9.99999e-01,3.11598e-50,5.07949e-01,9.99999e-01
1.210391043e+00,1.13858e-209,9.99999e-01,2.21174e-209,5.14791e-01,9.99999e-01
1.216442998e+00,3.26536e-181,9.99999e-01,6.26043e-181,5.21587e-01,9.99999e-01
1.222525213e+00,1.81510e-178,9.99999e-01,3.43551e-178,5.28336e-01,9.99999e-01
1.228637839e+00,2.55651e-137,9.99999e-01,4.77820e-137,5.35037e-01,9.99999e-01
1.234781029e+00,8.79801e-85,9.99999e-01,1.62418e-84,5.41687e-01,9.99999e-01
1.240954934e+00,8.80089e-56,9.99999e-01,1.60516e-55,5.48287e-01,9.99999e-01
1.247159708e+00,5.80524e-26,9.99999e-01,1.04630e-25,5.54834e-01,9.99999e-01
1.253395507e+00,1.11446e-17,9.99999e-01,1.98540e-17,5.61328e-01,9.99999e-01
1.259662485e+00,4.05550e-10,9.99999e-01,7.14288e-10,5.67767e-01,9.99999e-01
1.265960797e+00,8.05840e-06,9.99999e-01,1.40353e-05,5.74150e-01,9.99999e-01
1.272290601e+00,2.21239e-03,9.99999e-01,3.81132e-03,5.80478e-01,9.99999e-01
1.278652054e+00,2.36886e-03,9.99999e-01,4.03727e-03,5.86748e-01,9.99999e-01
1.285045314e+00,1.32369e-07,9.99999e-01,2.23235e-07,5.92959e-01,9.99999e-01
1.291470541e+00,1.12759e-23,9.99999e-01,1.88209e-23,5.99112e-01,9.99999e-01
1.297927893e+00,1.66146e-07,9.99999e-01,2.74527e-07,6.05206e-01,9.99999e-01
1.304417533e+00,1.98587e-05,9.99999e-01,3.24892e-05,6.11239e-01,9.99999e-01
1.310939621e+00,4.51067e-06,9.99999e-01,7.30813e-06,6.17211e-01,9.99999e-01
1.317494319e+00,1.86443e-71,9.99999e-01,2.99208e-71,6.23122e-01,9.99999e-01
1.324081790e+00,7.20244e-32,9.99999e-01,1.14511e-31,6.28972e-01,9.99999e-01
1.330702199e+00,4.66787e-27,9.99999e-01,7.35377e-27,6.34759e-01,9.99999e-01
1.337355710e+00,3.13407e-24,9.99999e-01,4.89328e-24,6.40483e-01,9.99999e-01
1.344042489e+00,5.91401e-29,9.99999e-01,9.15277e-29,6.46144e-01,9.99999e-01
1.350762701e+00,2.04928e-27,9.99999e-01,3.14431e-27,6.51742e-01,9.99999e-01
1.357516515e+00,5.16699e-16,9.99999e-01,7.86120e-16,6.57277e-01,9.99999e-01
1.364304097e+00,6.18645e-12,9.99999e-01,9.33454e-12,6.62748e-01,9.99999e-01
1.371125618e+00,1.70192e-06,9.99999e-01,2.54720e-06,6.68155e-01,9.99999e-01
1.377981246e+00,8.77040e-06,9.99999e-01,1.30222e-05,6.73498e-01,9.99999e-01
1.384871152e+00,8.86214e-04,9.99999e-01,1.30560e-03,6.78777e-01,9.99999e-01
1.391795508e+00,1.66300e-03,9.99999e-01,2.43131e-03,6.83992e-01,9.99999e-01
1.398754485e+00,1.37651e-02,9.99999e-01,1.99742e-02,6.89142e-01,9.99999e-01
1.405748258e+00,4.17059e-02,9.99999e-01,6.00750e-02,6.94229e-01,9.99999e-01
1.412776999e+00,1.15412e-01,9.99999e-01,1.65050e-01,6.99251e-01,9.99999e-01
1.419840884e+00,1.18682e-01,9.99999e-01,1.68532e-01,7.04210e-01,9.99999e-01
1.426940089e+00,3.00073e-03,9.99999e-01,4.23171e-03,7.09105e-01,9.99999e-01
1.434074789e+00,0.00000e+00,9.99999e-01,0.00000e+00,7.13936e-01,9.99999e-01
1.441245163e+00,0.00000e+00,9.99999e-01,0.00000e+00,7.18704e-01,9.99999e-01
1.448451389e+00,0.00000e+00,9.99999e-01,0.00000e+00,7.23408e-01,9.99999e-01
1.455693646e+00,0.00000e+00,9.99999e-01,0.00000e+00,7.28050e-01,9.99999e-01
1.462972114e+00,0.00000e+00,9.99999e-01,0.00000e+00,7.32628e-01,9.99999e-01
1.470286975e+00,0.00000e+00,9.99999e-01,0.00000e+00,7.37144e-01,9.99999e-01
