#,Wave/freq,Total,O2,CO2,Rayleigh,CIA
4.000000000e-01,1.58514e-02,9.99999e-01,9.99999e-01,1.58514e-02,9.99999e-01
4.020000000e-01,1.72051e-02,9.99999e-01,9.99999e-01,1.72051e-02,9.99999e-01
4.040100000e-01,1.86427e-02,9.99999e-01,9.99999e-01,1.86427e-02,9.99999e-01
4.060300500e-01,2.01683e-02,9.99999e-01,9.99999e-01,2.01683e-02,9.99999e-01
4.080602003e-01,2.17850e-02,9.99999e-01,9.99999e-01,2.17850e-02,9.99999e-01
4.101005013e-01,2.34954e-02,9.99999e-01,9.99999e-01,2.34954e-02,9.99999e-01
4.121510038e-01,2.53023e-02,9.99999e-01,9.99999e-01,2.53023e-02,9.99999e-01
4.142117588e-01,2.72083e-02,9.99999e-01,9.99999e-01,2.72083e-02,9.99999e-01
4.162828176e-01,2.92159e-02,9.99999e-01,9.99999e-01,2.92159e-02,9.99999e-01
4.183642317e-01,3.13276e-02,9.99999e-01,9.99999e-01,3.13276e-02,9.99999e-01
4.204560528e-01,3.35457e-02,9.99999e-01,9.99999e-01,3.35457e-02,9.99999e-01
4.225583331e-01,3.58723e-02,9.99999e-01,9.99999e-01,3.58723e-02,9.99999e-01
4.246711247e-01,3.83095e-02,9.99999e-01,9.99999e-01,3.83095e-02,9.99999e-01
4.267944804e-01,4.08591e-02,9.99999e-01,9.99999e-01,4.08591e-02,9.99999e-01
4.289284528e-01,4.35231e-02,9.99999e-01,9.99999e-01,4.35231e-02,9.99999e-01
4.310730950e-01,4.63029e-02,9.99999e-01,9.99999e-01,4.63029e-02,9.99999e-01
4.332284605e-01,4.92001e-02,9.99999e-01,9.99999e-01,4.92001e-02,9.99999e-01
4.353946028e-01,5.22159e-02,9.99999e-01,9.99999e-01,5.22159e-02,9.99999e-01
4.375715758e-01,5.53515e-02,9.99999e-01,9.99999e-01,5.53515e-02,9.99999e-01
4.397594337e-01,5.86078e-02,9.99999e-01,9.99999e-01,5.86078e-02,9.99999e-01
4.419582309e-01,6.19857e-02,9.99999e-01,9.99999e-01,6.19857e-02,9.99999e-01
4.441680220e-01,6.54857e-02,9.99999e-01,9.99999e-01,6.54857e-02,9.99999e-01
4.463888621e-01,6.91084e-02,9.99999e-01,9.99999e-01,6.91084e-02,9.99999e-01
4.486208064e-01,7.28539e-02,9.99999e-01,9.99999e-01,7.28539e-02,9.99999e-01
4.508639105e-01,7.67224e-02,9.99999e-01,9.99999e-01,7.67224e-02,9.99999e-01
4.531182300e-01,8.07138e-02,9.99999e-01,9.99999e-01,8.07138e-02,9.99999e-01
4.553838212e-01,8.48278e-02,9.99999e-01,9.99999e-01,8.48278e-02,9.99999e-01
4.576607403e-01,8.90640e-02,9.99999e-01,9.99999e-01,8.90640e-02,9.99999e-01
4.599490440e-01,9.34218e-02,9.99999e-01,9.99999e-01,9.34218e-02,9.99999e-01
4.622487892e-01,9.79004e-02,9.99999e-01,9.99999e-01,9.79004e-02,9.99999e-01
4.645600332e-01,1.02499e-01,9.99999e-01,9.99999e-01,1.02499e-01,9.99999e-01
4.668828333e-01,1.07216e-01,9.99999e-01,9.99999e-01,1.07216e-01,9.99999e-01
4.692172475e-01,1.12051e-01,9.99999e-01,9.99999e-01,1.12051e-01,9.99999e-01
4.715633337e-01,1.17001e-01,9.99999e-01,9.99999e-01,1.17001e-01,9.99999e-01
4.739211504e-01,1.22066e-01,9.99999e-01,9.99999e-01,1.22066e-01,9.99999e-01
4.762907561e-01,1.27244e-01,9.99999e-01,9.99999e-01,1.27244e-01,9.99999e-01
4.786722099e-01,1.32533e-01,9.99999e-01,9.99999e-01,1.32533e-01,9.99999e-01
4.810655710e-01,1.37930e-01,9.99999e-01,9.99999e-01,1.37930e-01,9.99999e-01
4.834708988e-01,1.43435e-01,9.99999e-01,9.99999e-01,1.43435e-01,9.99999e-01
4.858882533e-01,1.49043e-01,9.99999e-01,9.99999e-01,1.49043e-01,9.99999e-01
4.883176946e-01,1.54754e-01,9.99999e-01,9.99999e-01,1.54754e-01,9.99999e-01
4.907592831e-01,1.60564e-01,9.99999e-01,9.99999e-01,1.60564e-01,9.99999e-01
4.932130795e-01,1.66471e-01,9.99999e-01,9.99999e-01,1.66471e-01,9.99999e-01
4.956791449e-01,1.72472e-01,9.99999e-01,9.99999e-01,1.72472e-01,9.99999e-01
4.981575406e-01,1.78565e-01,9.99999e-01,9.99999e-01,1.78565e-01,9.99999e-01
5.006483283e-01,1.84746e-01,9.99999e-01,9.99999e-01,1.84746e-01,9.99999e-01
5.031515699e-01,1.91012e-01,9.99999e-01,9.99999e-01,1.91012e-01,9.99999e-01
5.056673278e-01,1.97361e-01,9.99999e-01,9.99999e-01,1.97361e-01,9.99999e-01
5.081956644e-01,2.03790e-01,9.99999e-01,9.99999e-01,2.03790e-01,9.99999e-01
5.107366428e-01,2.10294e-01,9.99999e-01,9.99999e-01,2.10294e-01,9.99999e-01
5.132903260e-01,2.16872e-01,9.99999e-01,9.99999e-01,2.16872e-01,9.99999e-01
5.158567776e-01,2.23519e-01,9.99999e-01,9.99999e-01,2.23519e-01,9.99999e-01
5.184360615e-01,2.30233e-01,9.99999e-01,9.99999e-01,2.30233e-01,9.99999e-01
5.210282418e-01,2.37010e-01,9.99999e-01,9.99999e-01,2.37010e-01,9.99999e-01
5.236333830e-01,2.43847e-01,9.99999e-01,9.99999e-01,2.43847e-01,9.99999e-01
5.262515499e-01,2.50739e-01,9.99999e-01,9.99999e-01,2.50739e-01,9.99999e-01
5.288828077e-01,2.57685e-01,9.99999e-01,9.99999e-01,2.57685e-01,9.99999e-01
5.315272217e-01,2.64680e-01,9.99999e-01,9.99999e-01,2.64680e-01,9.99999e-01
5.341848578e-01,2.71722e-01,9.99999e-01,9.99999e-01,2.71722e-01,9.99999e-01
5.368557821e-01,2.78806e-01,9.99999e-01,9.99999e-01,2.78806e-01,9.99999e-01
5.395400610e-01,2.85929e-01,9.99999e-01,9.99999e-01,2.85929e-01,9.99999e-01
5.422377613e-01,2.93089e-01,9.99999e-01,9.99999e-01,2.93089e-01,9.99999e-01
5.449489501e-01,3.00280e-01,9.99999e-01,9.99999e-01,3.00280e-01,9.99999e-01
5.476736949e-01,3.07501e-01,9.99999e-01,9.99999e-01,3.07501e-01,9.99999e-01
5.504120634e-01,3.14748e-01,9.99999e-01,9.99999e-01,3.14748e-01,9.99999e-01
5.531641237e-01,3.22018e-01,9.99999e-01,9.99999e-01,3.22018e-01,9.99999e-01
5.559299443e-01,3.29307e-01,9.99999e-01,9.99999e-01,3.29307e-01,9.99999e-01
5.587095940e-01,3.36611e-01,9.99999e-01,9.99999e-01,3.36611e-01,9.99999e-01
5.615031420e-01,3.43929e-01,9.99999e-01,9.99999e-01,3.43929e-01,9.99999e-01
5.643106577e-01,3.51257e-01,9.99999e-01,9.99999e-01,3.51257e-01,9.99999e-01
5.671322110e-01,3.58592e-01,9.99999e-01,9.99999e-01,3.58592e-01,9.99999e-01
5.699678720e-01,3.65930e-01,9.99999e-01,9.99999e-01,3.65930e-01,9.99999e-01
5.728177114e-01,3.73269e-01,9.99999e-01,9.99999e-01,3.73269e-01,9.99999e-01
5.756818000e-01,3.80606e-01,9.99999e-01,9.99999e-01,3.80606e-01,9.99999e-01
5.785602090e-01,3.87938e-01,9.99999e-01,9.99999e-01,3.87938e-01,9.99999e-01
5.814530100e-01,3.95262e-01,9.99999e-01,9.99999e-01,3.95262e-01,9.99999e-01
5.843602750e-01,4.02576e-01,9.99999e-01,9.99999e-01,4.02576e-01,9.99999e-01
5.872820764e-01,4.09876e-01,9.99999e-01,9.99999e-01,4.09876e-01,9.99999e-01
5.902184868e-01,4.17161e-01,9.99999e-01,9.99999e-01,4.17161e-01,9.99999e-01
5.931695792e-01,4.24428e-01,9.99999e-01,9.99999e-01,4.24428e-01,9.99999e-01
5.961354271e-01,4.31674e-01,9.99999e-01,9.99999e-01,4.31674e-01,9.99999e-01
5.991161043e-01,4.38897e-01,9.99999e-01,9.99999e-01,4.38897e-01,9.99999e-01
6.021116848e-01,4.46094e-01,9.99999e-01,9.99999e-01,4.46094e-01,9.99999e-01
6.051222432e-01,4.53264e-01,9.99999e-01,9.99999e-01,4.53264e-01,9.99999e-01
6.081478544e-01,4.60404e-01,9.99999e-01,9.99999e-01,4.60404e-01,9.99999e-01
6.111885937e-01,4.67512e-01,9.99999e-01,9.99999e-01,4.67512e-01,9.99999e-01
6.142445367e-01,4.74586e-01,9.99999e-01,9.99999e-01,4.74586e-01,9.99999e-01
6.173157594e-01,4.81625e-01,9.99999e-01,9.99999e-01,4.81625e-01,9.99999e-01
6.204023382e-01,4.88625e-01,9.99999e-01,9.99999e-01,4.88625e-01,9.99999e-01
6.235043498e-01,4.95587e-01,9.99999e-01,9.99999e-01,4.95587e-01,9.99999e-01
6.266218716e-01,5.02507e-01,9.99999e-01,9.99999e-01,5.02507e-01,9.99999e-01
6.297549810e-01,5.09384e-01,9.99999e-01,9.99999e-01,5.09384e-01,9.99999e-01
6.329037559e-01,5.16216e-01,9.99999e-01,9.99999e-01,5.16216e-01,9.99999e-01
6.360682746e-01,5.23002e-01,9.99999e-01,9.99999e-01,5.23002e-01,9.99999e-01
6.392486160e-01,5.29741e-01,9.99999e-01,9.99999e-01,5.29741e-01,9.99999e-01
6.424448591e-01,5.36432e-01,9.99999e-01,9.99999e-01,5.36432e-01,9.99999e-01
6.456570834e-01,5.43072e-01,9.99999e-01,9.99999e-01,5.43072e-01,9.99999e-01
6.488853688e-01,5.49660e-01,9.99999e-01,9.99999e-01,5.49660e-01,9.99999e-01
6.521297956e-01,5.56196e-01,9.99999e-01,9.99999e-01,5.56196e-01,9.99999e-01
6.553904446e-01,5.62679e-01,9.99999e-01,9.99999e-01,5.62679e-01,9.99999e-01
6.586673968e-01,5.69106e-01,9.99999e-01,9.99999e-01,5.69106e-01,9.99999e-01
6.619607338e-01,5.75478e-01,9.99999e-01,9.99999e-01,5.75478e-01,9.99999e-01
6.652705375e-01,5.81794e-01,9.99999e-01,9.99999e-01,5.81794e-01,9.99999e-01
6.685968902e-01,5.88052e-01,9.99999e-01,9.99999e-01,5.88052e-01,9.99999e-01
6.719398746e-01,5.94251e-01,9.99999e-01,9.99999e-01,5.94251e-01,9.99999e-01
6.752995740e-01,6.00392e-01,9.99999e-01,9.99999e-01,6.00392e-01,9.99999e-01
6.786760719e-01,6.06473e-01,9.99999e-01,9.99999e-01,6.06473e-01,9.99999e-01
6.820694522e-01,6.12493e-01,9.99999e-01,9.99999e-01,6.12493e-01,9.99999e-01
6.854797995e-01,6.18453e-01,9.99999e-01,9.99999e-01,6.18453e-01,9.99999e-01
6.889071985e-01,6.24351e-01,9.99999e-01,9.99999e-01,6.24351e-01,9.99999e-01
6.923517345e-01,6.30187e-01,9.99999e-01,9.99999e-01,6.30187e-01,9.99999e-01
6.958134932e-01,6.35961e-01,9.99999e-01,9.99999e-01,6.35961e-01,9.99999e-01
6.992925606e-01,6.41672e-01,9.99999e-01,9.99999e-01,6.41672e-01,9.99999e-01
7.027890234e-01,6.47320e-01,9.99999e-01,9.99999e-01,6.47320e-01,9.99999e-01
7.063029686e-01,6.52905e-01,9.99999e-01,9.99999e-01,6.52905e-01,9.99999e-01
7.098344834e-01,6.58426e-01,9.99999e-01,9.99999e-01,6.58426e-01,9.99999e-01
7.133836558e-01,6.63884e-01,9.99999e-01,9.99999e-01,6.63884e-01,9.99999e-01
7.169505741e-01,6.69277e-01,9.99999e-01,9.99999e-01,6.69277e-01,9.99999e-01
7.205353270e-01,6.74607e-01,9.99999e-01,9.99999e-01,6.74607e-01,9.99999e-01
7.241380036e-01,6.79873e-01,9.99999e-01,9.99999e-01,6.79873e-01,9.99999e-01
7.277586936e-01,6.85074e-01,9.99999e-01,9.99999e-01,6.85074e-01,9.99999e-01
7.313974871e-01,6.90211e-01,9.99999e-01,9.99999e-01,6.90211e-01,9.99999e-01
7.350544745e-01,6.95285e-01,9.99999e-01,9.99999e-01,6.95285e-01,9.99999e-01
7.387297469e-01,7.00294e-01,9.99999e-01,9.99999e-01,7.00294e-01,9.99999e-01
7.424233956e-01,7.05239e-01,9.99999e-01,9.99999e-01,7.05239e-01,9.99999e-01
7.461355126e-01,7.10121e-01,9.99999e-01,9.99999e-01,7.10121e-01,9.99999e-01
7.498661902e-01,7.14938e-01,9.99999e-01,9.99999e-01,7.14938e-01,9.99999e-01
7.536155211e-01,7.19693e-01,9.99999e-01,9.99999e-01,7.19693e-01,9.99999e-01
7.573835987e-01,7.24384e-01,9.99999e-01,9.99999e-01,7.24384e-01,9.99999e-01
7.611705167e-01,7.29012e-01,9.99999e-01,9.99999e-01,7.29012e-01,9.99999e-01
7.649763693e-01,7.33578e-01,9.99999e-01,9.99999e-01,7.33578e-01,9.99999e-01
7.688012511e-01,7.38081e-01,9.99999e-01,9.99999e-01,7.38081e-01,9.99999e-01
7.726452574e-01,7.42522e-01,9.99999e-01,9.99999e-01,7.42522e-01,9.99999e-01
7.765084837e-01,7.46901e-01,9.99999e-01,9.99999e-01,7.46901e-01,9.99999e-01
7.803910261e-01,7.40776e-01,9.99999e-01,9.86098e-01,7.51219e-01,9.99999e-01
7.842929812e-01,7.10103e-01,9.99999e-01,9.39942e-01,7.55475e-01,9.99999e-01
7.882144461e-01,7.10996e-01,9.99999e-01,9.35926e-01,7.59671e-01,9.99999e-01
7.921555184e-01,7.35407e-01,9.99999e-01,9.62817e-01,7.63807e-01,9.99999e-01
7.961162960e-01,7.48592e-01,9.99999e-01,9.74877e-01,7.67883e-01,9.99999e-01
8.000968774e-01,7.61350e-01,9.99999e-01,9.86333e-01,7.71899e-01,9.99999e-01
8.040973618e-01,7.70331e-01,9.99999e-01,9.92877e-01,7.75857e-01,9.99999e-01
8.081178486e-01,7.77212e-01,9.99999e-01,9.96737e-01,7.79756e-01,9.99999e-01
8.121584379e-01,7.82801e-01,9.99999e-01,9.98983e-01,7.83597e-01,9.99999e-01
8.162192301e-01,7.87204e-01,9.99999e-01,9.99775e-01,7.87381e-01,9.99999e-01
8.203003262e-01,7.91104e-01,9.99999e-01,9.99995e-01,7.91107e-01,9.99999e-01
8.244018279e-01,7.94777e-01,9.99999e-01,9.99999e-01,7.94777e-01,9.99999e-01
8.285238370e-01,7.98391e-01,9.99999e-01,9.99999e-01,7.98391e-01,9.99999e-01
8.326664562e-01,8.01950e-01,9.99999e-01,9.99999e-01,8.01950e-01,9.99999e-01
8.368297885e-01,8.05454e-01,9.99999e-01,9.99999e-01,8.05454e-01,9.99999e-01
8.410139374e-01,8.08903e-01,9.99999e-01,9.99999e-01,8.08903e-01,9.99999e-01
8.452190071e-01,8.12299e-01,9.99999e-01,9.99999e-01,8.12299e-01,9.99999e-01
8.494451021e-01,8.15641e-01,9.99999e-01,9.99999e-01,8.15641e-01,9.99999e-01
8.536923276e-01,8.18931e-01,9.99999e-01,9.99999e-01,8.18931e-01,9.99999e-01
8.579607893e-01,8.22168e-01,9.99999e-01,9.99999e-01,8.22168e-01,9.99999e-01
8.622505932e-01,8.25354e-01,9.99999e-01,9.99999e-01,8.25354e-01,9.99999e-01
8.665618462e-01,7.96678e-01,9.99999e-01,9.61603e-01,8.28490e-01,9.99999e-01
8.708946554e-01,7.08888e-01,9.99999e-01,8.52464e-01,8.31574e-01,9.99999e-01
8.752491287e-01,7.35088e-01,9.99999e-01,8.80756e-01,8.34609e-01,9.99999e-01
8.796253743e-01,7.81812e-01,9.99999e-01,9.33400e-01,8.37595e-01,9.99999e-01
8.840235012e-01,8.11215e-01,9.99999e-01,9.65119e-01,8.40532e-01,9.99999e-01
8.884436187e-01,8.31688e-01,9.99999e-01,9.86087e-01,8.43421e-01,9.99999e-01
8.928858368e-01,8.41491e-01,9.99999e-01,9.94360e-01,8.46263e-01,9.99999e-01
8.973502660e-01,8.47887e-01,9.99999e-01,9.98620e-01,8.49058e-01,9.99999e-01
9.018370173e-01,8.51677e-01,9.99999e-01,9.99847e-01,8.51807e-01,9.99999e-01
9.063462024e-01,8.51249e-01,9.99999e-01,9.96183e-01,8.54510e-01,9.99999e-01
9.108779334e-01,8.49559e-01,9.99999e-01,9.91122e-01,8.57167e-01,9.99999e-01
9.154323231e-01,8.57970e-01,9.99999e-01,9.97893e-01,8.59781e-01,9.99999e-01
9.200094847e-01,8.35812e-01,9.99999e-01,9.69225e-01,8.62350e-01,9.99999e-01
9.246095321e-01,8.27900e-01,9.99999e-01,9.57245e-01,8.64877e-01,9.99999e-01
9.292325798e-01,8.38255e-01,9.99999e-01,9.66443e-01,8.67360e-01,9.99999e-01
9.338787427e-01,8.41435e-01,9.99999e-01,9.67387e-01,8.69802e-01,9.99999e-01
9.385481364e-01,8.51273e-01,9.99999e-01,9.76004e-01,8.72201e-01,9.99999e-01
9.432408771e-01,8.61640e-01,9.99999e-01,9.85226e-01,8.74560e-01,9.99999e-01
9.479570815e-01,8.70228e-01,9.99999e-01,9.92414e-01,8.76879e-01,9.99999e-01
9.526968669e-01,8.75931e-01,9.99999e-01,9.96329e-01,8.79157e-01,9.99999e-01
9.574603512e-01,8.80012e-01,9.99999e-01,9.98428e-01,8.81397e-01,9.99999e-01
9.622476530e-01,8.83164e-01,9.99999e-01,9.99509e-01,8.83597e-01,9.99999e-01
9.670588912e-01,8.85630e-01,9.99999e-01,9.99852e-01,8.85760e-01,9.99999e-01
9.718941857e-01,8.87875e-01,9.99999e-01,9.99988e-01,8.87885e-01,9.99999e-01
9.767536566e-01,8.89973e-01,9.99999e-01,9.99999e-01,8.89973e-01,9.99999e-01
9.816374249e-01,8.92024e-01,9.99999e-01,9.99999e-01,8.92024e-01,9.99999e-01
9.865456120e-01,8.94040e-01,9.99999e-01,9.99999e-01,8.94040e-01,9.99999e-01
9.914783401e-01,8.96020e-01,9.99999e-01,9.99999e-01,8.96020e-01,9.99999e-01
9.964357318e-01,8.97965e-01,9.99999e-01,9.99999e-01,8.97965e-01,9.99999e-01
1.001417910e+00,8.99876e-01,9.99999e-01,9.99999e-01,8.99876e-01,9.99999e-01
1.006425000e+00,9.01753e-01,9.99999e-01,9.99999e-01,9.01753e-01,9.99999e-01
1.011457125e+00,9.03597e-01,9.99999e-01,9.99999e-01,9.03597e-01,9.99999e-01
1.016514411e+00,9.05408e-01,9.99999e-01,9.99999e-01,9.05408e-01,9.99999e-01
1.021596983e+00,9.07170e-01,9.99999e-01,9.99981e-01,9.07187e-01,9.99999e-01
1.026704968e+00,9.07590e-01,9.99999e-01,9.98521e-01,9.08934e-01,9.99999e-01
1.031838492e+00,8.91004e-01,9.99999e-01,9.78426e-01,9.10650e-01,9.99999e-01
1.036997685e+00,3.04208e-01,9.99999e-01,3.33439e-01,9.12335e-01,9.99999e-01
1.042182673e+00,3.71927e-01,9.99999e-01,4.06927e-01,9.13990e-01,9.99999e-01
1.047393587e+00,3.38305e-01,9.99999e-01,3.69483e-01,9.15615e-01,9.99999e-01
1.052630555e+00,6.81351e-02,9.99999e-01,7.42851e-02,9.17211e-01,9.99999e-01
1.057893707e+00,1.19795e-01,9.99999e-01,1.30385e-01,9.18778e-01,9.99999e-01
1.063183176e+00,2.11890e-01,9.99999e-01,2.30235e-01,9.20316e-01,9.99999e-01
1.068499092e+00,3.49507e-01,9.99999e-01,3.79145e-01,9.21827e-01,9.99999e-01
1.073841587e+00,5.00034e-01,9.99999e-01,5.41566e-01,9.23310e-01,9.99999e-01
1.079210795e+00,6.28642e-01,9.99999e-01,6.79784e-01,9.24767e-01,9.99999e-01
1.084606849e+00,7.50293e-01,9.99999e-01,8.10079e-01,9.26197e-01,9.99999e-01
1.090029883e+00,8.31926e-01,9.99999e-01,8.96857e-01,9.27600e-01,9.99999e-01
1.095480033e+00,8.80461e-01,9.99999e-01,9.47773e-01,9.28978e-01,9.99999e-01
1.100957433e+00,9.06644e-01,9.99999e-01,9.74538e-01,9.30331e-01,9.99999e-01
1.106462220e+00,9.21771e-01,9.99999e-01,9.89386e-01,9.31659e-01,9.99999e-01
1.111994531e+00,9.29282e-01,9.99999e-01,9.96054e-01,9.32963e-01,9.99999e-01
1.117554504e+00,9.33338e-01,9.99999e-01,9.99031e-01,9.34242e-01,9.99999e-01
1.123142276e+00,9.35438e-01,9.99999e-01,9.99935e-01,9.35498e-01,9.99999e-01
1.128757988e+00,9.36731e-01,9.99999e-01,9.99999e-01,9.36731e-01,9.99999e-01
1.134401778e+00,9.37941e-01,9.99999e-01,9.99999e-01,9.37941e-01,9.99999e-01
1.140073787e+00,9.39129e-01,9.99999e-01,9.99999e-01,9.39129e-01,9.99999e-01
1.145774156e+00,9.40295e-01,9.99999e-01,9.99999e-01,9.40295e-01,9.99999e-01
1.151503026e+00,9.41439e-01,9.99999e-01,9.99999e-01,9.41439e-01,9.99999e-01
1.157260541e+00,9.42561e-01,9.99999e-01,9.99999e-01,9.42561e-01,9.99999e-01
1.163046844e+00,9.43663e-01,9.99999e-01,9.99999e-01,9.43663e-01,9.99999e-01
1.168862078e+00,9.44745e-01,9.99999e-01,9.99999e-01,9.44745e-01,9.99999e-01
1.174706389e+00,9.45806e-01,9.99999e-01,9.99999e-01,9.45806e-01,9.99999e-01
1.180579921e+00,9.46848e-01,9.99999e-01,9.99999e-01,9.46848e-01,9.99999e-01
1.186482820e+00,9.47868e-01,9.99999e-01,9.99997e-01,9.47870e-01,9.99999e-01
1.192415234e+00,9.43849e-01,9.99999e-01,9.94704e-01,9.48873e-01,9.99999e-01
1.198377311e+00,5.67635e-01,9.99999e-01,5.97600e-01,9.49857e-01,9.99999e-01
1.204369197e+00,7.74902e-06,9.99999e-01,8.14981e-06,9.50822e-01,9.99999e-01
1.210391043e+00,1.09418e-17,9.99999e-01,1.14962e-17,9.51770e-01,9.99999e-01
1.216442998e+00,1.48276e-15,9.99999e-01,1.55638e-15,9.52700e-01,9.99999e-01
1.222525213e+00,2.58115e-15,9.99999e-01,2.70671e-15,9.53612e-01,9.99999e-01
1.228637839e+00,9.66641e-12,9.99999e-01,1.01271e-11,9.54507e-01,9.99999e-01
1.234781029e+00,2.42412e-08,9.99999e-01,2.53732e-08,9.55385e-01,9.99999e-01
1.240954934e+00,1.08157e-05,9.99999e-01,1.13106e-05,9.56247e-01,9.99999e-01
1.247159708e+00,1.65568e-03,9.99999e-01,1.72991e-03,9.57092e-01,9.99999e-01
1.253395507e+00,2.98177e-02,9.99999e-01,3.11274e-02,9.57922e-01,9.99999e-01
1.259662485e+00,1.14415e-01,9.99999e-01,1.19340e-01,9.58735e-01,9.99999e-01
1.265960797e+00,3.07260e-01,9.99999e-01,3.20217e-01,9.59534e-01,9.99999e-01
1.272290601e+00,5.81549e-01,9.99999e-01,6.05580e-01,9.60317e-01,9.99999e-01
1.278652054e+00,5.45102e-01,9.99999e-01,5.67173e-01,9.61085e-01,9.99999e-01
1.285045314e+00,6.02746e-02,9.99999e-01,6.26660e-02,9.61839e-01,9.99999e-01
1.291470541e+00,9.50650e-03,9.99999e-01,9.87606e-03,9.62579e-01,9.99999e-01
1.297927893e+00,6.70572e-02,9.99999e-01,6.96116e-02,9.63304e-01,9.99999e-01
1.304417533e+00,4.15769e-01,9.99999e-01,4.31288e-01,9.64016e-01,9.99999e-01
1.310939621e+00,1.27477e-01,9.99999e-01,1.32140e-01,9.64714e-01,9.99999e-01
1.317494319e+00,1.73632e-06,9.99999e-01,1.79855e-06,9.65398e-01,9.99999e-01
1.324081790e+00,6.52025e-05,9.99999e-01,6.74925e-05,9.66070e-01,9.99999e-01
1.330702199e+00,6.56161e-03,9.99999e-01,6.78742e-03,9.66729e-01,9.99999e-01
1.337355710e+00,4.35591e-03,9.99999e-01,4.50281e-03,9.67375e-01,9.99999e-01
1.344042489e+00,1.75231e-03,9.99999e-01,1.81021e-03,9.68009e-01,9.99999e-01
1.350762701e+00,5.27887e-03,9.99999e-01,5.44982e-03,9.68631e-01,9.99999e-01
1.357516515e+00,3.05963e-02,9.99999e-01,3.15672e-02,9.69241e-01,9.99999e-01
1.364304097e+00,1.15583e-01,9.99999e-01,1.19177e-01,9.69839e-01,9.99999e-01
1.371125618e+00,3.13206e-01,9.99999e-01,3.22750e-01,9.70426e-01,9.99999e-01
1.377981246e+00,3.96868e-01,9.99999e-01,4.08720e-01,9.71002e-01,9.99999e-01
1.384871152e+00,5.76735e-01,9.99999e-01,5.93613e-01,9.71566e-01,9.99999e-01
1.391795508e+00,6.00684e-01,9.99999e-01,6.17911e-01,9.72120e-01,9.99999e-01
1.398754485e+00,7.23756e-01,9.99999e-01,7.44097e-01,9.72663e-01,9.99999e-01
1.405748258e+00,7.82167e-01,9.99999e-01,8.03709e-01,9.73196e-01,9.99999e-01
1.412776999e+00,8.48427e-01,9.99999e-01,8.71326e-01,9.73718e-01,9.99999e-01
1.419840884e+00,7.96524e-01,9.99999e-01,8.17592e-01,9.74231e-01,9.99999e-01
1.426940089e+00,1.14700e-01,9.99999e-01,1.17673e-01,9.74733e-01,9.99999e-01
1.434074789e+00,8.22041e-244,9.99999e-01,8.42923e-244,9.75226e-01,9.99999e-01
1.441245163e+00,0.00000e+00,9.99999e-01,0.00000e+00,9.75709e-01,9.99999e-01
1.448451389e+00,1.54259e-295,9.99999e-01,1.58022e-295,9.76183e-01,9.99999e-01
1.455693646e+00,1.54910e-132,9.99999e-01,1.58614e-132,9.76648e-01,9.99999e-01
1.462972114e+00,6.51221e-65,9.99999e-01,6.66480e-65,9.77104e-01,9.99999e-01
1.470286975e+00,4.96446e-28,9.99999e-01,5.07846e-28,9.77551e-01,9.99999e-01
