#,Wave/freq,Total,O2,CO2,Rayleigh,CIA
4.000000000e-01,9.69430e-08,9.99999e-01,9.99999e-01,9.69430e-08,9.99999e-01
4.020000000e-01,1.33410e-07,9.99999e-01,9.99999e-01,1.33410e-07,9.99999e-01
4.040100000e-01,1.82383e-07,9.99999e-01,9.99999e-01,1.82383e-07,9.99999e-01
4.060300500e-01,2.47797e-07,9.99999e-01,9.99999e-01,2.47797e-07,9.99999e-01
4.080602003e-01,3.34641e-07,9.99999e-01,9.99999e-01,3.34641e-07,9.99999e-01
4.101005013e-01,4.49247e-07,9.99999e-01,9.99999e-01,4.49247e-07,9.99999e-01
4.121510038e-01,5.99603e-07,9.99999e-01,9.99999e-01,5.99603e-07,9.99999e-01
4.142117588e-01,7.95732e-07,9.99999e-01,9.99999e-01,7.95732e-07,9.99999e-01
4.162828176e-01,1.05013e-06,9.99999e-01,9.99999e-01,1.05013e-06,9.99999e-01
4.183642317e-01,1.37828e-06,9.99999e-01,9.99999e-01,1.37828e-06,9.99999e-01
4.204560528e-01,1.79928e-06,9.99999e-01,9.99999e-01,1.79928e-06,9.99999e-01
4.225583331e-01,2.33655e-06,9.99999e-01,9.99999e-01,2.33655e-06,9.99999e-01
4.246711247e-01,3.01863e-06,9.99999e-01,9.99999e-01,3.01863e-06,9.99999e-01
4.267944804e-01,3.88014e-06,9.99999e-01,9.99999e-01,3.88014e-06,9.99999e-01
4.289284528e-01,4.96285e-06,9.99999e-01,9.99999e-01,4.96285e-06,9.99999e-01
4.310730950e-01,6.31690e-06,9.99999e-01,9.99999e-01,6.31690e-06,9.99999e-01
4.332284605e-01,8.00215e-06,9.99999e-01,9.99999e-01,8.00215e-06,9.99999e-01
4.353946028e-01,1.00898e-05,9.99999e-01,9.99999e-01,1.00898e-05,9.99999e-01
4.375715758e-01,1.26639e-05,9.99999e-01,9.99999e-01,1.26639e-05,9.99999e-01
4.397594337e-01,1.58235e-05,9.99999e-01,9.99999e-01,1.58235e-05,9.99999e-01
4.419582309e-01,1.96847e-05,9.99999e-01,9.99999e-01,1.96847e-05,9.99999e-01
4.441680220e-01,2.43827e-05,9.99999e-01,9.99999e-01,2.43827e-05,9.99999e-01
4.463888621e-01,3.00745e-05,9.99999e-01,9.99999e-01,3.00745e-05,9.99999e-01
4.486208064e-01,3.69415e-05,9.99999e-01,9.99999e-01,3.69415e-05,9.99999e-01
4.508639105e-01,4.51926e-05,9.99999e-01,9.99999e-01,4.51926e-05,9.99999e-01
4.531182300e-01,5.50669e-05,9.99999e-01,9.99999e-01,5.50669e-05,9.99999e-01
4.553838212e-01,6.68372e-05,9.99999e-01,9.99999e-01,6.68372e-05,9.99999e-01
4.576607403e-01,8.08136e-05,9.99999e-01,9.99999e-01,8.08136e-05,9.99999e-01
4.599490440e-01,9.73469e-05,9.99999e-01,9.99999e-01,9.73469e-05,9.99999e-01
4.622487892e-01,1.16832e-04,9.99999e-01,9.99999e-01,1.16832e-04,9.99999e-01
4.645600332e-01,1.39713e-04,9.99999e-01,9.99999e-01,1.39713e-04,9.99999e-01
4.668828333e-01,1.66486e-04,9.99999e-01,9.99999e-01,1.66486e-04,9.99999e-01
4.692172475e-01,1.97704e-04,9.99999e-01,9.99999e-01,1.97704e-04,9.99999e-01
4.715633337e-01,2.33980e-04,9.99999e-01,9.99999e-01,2.33980e-04,9.99999e-01
4.739211504e-01,2.75992e-04,9.99999e-01,9.99999e-01,2.75992e-04,9.99999e-01
4.762907561e-01,3.24487e-04,9.99999e-01,9.99999e-01,3.24487e-04,9.99999e-01
4.786722099e-01,3.80286e-04,9.99999e-01,9.99999e-01,3.80286e-04,9.99999e-01
4.810655710e-01,4.44285e-04,9.99999e-01,9.99999e-01,4.44285e-04,9.99999e-01
4.834708988e-01,5.17462e-04,9.99999e-01,9.99999e-01,5.17462e-04,9.99999e-01
4.858882533e-01,6.00880e-04,9.99999e-01,9.99999e-01,6.00880e-04,9.99999e-01
4.883176946e-01,6.95688e-04,9.99999e-01,9.99999e-01,6.95688e-04,9.99999e-01
4.907592831e-01,8.03128e-04,9.99999e-01,9.99999e-01,8.03128e-04,9.99999e-01
4.932130795e-01,9.24534e-04,9.99999e-01,9.99999e-01,9.24534e-04,9.99999e-01
4.956791449e-01,1.06134e-03,9.99999e-01,9.99999e-01,1.06134e-03,9.99999e-01
4.981575406e-01,1.21507e-03,9.99999e-01,9.99999e-01,1.21507e-03,9.99999e-01
5.006483283e-01,1.38735e-03,9.99999e-01,9.99999e-01,1.38735e-03,9.99999e-01
5.031515699e-01,1.57992e-03,9.99999e-01,9.99999e-01,1.57992e-03,9.99999e-01
5.056673278e-01,1.79461e-03,9.99999e-01,9.99999e-01,1.79461e-03,9.99999e-01
5.081956644e-01,2.03334e-03,9.99999e-01,9.99999e-01,2.03334e-03,9.99999e-01
5.107366428e-01,2.29816e-03,9.99999e-01,9.99999e-01,2.29816e-03,9.99999e-01
5.132903260e-01,2.59119e-03,9.99999e-01,9.99999e-01,2.59119e-03,9.99999e-01
5.158567776e-01,2.91467e-03,9.99999e-01,9.99999e-01,2.91467e-03,9.99999e-01
5.184360615e-01,3.27092e-03,9.99999e-01,9.99999e-01,3.27092e-03,9.99999e-01
5.210282418e-01,3.66236e-03,9.99999e-01,9.99999e-01,3.66236e-03,9.99999e-01
5.236333830e-01,4.09150e-03,9.99999e-01,9.99999e-01,4.09150e-03,9.99999e-01
5.262515499e-01,4.56093e-03,9.99999e-01,9.99999e-01,4.56093e-03,9.99999e-01
5.288828077e-01,5.07333e-03,9.99999e-01,9.99999e-01,5.07333e-03,9.99999e-01
5.315272217e-01,5.63144e-03,9.99999e-01,9.99999e-01,5.63144e-03,9.99999e-01
5.341848578e-01,6.23807e-03,9.99999e-01,9.99999e-01,6.23807e-03,9.99999e-01
5.368557821e-01,6.89610e-03,9.99999e-01,9.99999e-01,6.89610e-03,9.99999e-01
5.395400610e-01,7.60845e-03,9.99999e-01,9.99999e-01,7.60845e-03,9.99999e-01
5.422377613e-01,8.37811e-03,9.99999e-01,9.99999e-01,8.37811e-03,9.99999e-01
5.449489501e-01,9.20808e-03,9.99999e-01,9.99999e-01,9.20808e-03,9.99999e-01
5.476736949e-01,1.01014e-02,9.99999e-01,9.99999e-01,1.01014e-02,9.99999e-01
5.504120634e-01,1.10611e-02,9.99999e-01,9.99999e-01,1.10611e-02,9.99999e-01
5.531641237e-01,1.20904e-02,9.99999e-01,9.99999e-01,1.20904e-02,9.99999e-01
5.559299443e-01,1.31922e-02,9.99999e-01,9.99999e-01,1.31922e-02,9.99999e-01
5.587095940e-01,1.43696e-02,9.99999e-01,9.99999e-01,1.43696e-02,9.99999e-01
5.615031420e-01,1.56257e-02,9.99999e-01,9.99999e-01,1.56257e-02,9.99999e-01
5.643106577e-01,1.69635e-02,9.99999e-01,9.99999e-01,1.69635e-02,9.99999e-01
5.671322110e-01,1.83860e-02,9.99999e-01,9.99999e-01,1.83860e-02,9.99999e-01
5.699678720e-01,1.98961e-02,9.99999e-01,9.99999e-01,1.98961e-02,9.99999e-01
5.728177114e-01,2.14967e-02,9.99999e-01,9.99999e-01,2.14967e-02,9.99999e-01
5.756818000e-01,2.31906e-02,9.99999e-01,9.99999e-01,2.31906e-02,9.99999e-01
5.785602090e-01,2.49805e-02,9.99999e-01,9.99999e-01,2.49805e-02,9.99999e-01
5.814530100e-01,2.68690e-02,9.99999e-01,9.99999e-01,2.68690e-02,9.99999e-01
5.843602750e-01,2.88588e-02,9.99999e-01,9.99999e-01,2.88588e-02,9.99999e-01
5.872820764e-01,3.09522e-02,9.99999e-01,9.99999e-01,3.09522e-02,9.99999e-01
5.902184868e-01,3.31516e-02,9.99999e-01,9.99999e-01,3.31516e-02,9.99999e-01
5.931695792e-01,3.54591e-02,9.99999e-01,9.99999e-01,3.54591e-02,9.99999e-01
5.961354271e-01,3.78769e-02,9.99999e-01,9.99999e-01,3.78769e-02,9.99999e-01
5.991161043e-01,4.04068e-02,9.99999e-01,9.99999e-01,4.04068e-02,9.99999e-01
6.021116848e-01,4.30508e-02,9.99999e-01,9.99999e-01,4.30508e-02,9.99999e-01
6.051222432e-01,4.58103e-02,9.99999e-01,9.99999e-01,4.58103e-02,9.99999e-01
6.081478544e-01,4.86869e-02,9.99999e-01,9.99999e-01,4.86869e-02,9.99999e-01
6.111885937e-01,5.16820e-02,9.99999e-01,9.99999e-01,5.16820e-02,9.99999e-01
6.142445367e-01,5.47966e-02,9.99999e-01,9.99999e-01,5.47966e-02,9.99999e-01
6.173157594e-01,5.80319e-02,9.99999e-01,9.99999e-01,5.80319e-02,9.99999e-01
6.204023382e-01,6.13885e-02,9.99999e-01,9.99999e-01,6.13885e-02,9.99999e-01
6.235043498e-01,6.48673e-02,9.99999e-01,9.99999e-01,6.48673e-02,9.99999e-01
6.266218716e-01,6.84685e-02,9.99999e-01,9.99999e-01,6.84685e-02,9.99999e-01
6.297549810e-01,7.21926e-02,9.99999e-01,9.99999e-01,7.21926e-02,9.99999e-01
6.329037559e-01,7.60397e-02,9.99999e-01,9.99999e-01,7.60397e-02,9.99999e-01
6.360682746e-01,8.00097e-02,9.99999e-01,9.99999e-01,8.00097e-02,9.99999e-01
6.392486160e-01,8.41024e-02,9.99999e-01,9.99999e-01,8.41024e-02,9.99999e-01
6.424448591e-01,8.83173e-02,9.99999e-01,9.99999e-01,8.83173e-02,9.99999e-01
6.456570834e-01,9.26540e-02,9.99999e-01,9.99999e-01,9.26540e-02,9.99999e-01
6.488853688e-01,9.71116e-02,9.99999e-01,9.99999e-01,9.71116e-02,9.99999e-01
6.521297956e-01,1.01689e-01,9.99999e-01,9.99999e-01,1.01689e-01,9.99999e-01
6.553904446e-01,1.06386e-01,9.99999e-01,9.99999e-01,1.06386e-01,9.99999e-01
6.586673968e-01,1.11200e-01,9.99999e-01,9.99999e-01,1.11200e-01,9.99999e-01
6.619607338e-01,1.16131e-01,9.99999e-01,9.99999e-01,1.16131e-01,9.99999e-01
6.652705375e-01,1.21176e-01,9.99999e-01,9.99999e-01,1.21176e-01,9.99999e-01
6.685968902e-01,1.26334e-01,9.99999e-01,9.99999e-01,1.26334e-01,9.99999e-01
6.719398746e-01,1.31604e-01,9.99999e-01,9.99999e-01,1.31604e-01,9.99999e-01
6.752995740e-01,1.36983e-01,9.99999e-01,9.99999e-01,1.36983e-01,9.99999e-01
6.786760719e-01,1.42468e-01,9.99999e-01,9.99999e-01,1.42468e-01,9.99999e-01
6.820694522e-01,1.48059e-01,9.99999e-01,9.99999e-01,1.48059e-01,9.99999e-01
6.854797995e-01,1.53752e-01,9.99999e-01,9.99999e-01,1.53752e-01,9.99999e-01
6.889071985e-01,1.59545e-01,9.99999e-01,9.99999e-01,1.59545e-01,9.99999e-01
6.923517345e-01,1.65435e-01,9.99999e-01,9.99999e-01,1.65435e-01,9.99999e-01
6.958134932e-01,1.71420e-01,9.99999e-01,9.99999e-01,1.71420e-01,9.99999e-01
6.992925606e-01,1.77497e-01,9.99999e-01,9.99999e-01,1.77497e-01,9.99999e-01
7.027890234e-01,1.83663e-01,9.99999e-01,9.99999e-01,1.83663e-01,9.99999e-01
7.063029686e-01,1.89915e-01,9.99999e-01,9.99999e-01,1.89915e-01,9.99999e-01
7.098344834e-01,1.96250e-01,9.99999e-01,9.99999e-01,1.96250e-01,9.99999e-01
7.133836558e-01,2.02664e-01,9.99999e-01,9.99999e-01,2.02664e-01,9.99999e-01
7.169505741e-01,2.09156e-01,9.99999e-01,9.99999e-01,2.09156e-01,9.99999e-01
7.205353270e-01,2.15721e-01,9.99999e-01,9.99999e-01,2.15721e-01,9.99999e-01
7.241380036e-01,2.22357e-01,9.99999e-01,9.99999e-01,2.22357e-01,9.99999e-01
7.277586936e-01,2.29059e-01,9.99999e-01,9.99999e-01,2.29059e-01,9.99999e-01
7.313974871e-01,2.35825e-01,9.99999e-01,9.99999e-01,2.35825e-01,9.99999e-01
7.350544745e-01,2.42652e-01,9.99999e-01,9.99999e-01,2.42652e-01,9.99999e-01
7.387297469e-01,2.49535e-01,9.99999e-01,9.99999e-01,2.49535e-01,9.99999e-01
7.424233956e-01,2.56472e-01,9.99999e-01,9.99999e-01,2.56472e-01,9.99999e-01
7.461355126e-01,2.63458e-01,9.99999e-01,9.99999e-01,2.63458e-01,9.99999e-01
7.498661902e-01,2.70492e-01,9.99999e-01,9.99999e-01,2.70492e-01,9.99999e-01
7.536155211e-01,2.77569e-01,9.99999e-01,9.99999e-01,2.77569e-01,9.99999e-01
7.573835987e-01,2.84686e-01,9.99999e-01,9.99999e-01,2.84686e-01,9.99999e-01
7.611705167e-01,2.91839e-01,9.99999e-01,9.99999e-01,2.91839e-01,9.99999e-01
7.649763693e-01,2.99025e-01,9.99999e-01,9.99999e-01,2.99025e-01,9.99999e-01
7.688012511e-01,3.06242e-01,9.99999e-01,9.99999e-01,3.06242e-01,9.99999e-01
7.726452574e-01,3.13484e-01,9.99999e-01,9.99999e-01,3.13484e-01,9.99999e-01
7.765084837e-01,3.20750e-01,9.99999e-01,9.99999e-01,3.20750e-01,9.99999e-01
7.803910261e-01,3.11144e-01,9.99999e-01,9.48506e-01,3.28036e-01,9.99999e-01
7.842929812e-01,2.66299e-01,9.99999e-01,7.94121e-01,3.35338e-01,9.99999e-01
7.882144461e-01,2.67534e-01,9.99999e-01,7.80769e-01,3.42654e-01,9.99999e-01
7.921555184e-01,3.02241e-01,9.99999e-01,8.63594e-01,3.49980e-01,9.99999e-01
7.961162960e-01,3.24031e-01,9.99999e-01,9.06853e-01,3.57314e-01,9.99999e-01
8.000968774e-01,3.45788e-01,9.99999e-01,9.48268e-01,3.64652e-01,9.99999e-01
8.040973618e-01,3.61929e-01,9.99999e-01,9.72950e-01,3.71991e-01,9.99999e-01
8.081178486e-01,3.74565e-01,9.99999e-01,9.87442e-01,3.79328e-01,9.99999e-01
8.121584379e-01,3.85170e-01,9.99999e-01,9.96142e-01,3.86661e-01,9.99999e-01
8.162192301e-01,3.93651e-01,9.99999e-01,9.99146e-01,3.93987e-01,9.99999e-01
8.203003262e-01,4.01298e-01,9.99999e-01,9.99987e-01,4.01303e-01,9.99999e-01
8.244018279e-01,4.08606e-01,9.99999e-01,9.99999e-01,4.08606e-01,9.99999e-01
8.285238370e-01,4.15893e-01,9.99999e-01,9.99999e-01,4.15893e-01,9.99999e-01
8.326664562e-01,4.23163e-01,9.99999e-01,9.99999e-01,4.23163e-01,9.99999e-01
8.368297885e-01,4.30413e-01,9.99999e-01,9.99999e-01,4.30413e-01,9.99999e-01
8.410139374e-01,4.37640e-01,9.99999e-01,9.99999e-01,4.37640e-01,9.99999e-01
8.452190071e-01,4.44842e-01,9.99999e-01,9.99999e-01,4.44842e-01,9.99999e-01
8.494451021e-01,4.52017e-01,9.99999e-01,9.99999e-01,4.52017e-01,9.99999e-01
8.536923276e-01,4.59162e-01,9.99999e-01,9.99999e-01,4.59162e-01,9.99999e-01
8.579607893e-01,4.66276e-01,9.99999e-01,9.99999e-01,4.66276e-01,9.99999e-01
8.622505932e-01,4.73357e-01,9.99999e-01,9.99999e-01,4.73357e-01,9.99999e-01
8.665618462e-01,4.33104e-01,9.99999e-01,9.01544e-01,4.80401e-01,9.99999e-01
8.708946554e-01,2.72354e-01,9.99999e-01,5.58778e-01,4.87409e-01,9.99999e-01
8.752491287e-01,3.08365e-01,9.99999e-01,6.23744e-01,4.94377e-01,9.99999e-01
8.796253743e-01,3.86039e-01,9.99999e-01,7.70068e-01,5.01304e-01,9.99999e-01
8.840235012e-01,4.43481e-01,9.99999e-01,8.72669e-01,5.08189e-01,9.99999e-01
8.884436187e-01,4.88177e-01,9.99999e-01,9.47861e-01,5.15029e-01,9.99999e-01
8.928858368e-01,5.10599e-01,9.99999e-01,9.78488e-01,5.21824e-01,9.99999e-01
8.973502660e-01,5.25802e-01,9.99999e-01,9.94761e-01,5.28571e-01,9.99999e-01
9.018370173e-01,5.34961e-01,9.99999e-01,9.99422e-01,5.35270e-01,9.99999e-01
9.063462024e-01,5.33719e-01,9.99999e-01,9.84868e-01,5.41919e-01,9.99999e-01
9.108779334e-01,5.29980e-01,9.99999e-01,9.66206e-01,5.48516e-01,9.99999e-01
9.154323231e-01,5.50646e-01,9.99999e-01,9.92043e-01,5.55062e-01,9.99999e-01
9.200094847e-01,5.00543e-01,9.99999e-01,8.91353e-01,5.61553e-01,9.99999e-01
9.246095321e-01,4.80068e-01,9.99999e-01,8.45203e-01,5.67991e-01,9.99999e-01
9.292325798e-01,5.03138e-01,9.99999e-01,8.75978e-01,5.74372e-01,9.99999e-01
9.338787427e-01,5.11322e-01,9.99999e-01,8.80529e-01,5.80698e-01,9.99999e-01
9.385481364e-01,5.34438e-01,9.99999e-01,9.10508e-01,5.86966e-01,9.99999e-01
9.432408771e-01,5.60122e-01,9.99999e-01,9.44277e-01,5.93175e-01,9.99999e-01
9.479570815e-01,5.81918e-01,9.99999e-01,9.70952e-01,5.99326e-01,9.99999e-01
9.526968669e-01,5.96894e-01,9.99999e-01,9.85921e-01,6.05418e-01,9.99999e-01
9.574603512e-01,6.07756e-01,9.99999e-01,9.93959e-01,6.11449e-01,9.99999e-01
9.622476530e-01,6.16255e-01,9.99999e-01,9.98114e-01,6.17419e-01,9.99999e-01
9.670588912e-01,6.22976e-01,9.99999e-01,9.99435e-01,6.23328e-01,9.99999e-01
9.718941857e-01,6.29150e-01,9.99999e-01,9.99960e-01,6.29175e-01,9.99999e-01
9.767536566e-01,6.34960e-01,9.99999e-01,9.99999e-01,6.34960e-01,9.99999e-01
9.816374249e-01,6.40682e-01,9.99999e-01,9.99999e-01,6.40682e-01,9.99999e-01
9.865456120e-01,6.46341e-01,9.99999e-01,9.99999e-01,6.46341e-01,9.99999e-01
9.914783401e-01,6.51937e-01,9.99999e-01,9.99999e-01,6.51937e-01,9.99999e-01
9.964357318e-01,6.57469e-01,9.99999e-01,9.99999e-01,6.57469e-01,9.99999e-01
1.001417910e+00,6.62938e-01,9.99999e-01,9.99999e-01,6.62938e-01,9.99999e-01
1.006425000e+00,6.68343e-01,9.99999e-01,9.99999e-01,6.68343e-01,9.99999e-01
1.011457125e+00,6.73683e-01,9.99999e-01,9.99999e-01,6.73683e-01,9.99999e-01
1.016514411e+00,6.78960e-01,9.99999e-01,9.99999e-01,6.78960e-01,9.99999e-01
1.021596983e+00,6.84111e-01,9.99999e-01,9.99908e-01,6.84173e-01,9.99999e-01
1.026704968e+00,6.85207e-01,9.99999e-01,9.94031e-01,6.89321e-01,9.99999e-01
1.031838492e+00,6.50378e-01,9.99999e-01,9.36596e-01,6.94405e-01,9.99999e-01
1.036997685e+00,6.98225e-02,9.99999e-01,9.98283e-02,6.99426e-01,9.99999e-01
1.042182673e+00,3.00693e-02,9.99999e-01,4.26888e-02,7.04382e-01,9.99999e-01
1.047393587e+00,4.55442e-02,9.99999e-01,6.42123e-02,7.09275e-01,9.99999e-01
1.052630555e+00,2.57716e-04,9.99999e-01,3.60894e-04,7.14104e-01,9.99999e-01
1.057893707e+00,8.30871e-04,9.99999e-01,1.15580e-03,7.18869e-01,9.99999e-01
1.063183176e+00,4.71624e-03,9.99999e-01,6.51800e-03,7.23571e-01,9.99999e-01
1.068499092e+00,1.96737e-02,9.99999e-01,2.70165e-02,7.28211e-01,9.99999e-01
1.073841587e+00,7.43536e-02,9.99999e-01,1.01467e-01,7.32787e-01,9.99999e-01
1.079210795e+00,1.73218e-01,9.99999e-01,2.34934e-01,7.37301e-01,9.99999e-01
1.084606849e+00,3.32136e-01,9.99999e-01,4.47772e-01,7.41753e-01,9.99999e-01
1.090029883e+00,4.90877e-01,9.99999e-01,6.57886e-01,7.46142e-01,9.99999e-01
1.095480033e+00,6.10604e-01,9.99999e-01,8.13627e-01,7.50471e-01,9.99999e-01
1.100957433e+00,6.83220e-01,9.99999e-01,9.05240e-01,7.54738e-01,9.99999e-01
1.106462220e+00,7.28367e-01,9.99999e-01,9.59709e-01,7.58945e-01,9.99999e-01
1.111994531e+00,7.51544e-01,9.99999e-01,9.84867e-01,7.63091e-01,9.99999e-01
1.117554504e+00,7.64341e-01,9.99999e-01,9.96303e-01,7.67177e-01,9.99999e-01
1.123142276e+00,7.71018e-01,9.99999e-01,9.99758e-01,7.71204e-01,9.99999e-01
1.128757988e+00,7.75172e-01,9.99999e-01,9.99999e-01,7.75172e-01,9.99999e-01
1.134401778e+00,7.79081e-01,9.99999e-01,9.99999e-01,7.79081e-01,9.99999e-01
1.140073787e+00,7.82932e-01,9.99999e-01,9.99999e-01,7.82932e-01,9.99999e-01
1.145774156e+00,7.86726e-01,9.99999e-01,9.99999e-01,7.86726e-01,9.99999e-01
1.151503026e+00,7.90462e-01,9.99999e-01,9.99999e-01,7.90462e-01,9.99999e-01
1.157260541e+00,7.94142e-01,9.99999e-01,9.99999e-01,7.94142e-01,9.99999e-01
1.163046844e+00,7.97766e-01,9.99999e-01,9.99999e-01,7.97766e-01,9.99999e-01
1.168862078e+00,8.01334e-01,9.99999e-01,9.99999e-01,8.01334e-01,9.99999e-01
1.174706389e+00,8.04847e-01,9.99999e-01,9.99999e-01,8.04847e-01,9.99999e-01
1.180579921e+00,8.08306e-01,9.99999e-01,9.99999e-01,8.08306e-01,9.99999e-01
1.186482820e+00,8.11700e-01,9.99999e-01,9.99985e-01,8.11711e-01,9.99999e-01
1.192415234e+00,7.97910e-01,9.99999e-01,9.78954e-01,8.15063e-01,9.99999e-01
1.198377311e+00,4.47970e-01,9.99999e-01,5.47398e-01,8.18362e-01,9.99999e-01
1.204369197e+00,2.95804e-16,9.99999e-01,3.60030e-16,8.21608e-01,9.99999e-01
1.210391043e+00,2.01801e-62,9.99999e-01,2.44665e-62,8.24803e-01,9.99999e-01
1.216442998e+00,3.62905e-54,9.99999e-01,4.38319e-54,8.27947e-01,9.99999e-01
1.222525213e+00,2.27232e-53,9.99999e-01,2.73431e-53,8.31041e-01,9.99999e-01
1.228637839e+00,2.57761e-41,9.99999e-01,3.09035e-41,8.34084e-01,9.99999e-01
1.234781029e+00,3.42149e-26,9.99999e-01,4.08742e-26,8.37078e-01,9.99999e-01
1.240954934e+00,1.47840e-17,9.99999e-01,1.75994e-17,8.40024e-01,9.99999e-01
1.247159708e+00,3.98153e-09,9.99999e-01,4.72348e-09,8.42922e-01,9.99999e-01
1.253395507e+00,4.69850e-06,9.99999e-01,5.55528e-06,8.45771e-01,9.99999e-01
1.259662485e+00,8.21081e-04,9.99999e-01,9.67599e-04,8.48574e-01,9.99999e-01
1.265960797e+00,1.63412e-02,9.99999e-01,1.91949e-02,8.51331e-01,9.99999e-01
1.272290601e+00,1.50783e-01,9.99999e-01,1.76553e-01,8.54042e-01,9.99999e-01
1.278652054e+00,1.26942e-01,9.99999e-01,1.48174e-01,8.56708e-01,9.99999e-01
1.285045314e+00,1.06326e-03,9.99999e-01,1.23731e-03,8.59329e-01,9.99999e-01
1.291470541e+00,6.60914e-08,9.99999e-01,7.66804e-08,8.61906e-01,9.99999e-01
1.297927893e+00,1.51191e-03,9.99999e-01,1.74901e-03,8.64440e-01,9.99999e-01
1.304417533e+00,3.61792e-02,9.99999e-01,4.17325e-02,8.66931e-01,9.99999e-01
1.310939621e+00,5.84506e-03,9.99999e-01,6.72325e-03,8.69379e-01,9.99999e-01
1.317494319e+00,5.52688e-22,9.99999e-01,6.33972e-22,8.71786e-01,9.99999e-01
1.324081790e+00,7.66138e-11,9.99999e-01,8.76434e-11,8.74152e-01,9.99999e-01
1.330702199e+00,1.05358e-08,9.99999e-01,1.20206e-08,8.76478e-01,9.99999e-01
1.337355710e+00,2.96486e-08,9.99999e-01,3.37390e-08,8.78763e-01,9.99999e-01
1.344042489e+00,1.05908e-08,9.99999e-01,1.20212e-08,8.81009e-01,9.99999e-01
1.350762701e+00,6.06528e-09,9.99999e-01,6.86725e-09,8.83217e-01,9.99999e-01
1.357516515e+00,7.42972e-06,9.99999e-01,8.39150e-06,8.85386e-01,9.99999e-01
1.364304097e+00,3.22246e-04,9.99999e-01,3.63087e-04,8.87517e-01,9.99999e-01
1.371125618e+00,1.50511e-02,9.99999e-01,1.69187e-02,8.89612e-01,9.99999e-01
1.377981246e+00,2.89134e-02,9.99999e-01,3.24261e-02,8.91669e-01,9.99999e-01
1.384871152e+00,1.21540e-01,9.99999e-01,1.35998e-01,8.93691e-01,9.99999e-01
1.391795508e+00,1.42006e-01,9.99999e-01,1.58546e-01,8.95677e-01,9.99999e-01
1.398754485e+00,2.85910e-01,9.99999e-01,3.18517e-01,8.97629e-01,9.99999e-01
1.405748258e+00,3.88980e-01,9.99999e-01,4.32418e-01,8.99546e-01,9.99999e-01
1.412776999e+00,5.30196e-01,9.99999e-01,5.88172e-01,9.01429e-01,9.99999e-01
1.419840884e+00,4.71520e-01,9.99999e-01,5.22010e-01,9.03278e-01,9.99999e-01
1.426940089e+00,3.04195e-02,9.99999e-01,3.36092e-02,9.05095e-01,9.99999e-01
1.434074789e+00,0.00000e+00,9.99999e-01,0.00000e+00,9.06879e-01,9.99999e-01
1.441245163e+00,0.00000e+00,9.99999e-01,0.00000e+00,9.08632e-01,9.99999e-01
1.448451389e+00,0.00000e+00,9.99999e-01,0.00000e+00,9.10353e-01,9.99999e-01
1.455693646e+00,0.00000e+00,9.99999e-01,0.00000e+00,9.12044e-01,9.99999e-01
1.462972114e+00,1.74128e-246,9.99999e-01,1.90574e-246,9.13704e-01,9.99999e-01
1.470286975e+00,9.53504e-103,9.99999e-01,1.04170e-102,9.15334e-01,9.99999e-01
