#,Wave/freq,Total,O2,CO2,Rayleigh,CIA
4.000000000e-01,2.15021e-02,9.99999e-01,9.99999e-01,2.15021e-02,9.99999e-01
4.020000000e-01,2.31981e-02,9.99999e-01,9.99999e-01,2.31981e-02,9.99999e-01
4.040100000e-01,2.49884e-02,9.99999e-01,9.99999e-01,2.49884e-02,9.99999e-01
4.060300500e-01,2.68774e-02,9.99999e-01,9.99999e-01,2.68774e-02,9.99999e-01
4.080602003e-01,2.88676e-02,9.99999e-01,9.99999e-01,2.88676e-02,9.99999e-01
4.101005013e-01,3.09615e-02,9.99999e-01,9.99999e-01,3.09615e-02,9.99999e-01
4.121510038e-01,3.31613e-02,9.99999e-01,9.99999e-01,3.31613e-02,9.99999e-01
4.142117588e-01,3.54693e-02,9.99999e-01,9.99999e-01,3.54693e-02,9.99999e-01
4.162828176e-01,3.78876e-02,9.99999e-01,9.99999e-01,3.78876e-02,9.99999e-01
4.183642317e-01,4.04180e-02,9.99999e-01,9.99999e-01,4.04180e-02,9.99999e-01
4.204560528e-01,4.30624e-02,9.99999e-01,9.99999e-01,4.30624e-02,9.99999e-01
4.225583331e-01,4.58225e-02,9.99999e-01,9.99999e-01,4.58225e-02,9.99999e-01
4.246711247e-01,4.86996e-02,9.99999e-01,9.99999e-01,4.86996e-02,9.99999e-01
4.267944804e-01,5.16952e-02,9.99999e-01,9.99999e-01,5.16952e-02,9.99999e-01
4.289284528e-01,5.48103e-02,9.99999e-01,9.99999e-01,5.48103e-02,9.99999e-01
4.310730950e-01,5.80461e-02,9.99999e-01,9.99999e-01,5.80461e-02,9.99999e-01
4.332284605e-01,6.14033e-02,9.99999e-01,9.99999e-01,6.14033e-02,9.99999e-01
4.353946028e-01,6.48825e-02,9.99999e-01,9.99999e-01,6.48825e-02,9.99999e-01
4.375715758e-01,6.84843e-02,9.99999e-01,9.99999e-01,6.84843e-02,9.99999e-01
4.397594337e-01,7.22090e-02,9.99999e-01,9.99999e-01,7.22090e-02,9.99999e-01
4.419582309e-01,7.60566e-02,9.99999e-01,9.99999e-01,7.60566e-02,9.99999e-01
4.441680220e-01,8.00271e-02,9.99999e-01,9.99999e-01,8.00271e-02,9.99999e-01
4.463888621e-01,8.41203e-02,9.99999e-01,9.99999e-01,8.41203e-02,9.99999e-01
4.486208064e-01,8.83358e-02,9.99999e-01,9.99999e-01,8.83358e-02,9.99999e-01
4.508639105e-01,9.26730e-02,9.99999e-01,9.99999e-01,9.26730e-02,9.99999e-01
4.531182300e-01,9.71311e-02,9.99999e-01,9.99999e-01,9.71311e-02,9.99999e-01
4.553838212e-01,1.01709e-01,9.99999e-01,9.99999e-01,1.01709e-01,9.99999e-01
4.576607403e-01,1.06406e-01,9.99999e-01,9.99999e-01,1.06406e-01,9.99999e-01
4.599490440e-01,1.11221e-01,9.99999e-01,9.99999e-01,1.11221e-01,9.99999e-01
4.622487892e-01,1.16152e-01,9.99999e-01,9.99999e-01,1.16152e-01,9.99999e-01
4.645600332e-01,1.21198e-01,9.99999e-01,9.99999e-01,1.21198e-01,9.99999e-01
4.668828333e-01,1.26357e-01,9.99999e-01,9.99999e-01,1.26357e-01,9.99999e-01
4.692172475e-01,1.31627e-01,9.99999e-01,9.99999e-01,1.31627e-01,9.99999e-01
4.715633337e-01,1.37006e-01,9.99999e-01,9.99999e-01,1.37006e-01,9.99999e-01
4.739211504e-01,1.42492e-01,9.99999e-01,9.99999e-01,1.42492e-01,9.99999e-01
4.762907561e-01,1.48083e-01,9.99999e-01,9.99999e-01,1.48083e-01,9.99999e-01
4.786722099e-01,1.53777e-01,9.99999e-01,9.99999e-01,1.53777e-01,9.99999e-01
4.810655710e-01,1.59570e-01,9.99999e-01,9.99999e-01,1.59570e-01,9.99999e-01
4.834708988e-01,1.65461e-01,9.99999e-01,9.99999e-01,1.65461e-01,9.99999e-01
4.858882533e-01,1.71446e-01,9.99999e-01,9.99999e-01,1.71446e-01,9.99999e-01
4.883176946e-01,1.77523e-01,9.99999e-01,9.99999e-01,1.77523e-01,9.99999e-01
4.907592831e-01,1.83690e-01,9.99999e-01,9.99999e-01,1.83690e-01,9.99999e-01
4.932130795e-01,1.89942e-01,9.99999e-01,9.99999e-01,1.89942e-01,9.99999e-01
4.956791449e-01,1.96277e-01,9.99999e-01,9.99999e-01,1.96277e-01,9.99999e-01
4.981575406e-01,2.02692e-01,9.99999e-01,9.99999e-01,2.02692e-01,9.99999e-01
5.006483283e-01,2.09184e-01,9.99999e-01,9.99999e-01,2.09184e-01,9.99999e-01
5.031515699e-01,2.15750e-01,9.99999e-01,9.99999e-01,2.15750e-01,9.99999e-01
5.056673278e-01,2.22385e-01,9.99999e-01,9.99999e-01,2.22385e-01,9.99999e-01
5.081956644e-01,2.29088e-01,9.99999e-01,9.99999e-01,2.29088e-01,9.99999e-01
5.107366428e-01,2.35854e-01,9.99999e-01,9.99999e-01,2.35854e-01,9.99999e-01
5.132903260e-01,2.42681e-01,9.99999e-01,9.99999e-01,2.42681e-01,9.99999e-01
5.158567776e-01,2.49565e-01,9.99999e-01,9.99999e-01,2.49565e-01,9.99999e-01
5.184360615e-01,2.56502e-01,9.99999e-01,9.99999e-01,2.56502e-01,9.99999e-01
5.210282418e-01,2.63489e-01,9.99999e-01,9.99999e-01,2.63489e-01,9.99999e-01
5.236333830e-01,2.70523e-01,9.99999e-01,9.99999e-01,2.70523e-01,9.99999e-01
5.262515499e-01,2.77600e-01,9.99999e-01,9.99999e-01,2.77600e-01,9.99999e-01
5.288828077e-01,2.84717e-01,9.99999e-01,9.99999e-01,2.84717e-01,9.99999e-01
5.315272217e-01,2.91870e-01,9.99999e-01,9.99999e-01,2.91870e-01,9.99999e-01
5.341848578e-01,2.99056e-01,9.99999e-01,9.99999e-01,2.99056e-01,9.99999e-01
5.368557821e-01,3.06273e-01,9.99999e-01,9.99999e-01,3.06273e-01,9.99999e-01
5.395400610e-01,3.13515e-01,9.99999e-01,9.99999e-01,3.13515e-01,9.99999e-01
5.422377613e-01,3.20781e-01,9.99999e-01,9.99999e-01,3.20781e-01,9.99999e-01
5.449489501e-01,3.28067e-01,9.99999e-01,9.99999e-01,3.28067e-01,9.99999e-01
5.476736949e-01,3.35370e-01,9.99999e-01,9.99999e-01,3.35370e-01,9.99999e-01
5.504120634e-01,3.42685e-01,9.99999e-01,9.99999e-01,3.42685e-01,9.99999e-01
5.531641237e-01,3.50012e-01,9.99999e-01,9.99999e-01,3.50012e-01,9.99999e-01
5.559299443e-01,3.57345e-01,9.99999e-01,9.99999e-01,3.57345e-01,9.99999e-01
5.587095940e-01,3.64683e-01,9.99999e-01,9.99999e-01,3.64683e-01,9.99999e-01
5.615031420e-01,3.72022e-01,9.99999e-01,9.99999e-01,3.72022e-01,9.99999e-01
5.643106577e-01,3.79360e-01,9.99999e-01,9.99999e-01,3.79360e-01,9.99999e-01
5.671322110e-01,3.86693e-01,9.99999e-01,9.99999e-01,3.86693e-01,9.99999e-01
5.699678720e-01,3.94019e-01,9.99999e-01,9.99999e-01,3.94019e-01,9.99999e-01
5.728177114e-01,4.01334e-01,9.99999e-01,9.99999e-01,4.01334e-01,9.99999e-01
5.756818000e-01,4.08637e-01,9.99999e-01,9.99999e-01,4.08637e-01,9.99999e-01
5.785602090e-01,4.15925e-01,9.99999e-01,9.99999e-01,4.15925e-01,9.99999e-01
5.814530100e-01,4.23195e-01,9.99999e-01,9.99999e-01,4.23195e-01,9.99999e-01
5.843602750e-01,4.30444e-01,9.99999e-01,9.99999e-01,4.30444e-01,9.99999e-01
5.872820764e-01,4.37671e-01,9.99999e-01,9.99999e-01,4.37671e-01,9.99999e-01
5.902184868e-01,4.44873e-01,9.99999e-01,9.99999e-01,4.44873e-01,9.99999e-01
5.931695792e-01,4.52048e-01,9.99999e-01,9.99999e-01,4.52048e-01,9.99999e-01
5.961354271e-01,4.59193e-01,9.99999e-01,9.99999e-01,4.59193e-01,9.99999e-01
5.991161043e-01,4.66307e-01,9.99999e-01,9.99999e-01,4.66307e-01,9.99999e-01
6.021116848e-01,4.73387e-01,9.99999e-01,9.99999e-01,4.73387e-01,9.99999e-01
6.051222432e-01,4.80432e-01,9.99999e-01,9.99999e-01,4.80432e-01,9.99999e-01
6.081478544e-01,4.87439e-01,9.99999e-01,9.99999e-01,4.87439e-01,9.99999e-01
6.111885937e-01,4.94407e-01,9.99999e-01,9.99999e-01,4.94407e-01,9.99999e-01
6.142445367e-01,5.01334e-01,9.99999e-01,9.99999e-01,5.01334e-01,9.99999e-01
6.173157594e-01,5.08218e-01,9.99999e-01,9.99999e-01,5.08218e-01,9.99999e-01
6.204023382e-01,5.15059e-01,9.99999e-01,9.99999e-01,5.15059e-01,9.99999e-01
6.235043498e-01,5.21853e-01,9.99999e-01,9.99999e-01,5.21853e-01,9.99999e-01
6.266218716e-01,5.28600e-01,9.99999e-01,9.99999e-01,5.28600e-01,9.99999e-01
6.297549810e-01,5.35299e-01,9.99999e-01,9.99999e-01,5.35299e-01,9.99999e-01
6.329037559e-01,5.41947e-01,9.99999e-01,9.99999e-01,5.41947e-01,9.99999e-01
6.360682746e-01,5.48545e-01,9.99999e-01,9.99999e-01,5.48545e-01,9.99999e-01
6.392486160e-01,5.55090e-01,9.99999e-01,9.99999e-01,5.55090e-01,9.99999e-01
6.424448591e-01,5.61581e-01,9.99999e-01,9.99999e-01,5.61581e-01,9.99999e-01
6.456570834e-01,5.68018e-01,9.99999e-01,9.99999e-01,5.68018e-01,9.99999e-01
6.488853688e-01,5.74400e-01,9.99999e-01,9.99999e-01,5.74400e-01,9.99999e-01
6.521297956e-01,5.80725e-01,9.99999e-01,9.99999e-01,5.80725e-01,9.99999e-01
6.553904446e-01,5.86993e-01,9.99999e-01,9.99999e-01,5.86993e-01,9.99999e-01
6.586673968e-01,5.93202e-01,9.99999e-01,9.99999e-01,5.93202e-01,9.99999e-01
6.619607338e-01,5.99353e-01,9.99999e-01,9.99999e-01,5.99353e-01,9.99999e-01
6.652705375e-01,6.05444e-01,9.99999e-01,9.99999e-01,6.05444e-01,9.99999e-01
6.685968902e-01,6.11475e-01,9.99999e-01,9.99999e-01,6.11475e-01,9.99999e-01
6.719398746e-01,6.17445e-01,9.99999e-01,9.99999e-01,6.17445e-01,9.99999e-01
6.752995740e-01,6.23353e-01,9.99999e-01,9.99999e-01,6.23353e-01,9.99999e-01
6.786760719e-01,6.29200e-01,9.99999e-01,9.99999e-01,6.29200e-01,9.99999e-01
6.820694522e-01,6.34984e-01,9.99999e-01,9.99999e-01,6.34984e-01,9.99999e-01
6.854797995e-01,6.40706e-01,9.99999e-01,9.99999e-01,6.40706e-01,9.99999e-01
6.889071985e-01,6.46365e-01,9.99999e-01,9.99999e-01,6.46365e-01,9.99999e-01
6.923517345e-01,6.51961e-01,9.99999e-01,9.99999e-01,6.51961e-01,9.99999e-01
6.958134932e-01,6.57493e-01,9.99999e-01,9.99999e-01,6.57493e-01,9.99999e-01
6.992925606e-01,6.62961e-01,9.99999e-01,9.99999e-01,6.62961e-01,9.99999e-01
7.027890234e-01,6.68366e-01,9.99999e-01,9.99999e-01,6.68366e-01,9.99999e-01
7.063029686e-01,6.73706e-01,9.99999e-01,9.99999e-01,6.73706e-01,9.99999e-01
7.098344834e-01,6.78983e-01,9.99999e-01,9.99999e-01,6.78983e-01,9.99999e-01
7.133836558e-01,6.84195e-01,9.99999e-01,9.99999e-01,6.84195e-01,9.99999e-01
7.169505741e-01,6.89343e-01,9.99999e-01,9.99999e-01,6.89343e-01,9.99999e-01
7.205353270e-01,6.94427e-01,9.99999e-01,9.99999e-01,6.94427e-01,9.99999e-01
7.241380036e-01,6.99447e-01,9.99999e-01,9.99999e-01,6.99447e-01,9.99999e-01
7.277586936e-01,7.04403e-01,9.99999e-01,9.99999e-01,7.04403e-01,9.99999e-01
7.313974871e-01,7.09296e-01,9.99999e-01,9.99999e-01,7.09296e-01,9.99999e-01
7.350544745e-01,7.14124e-01,9.99999e-01,9.99999e-01,7.14124e-01,9.99999e-01
7.387297469e-01,7.18890e-01,9.99999e-01,9.99999e-01,7.18890e-01,9.99999e-01
7.424233956e-01,7.23592e-01,9.99999e-01,9.99999e-01,7.23592e-01,9.99999e-01
7.461355126e-01,7.28230e-01,9.99999e-01,9.99999e-01,7.28230e-01,9.99999e-01
7.498661902e-01,7.32807e-01,9.99999e-01,9.99999e-01,7.32807e-01,9.99999e-01
7.536155211e-01,7.37320e-01,9.99999e-01,9.99999e-01,7.37320e-01,9.99999e-01
7.573835987e-01,7.41772e-01,9.99999e-01,9.99999e-01,7.41772e-01,9.99999e-01
7.611705167e-01,7.46161e-01,9.99999e-01,9.99999e-01,7.46161e-01,9.99999e-01
7.649763693e-01,7.50489e-01,9.99999e-01,9.99999e-01,7.50489e-01,9.99999e-01
7.688012511e-01,7.54756e-01,9.99999e-01,9.99999e-01,7.54756e-01,9.99999e-01
7.726452574e-01,7.58963e-01,9.99999e-01,9.99999e-01,7.58963e-01,9.99999e-01
7.765084837e-01,7.63109e-01,9.99999e-01,9.99999e-01,7.63109e-01,9.99999e-01
7.803910261e-01,7.57033e-01,9.99999e-01,9.86754e-01,7.67195e-01,9.99999e-01
7.842929812e-01,7.28306e-01,9.99999e-01,9.44353e-01,7.71221e-01,9.99999e-01
7.882144461e-01,7.28975e-01,9.99999e-01,9.40383e-01,7.75189e-01,9.99999e-01
7.921555184e-01,7.52186e-01,9.99999e-01,9.65457e-01,7.79098e-01,9.99999e-01
7.961162960e-01,7.64767e-01,9.99999e-01,9.76778e-01,7.82949e-01,9.99999e-01
8.000968774e-01,7.76799e-01,9.99999e-01,9.87361e-01,7.86742e-01,9.99999e-01
8.040973618e-01,7.85285e-01,9.99999e-01,9.93430e-01,7.90478e-01,9.99999e-01
8.081178486e-01,7.91763e-01,9.99999e-01,9.96983e-01,7.94158e-01,9.99999e-01
8.121584379e-01,7.97036e-01,9.99999e-01,9.99065e-01,7.97781e-01,9.99999e-01
8.162192301e-01,8.01184e-01,9.99999e-01,9.99793e-01,8.01349e-01,9.99999e-01
8.203003262e-01,8.04860e-01,9.99999e-01,9.99996e-01,8.04862e-01,9.99999e-01
8.244018279e-01,8.08321e-01,9.99999e-01,9.99999e-01,8.08321e-01,9.99999e-01
8.285238370e-01,8.11726e-01,9.99999e-01,9.99999e-01,8.11726e-01,9.99999e-01
8.326664562e-01,8.15077e-01,9.99999e-01,9.99999e-01,8.15077e-01,9.99999e-01
8.368297885e-01,8.18376e-01,9.99999e-01,9.99999e-01,8.18376e-01,9.99999e-01
8.410139374e-01,8.21622e-01,9.99999e-01,9.99999e-01,8.21622e-01,9.99999e-01
8.452190071e-01,8.24817e-01,9.99999e-01,9.99999e-01,8.24817e-01,9.99999e-01
8.494451021e-01,8.27961e-01,9.99999e-01,9.99999e-01,8.27961e-01,9.99999e-01
8.536923276e-01,8.31054e-01,9.99999e-01,9.99999e-01,8.31054e-01,9.99999e-01
8.579607893e-01,8.34097e-01,9.99999e-01,9.99999e-01,8.34097e-01,9.99999e-01
8.622505932e-01,8.37091e-01,9.99999e-01,9.99999e-01,8.37091e-01,9.99999e-01
8.665618462e-01,8.09042e-01,9.99999e-01,9.63103e-01,8.40037e-01,9.99999e-01
8.708946554e-01,7.26877e-01,9.99999e-01,8.62317e-01,8.42934e-01,9.99999e-01
8.752491287e-01,7.52037e-01,9.99999e-01,8.89159e-01,8.45784e-01,9.99999e-01
8.796253743e-01,7.96229e-01,9.99999e-01,9.38300e-01,8.48586e-01,9.99999e-01
8.840235012e-01,8.23866e-01,9.99999e-01,9.67725e-01,8.51343e-01,9.99999e-01
8.884436187e-01,8.43097e-01,9.99999e-01,9.87170e-01,8.54054e-01,9.99999e-01
8.928858368e-01,8.52258e-01,9.99999e-01,9.94792e-01,8.56719e-01,9.99999e-01
8.973502660e-01,8.58250e-01,9.99999e-01,9.98731e-01,8.59340e-01,9.99999e-01
9.018370173e-01,8.61796e-01,9.99999e-01,9.99859e-01,8.61917e-01,9.99999e-01
9.063462024e-01,8.61359e-01,9.99999e-01,9.96422e-01,8.64451e-01,9.99999e-01
9.108779334e-01,8.59828e-01,9.99999e-01,9.91794e-01,8.66941e-01,9.99999e-01
9.154323231e-01,8.67707e-01,9.99999e-01,9.98064e-01,8.69390e-01,9.99999e-01
9.200094847e-01,8.46695e-01,9.99999e-01,9.71206e-01,8.71797e-01,9.99999e-01
9.246095321e-01,8.39547e-01,9.99999e-01,9.60401e-01,8.74162e-01,9.99999e-01
9.292325798e-01,8.49081e-01,9.99999e-01,9.68731e-01,8.76488e-01,9.99999e-01
9.338787427e-01,8.52231e-01,9.99999e-01,9.69795e-01,8.78773e-01,9.99999e-01
9.385481364e-01,8.61446e-01,9.99999e-01,9.77783e-01,8.81019e-01,9.99999e-01
9.432408771e-01,8.71175e-01,9.99999e-01,9.86354e-01,8.83226e-01,9.99999e-01
9.479570815e-01,8.79184e-01,9.99999e-01,9.92983e-01,8.85395e-01,9.99999e-01
9.526968669e-01,8.84517e-01,9.99999e-01,9.96608e-01,8.87526e-01,9.99999e-01
9.574603512e-01,8.88330e-01,9.99999e-01,9.98548e-01,8.89621e-01,9.99999e-01
9.622476530e-01,8.91275e-01,9.99999e-01,9.99546e-01,8.91678e-01,9.99999e-01
9.670588912e-01,8.93579e-01,9.99999e-01,9.99863e-01,8.93700e-01,9.99999e-01
9.718941857e-01,8.95677e-01,9.99999e-01,9.99989e-01,8.95686e-01,9.99999e-01
9.767536566e-01,8.97637e-01,9.99999e-01,9.99999e-01,8.97637e-01,9.99999e-01
9.816374249e-01,8.99554e-01,9.99999e-01,9.99999e-01,8.99554e-01,9.99999e-01
9.865456120e-01,9.01437e-01,9.99999e-01,9.99999e-01,9.01437e-01,9.99999e-01
9.914783401e-01,9.03286e-01,9.99999e-01,9.99999e-01,9.03286e-01,9.99999e-01
9.964357318e-01,9.05103e-01,9.99999e-01,9.99999e-01,9.05103e-01,9.99999e-01
1.001417910e+00,9.06887e-01,9.99999e-01,9.99999e-01,9.06887e-01,9.99999e-01
1.006425000e+00,9.08640e-01,9.99999e-01,9.99999e-01,9.08640e-01,9.99999e-01
1.011457125e+00,9.10361e-01,9.99999e-01,9.99999e-01,9.10361e-01,9.99999e-01
1.016514411e+00,9.12051e-01,9.99999e-01,9.99999e-01,9.12051e-01,9.99999e-01
1.021596983e+00,9.13694e-01,9.99999e-01,9.99981e-01,9.13711e-01,9.99999e-01
1.026704968e+00,9.14071e-01,9.99999e-01,9.98611e-01,9.15341e-01,9.99999e-01
1.031838492e+00,8.97166e-01,9.99999e-01,9.78432e-01,9.16942e-01,9.99999e-01
1.036997685e+00,3.23117e-01,9.99999e-01,3.51782e-01,9.18514e-01,9.99999e-01
1.042182673e+00,3.99684e-01,9.99999e-01,4.34412e-01,9.20057e-01,9.99999e-01
1.047393587e+00,3.57457e-01,9.99999e-01,3.87877e-01,9.21572e-01,9.99999e-01
1.052630555e+00,8.06161e-02,9.99999e-01,8.73356e-02,9.23060e-01,9.99999e-01
1.057893707e+00,1.38963e-01,9.99999e-01,1.50308e-01,9.24521e-01,9.99999e-01
1.063183176e+00,2.36430e-01,9.99999e-01,2.55336e-01,9.25955e-01,9.99999e-01
1.068499092e+00,3.76993e-01,9.99999e-01,4.06521e-01,9.27364e-01,9.99999e-01
1.073841587e+00,5.26313e-01,9.99999e-01,5.66692e-01,9.28746e-01,9.99999e-01
1.079210795e+00,6.50569e-01,9.99999e-01,6.99458e-01,9.30103e-01,9.99999e-01
1.084606849e+00,7.66597e-01,9.99999e-01,8.23027e-01,9.31435e-01,9.99999e-01
1.090029883e+00,8.43378e-01,9.99999e-01,9.04190e-01,9.32743e-01,9.99999e-01
1.095480033e+00,8.88845e-01,9.99999e-01,9.51627e-01,9.34026e-01,9.99999e-01
1.100957433e+00,9.13252e-01,9.99999e-01,9.76440e-01,9.35286e-01,9.99999e-01
1.106462220e+00,9.27338e-01,9.99999e-01,9.90191e-01,9.36523e-01,9.99999e-01
1.111994531e+00,9.34320e-01,9.99999e-01,9.96355e-01,9.37737e-01,9.99999e-01
1.117554504e+00,9.38091e-01,9.99999e-01,9.99107e-01,9.38929e-01,9.99999e-01
1.123142276e+00,9.40043e-01,9.99999e-01,9.99940e-01,9.40098e-01,9.99999e-01
1.128757988e+00,9.41246e-01,9.99999e-01,9.99999e-01,9.41246e-01,9.99999e-01
1.134401778e+00,9.42372e-01,9.99999e-01,9.99999e-01,9.42372e-01,9.99999e-01
1.140073787e+00,9.43478e-01,9.99999e-01,9.99999e-01,9.43478e-01,9.99999e-01
1.145774156e+00,9.44563e-01,9.99999e-01,9.99999e-01,9.44563e-01,9.99999e-01
1.151503026e+00,9.45627e-01,9.99999e-01,9.99999e-01,9.45627e-01,9.99999e-01
1.157260541e+00,9.46672e-01,9.99999e-01,9.99999e-01,9.46672e-01,9.99999e-01
1.163046844e+00,9.47697e-01,9.99999e-01,9.99999e-01,9.47697e-01,9.99999e-01
1.168862078e+00,9.48703e-01,9.99999e-01,9.99999e-01,9.48703e-01,9.99999e-01
1.174706389e+00,9.49691e-01,9.99999e-01,9.99999e-01,9.49691e-01,9.99999e-01
1.180579921e+00,9.50660e-01,9.99999e-01,9.99999e-01,9.50660e-01,9.99999e-01
1.186482820e+00,9.51608e-01,9.99999e-01,9.99997e-01,9.51610e-01,9.99999e-01
1.192415234e+00,9.47787e-01,9.99999e-01,9.95007e-01,9.52543e-01,9.99999e-01
1.198377311e+00,5.73231e-01,9.99999e-01,6.01212e-01,9.53458e-01,9.99999e-01
1.204369197e+00,1.42969e-05,9.99999e-01,1.49807e-05,9.54356e-01,9.99999e-01
1.210391043e+00,1.49022e-16,9.99999e-01,1.56005e-16,9.55237e-01,9.99999e-01
1.216442998e+00,1.43341e-14,9.99999e-01,1.49922e-14,9.56102e-01,9.99999e-01
1.222525213e+00,2.45893e-14,9.99999e-01,2.56955e-14,9.56950e-01,9.99999e-01
1.228637839e+00,5.60865e-11,9.99999e-01,5.85586e-11,9.57782e-01,9.99999e-01
1.234781029e+00,7.15237e-08,9.99999e-01,7.46127e-08,9.58598e-01,9.99999e-01
1.240954934e+00,2.31705e-05,9.99999e-01,2.41510e-05,9.59399e-01,9.99999e-01
1.247159708e+00,2.53562e-03,9.99999e-01,2.64076e-03,9.60185e-01,9.99999e-01
1.253395507e+00,3.82232e-02,9.99999e-01,3.97762e-02,9.60956e-01,9.99999e-01
1.259662485e+00,1.55658e-01,9.99999e-01,1.61855e-01,9.61712e-01,9.99999e-01
1.265960797e+00,3.35165e-01,9.99999e-01,3.48240e-01,9.62454e-01,9.99999e-01
1.272290601e+00,6.27019e-01,9.99999e-01,6.50986e-01,9.63182e-01,9.99999e-01
1.278652054e+00,5.65991e-01,9.99999e-01,5.87191e-01,9.63896e-01,9.99999e-01
1.285045314e+00,6.89780e-02,9.99999e-01,7.15096e-02,9.64596e-01,9.99999e-01
1.291470541e+00,1.31657e-02,9.99999e-01,1.36392e-02,9.65283e-01,9.99999e-01
1.297927893e+00,7.99166e-02,9.99999e-01,8.27330e-02,9.65957e-01,9.99999e-01
1.304417533e+00,4.44446e-01,9.99999e-01,4.59795e-01,9.66618e-01,9.99999e-01
1.310939621e+00,1.36753e-01,9.99999e-01,1.41381e-01,9.67266e-01,9.99999e-01
1.317494319e+00,4.38117e-06,9.99999e-01,4.52646e-06,9.67903e-01,9.99999e-01
1.324081790e+00,1.21709e-04,9.99999e-01,1.25664e-04,9.68526e-01,9.99999e-01
1.330702199e+00,9.35389e-03,9.99999e-01,9.65175e-03,9.69138e-01,9.99999e-01
1.337355710e+00,6.16956e-03,9.99999e-01,6.36208e-03,9.69739e-01,9.99999e-01
1.344042489e+00,2.56755e-03,9.99999e-01,2.64607e-03,9.70327e-01,9.99999e-01
1.350762701e+00,7.70447e-03,9.99999e-01,7.93534e-03,9.70905e-01,9.99999e-01
1.357516515e+00,3.92778e-02,9.99999e-01,4.04312e-02,9.71471e-01,9.99999e-01
1.364304097e+00,1.35471e-01,9.99999e-01,1.39369e-01,9.72027e-01,9.99999e-01
1.371125618e+00,3.41278e-01,9.99999e-01,3.50902e-01,9.72572e-01,9.99999e-01
1.377981246e+00,4.24928e-01,9.99999e-01,4.36672e-01,9.73106e-01,9.99999e-01
1.384871152e+00,6.00878e-01,9.99999e-01,6.17151e-01,9.73630e-01,9.99999e-01
1.391795508e+00,6.23950e-01,9.99999e-01,6.40510e-01,9.74144e-01,9.99999e-01
1.398754485e+00,7.41449e-01,9.99999e-01,7.60734e-01,9.74648e-01,9.99999e-01
1.405748258e+00,7.96698e-01,9.99999e-01,8.17006e-01,9.75143e-01,9.99999e-01
1.412776999e+00,8.58980e-01,9.99999e-01,8.80437e-01,9.75628e-01,9.99999e-01
1.419840884e+00,8.07314e-01,9.99999e-01,8.27077e-01,9.76103e-01,9.99999e-01
1.426940089e+00,1.18554e-01,9.99999e-01,1.21398e-01,9.76570e-01,9.99999e-01
1.434074789e+00,4.58346e-226,9.99999e-01,4.69123e-226,9.77027e-01,9.99999e-01
1.441245163e+00,0.00000e+00,9.99999e-01,0.00000e+00,9.77476e-01,9.99999e-01
1.448451389e+00,5.42833e-274,9.99999e-01,5.55091e-274,9.77916e-01,9.99999e-01
1.455693646e+00,5.77532e-123,9.99999e-01,5.90313e-123,9.78347e-01,9.99999e-01
1.462972114e+00,2.61634e-60,9.99999e-01,2.67309e-60,9.78770e-01,9.99999e-01
1.470286975e+00,3.92576e-26,9.99999e-01,4.00921e-26,9.79185e-01,9.99999e-01
