#,Wave/freq,Total,O2,CO2,Rayleigh,CIA
4.000000000e-01,4.89945e-05,9.99999e-01,9.99999e-01,4.89945e-05,9.99999e-01
4.020000000e-01,5.96164e-05,9.99999e-01,9.99999e-01,5.96164e-05,9.99999e-01
4.040100000e-01,7.22458e-05,9.99999e-01,9.99999e-01,7.22458e-05,9.99999e-01
4.060300500e-01,8.72191e-05,9.99999e-01,9.99999e-01,8.72191e-05,9.99999e-01
4.080602003e-01,1.04905e-04,9.99999e-01,9.99999e-01,1.04905e-04,9.99999e-01
4.101005013e-01,1.25717e-04,9.99999e-01,9.99999e-01,1.25717e-04,9.99999e-01
4.121510038e-01,1.50121e-04,9.99999e-01,9.99999e-01,1.50121e-04,9.99999e-01
4.142117588e-01,1.78634e-04,9.99999e-01,9.99999e-01,1.78634e-04,9.99999e-01
4.162828176e-01,2.11835e-04,9.99999e-01,9.99999e-01,2.11835e-04,9.99999e-01
4.183642317e-01,2.50362e-04,9.99999e-01,9.99999e-01,2.50362e-04,9.99999e-01
4.204560528e-01,2.94921e-04,9.99999e-01,9.99999e-01,2.94921e-04,9.99999e-01
4.225583331e-01,3.46288e-04,9.99999e-01,9.99999e-01,3.46288e-04,9.99999e-01
4.246711247e-01,4.05315e-04,9.99999e-01,9.99999e-01,4.05315e-04,9.99999e-01
4.267944804e-01,4.72930e-04,9.99999e-01,9.99999e-01,4.72930e-04,9.99999e-01
4.289284528e-01,5.50146e-04,9.99999e-01,9.99999e-01,5.50146e-04,9.99999e-01
4.310730950e-01,6.38060e-04,9.99999e-01,9.99999e-01,6.38060e-04,9.99999e-01
4.332284605e-01,7.37859e-04,9.99999e-01,9.99999e-01,7.37859e-04,9.99999e-01
4.353946028e-01,8.50822e-04,9.99999e-01,9.99999e-01,8.50822e-04,9.99999e-01
4.375715758e-01,9.78322e-04,9.99999e-01,9.99999e-01,9.78322e-04,9.99999e-01
4.397594337e-01,1.12183e-03,9.99999e-01,9.99999e-01,1.12183e-03,9.99999e-01
4.419582309e-01,1.28292e-03,9.99999e-01,9.99999e-01,1.28292e-03,9.99999e-01
4.441680220e-01,1.46325e-03,9.99999e-01,9.99999e-01,1.46325e-03,9.99999e-01
4.463888621e-01,1.66460e-03,9.99999e-01,9.99999e-01,1.66460e-03,9.99999e-01
4.486208064e-01,1.88885e-03,9.99999e-01,9.99999e-01,1.88885e-03,9.99999e-01
4.508639105e-01,2.13796e-03,9.99999e-01,9.99999e-01,2.13796e-03,9.99999e-01
4.531182300e-01,2.41400e-03,9.99999e-01,9.99999e-01,2.41400e-03,9.99999e-01
4.553838212e-01,2.71916e-03,9.99999e-01,9.99999e-01,2.71916e-03,9.99999e-01
4.576607403e-01,3.05571e-03,9.99999e-01,9.99999e-01,3.05571e-03,9.99999e-01
4.599490440e-01,3.42600e-03,9.99999e-01,9.99999e-01,3.42600e-03,9.99999e-01
4.622487892e-01,3.83249e-03,9.99999e-01,9.99999e-01,3.83249e-03,9.99999e-01
4.645600332e-01,4.27773e-03,9.99999e-01,9.99999e-01,4.27773e-03,9.99999e-01
4.668828333e-01,4.76434e-03,9.99999e-01,9.99999e-01,4.76434e-03,9.99999e-01
4.692172475e-01,5.29502e-03,9.99999e-01,9.99999e-01,5.29502e-03,9.99999e-01
4.715633337e-01,5.87255e-03,9.99999e-01,9.99999e-01,5.87255e-03,9.99999e-01
4.739211504e-01,6.49977e-03,9.99999e-01,9.99999e-01,6.49977e-03,9.99999e-01
4.762907561e-01,7.17958e-03,9.99999e-01,9.99999e-01,7.17958e-03,9.99999e-01
4.786722099e-01,7.91491e-03,9.99999e-01,9.99999e-01,7.91491e-03,9.99999e-01
4.810655710e-01,8.70877e-03,9.99999e-01,9.99999e-01,8.70877e-03,9.99999e-01
4.834708988e-01,9.56419e-03,9.99999e-01,9.99999e-01,9.56419e-03,9.99999e-01
4.858882533e-01,1.04842e-02,9.99999e-01,9.99999e-01,1.04842e-02,9.99999e-01
4.883176946e-01,1.14719e-02,9.99999e-01,9.99999e-01,1.14719e-02,9.99999e-01
4.907592831e-01,1.25303e-02,9.99999e-01,9.99999e-01,1.25303e-02,9.99999e-01
4.932130795e-01,1.36625e-02,9.99999e-01,9.99999e-01,1.36625e-02,9.99999e-01
4.956791449e-01,1.48717e-02,9.99999e-01,9.99999e-01,1.48717e-02,9.99999e-01
4.981575406e-01,1.61607e-02,9.99999e-01,9.99999e-01,1.61607e-02,9.99999e-01
5.006483283e-01,1.75326e-02,9.99999e-01,9.99999e-01,1.75326e-02,9.99999e-01
5.031515699e-01,1.89905e-02,9.99999e-01,9.99999e-01,1.89905e-02,9.99999e-01
5.056673278e-01,2.05371e-02,9.99999e-01,9.99999e-01,2.05371e-02,9.99999e-01
5.081956644e-01,2.21753e-02,9.99999e-01,9.99999e-01,2.21753e-02,9.99999e-01
5.107366428e-01,2.39080e-02,9.99999e-01,9.99999e-01,2.39080e-02,9.99999e-01
5.132903260e-01,2.57378e-02,9.99999e-01,9.99999e-01,2.57378e-02,9.99999e-01
5.158567776e-01,2.76673e-02,9.99999e-01,9.99999e-01,2.76673e-02,9.99999e-01
5.184360615e-01,2.96990e-02,9.99999e-01,9.99999e-01,2.96990e-02,9.99999e-01
5.210282418e-01,3.18353e-02,9.99999e-01,9.99999e-01,3.18353e-02,9.99999e-01
5.236333830e-01,3.40784e-02,9.99999e-01,9.99999e-01,3.40784e-02,9.99999e-01
5.262515499e-01,3.64306e-02,9.99999e-01,9.99999e-01,3.64306e-02,9.99999e-01
5.288828077e-01,3.88939e-02,9.99999e-01,9.99999e-01,3.88939e-02,9.99999e-01
5.315272217e-01,4.14701e-02,9.99999e-01,9.99999e-01,4.14701e-02,9.99999e-01
5.341848578e-01,4.41609e-02,9.99999e-01,9.99999e-01,4.41609e-02,9.99999e-01
5.368557821e-01,4.69680e-02,9.99999e-01,9.99999e-01,4.69680e-02,9.99999e-01
5.395400610e-01,4.98927e-02,9.99999e-01,9.99999e-01,4.98927e-02,9.99999e-01
5.422377613e-01,5.29363e-02,9.99999e-01,9.99999e-01,5.29363e-02,9.99999e-01
5.449489501e-01,5.61000e-02,9.99999e-01,9.99999e-01,5.61000e-02,9.99999e-01
5.476736949e-01,5.93846e-02,9.99999e-01,9.99999e-01,5.93846e-02,9.99999e-01
5.504120634e-01,6.27909e-02,9.99999e-01,9.99999e-01,6.27909e-02,9.99999e-01
5.531641237e-01,6.63195e-02,9.99999e-01,9.99999e-01,6.63195e-02,9.99999e-01
5.559299443e-01,6.99708e-02,9.99999e-01,9.99999e-01,6.99708e-02,9.99999e-01
5.587095940e-01,7.37450e-02,9.99999e-01,9.99999e-01,7.37450e-02,9.99999e-01
5.615031420e-01,7.76422e-02,9.99999e-01,9.99999e-01,7.76422e-02,9.99999e-01
5.643106577e-01,8.16622e-02,9.99999e-01,9.99999e-01,8.16622e-02,9.99999e-01
5.671322110e-01,8.58048e-02,9.99999e-01,9.99999e-01,8.58048e-02,9.99999e-01
5.699678720e-01,9.00694e-02,9.99999e-01,9.99999e-01,9.00694e-02,9.99999e-01
5.728177114e-01,9.44554e-02,9.99999e-01,9.99999e-01,9.44554e-02,9.99999e-01
5.756818000e-01,9.89620e-02,9.99999e-01,9.99999e-01,9.89620e-02,9.99999e-01
5.785602090e-01,1.03588e-01,9.99999e-01,9.99999e-01,1.03588e-01,9.99999e-01
5.814530100e-01,1.08333e-01,9.99999e-01,9.99999e-01,1.08333e-01,9.99999e-01
5.843602750e-01,1.13195e-01,9.99999e-01,9.99999e-01,1.13195e-01,9.99999e-01
5.872820764e-01,1.18172e-01,9.99999e-01,9.99999e-01,1.18172e-01,9.99999e-01
5.902184868e-01,1.23264e-01,9.99999e-01,9.99999e-01,1.23264e-01,9.99999e-01
5.931695792e-01,1.28468e-01,9.99999e-01,9.99999e-01,1.28468e-01,9.99999e-01
5.961354271e-01,1.33782e-01,9.99999e-01,9.99999e-01,1.33782e-01,9.99999e-01
5.991161043e-01,1.39205e-01,9.99999e-01,9.99999e-01,1.39205e-01,9.99999e-01
6.021116848e-01,1.44733e-01,9.99999e-01,9.99999e-01,1.44733e-01,9.99999e-01
6.051222432e-01,1.50366e-01,9.99999e-01,9.99999e-01,1.50366e-01,9.99999e-01
6.081478544e-01,1.56100e-01,9.99999e-01,9.99999e-01,1.56100e-01,9.99999e-01
6.111885937e-01,1.61933e-01,9.99999e-01,9.99999e-01,1.61933e-01,9.99999e-01
6.142445367e-01,1.67862e-01,9.99999e-01,9.99999e-01,1.67862e-01,9.99999e-01
6.173157594e-01,1.73885e-01,9.99999e-01,9.99999e-01,1.73885e-01,9.99999e-01
6.204023382e-01,1.79998e-01,9.99999e-01,9.99999e-01,1.79998e-01,9.99999e-01
6.235043498e-01,1.86200e-01,9.99999e-01,9.99999e-01,1.86200e-01,9.99999e-01
6.266218716e-01,1.92486e-01,9.99999e-01,9.99999e-01,1.92486e-01,9.99999e-01
6.297549810e-01,1.98853e-01,9.99999e-01,9.99999e-01,1.98853e-01,9.99999e-01
6.329037559e-01,2.05300e-01,9.99999e-01,9.99999e-01,2.05300e-01,9.99999e-01
6.360682746e-01,2.11822e-01,9.99999e-01,9.99999e-01,2.11822e-01,9.99999e-01
6.392486160e-01,2.18416e-01,9.99999e-01,9.99999e-01,2.18416e-01,9.99999e-01
6.424448591e-01,2.25079e-01,9.99999e-01,9.99999e-01,2.25079e-01,9.99999e-01
6.456570834e-01,2.31808e-01,9.99999e-01,9.99999e-01,2.31808e-01,9.99999e-01
6.488853688e-01,2.38599e-01,9.99999e-01,9.99999e-01,2.38599e-01,9.99999e-01
6.521297956e-01,2.45449e-01,9.99999e-01,9.99999e-01,2.45449e-01,9.99999e-01
6.553904446e-01,2.52354e-01,9.99999e-01,9.99999e-01,2.52354e-01,9.99999e-01
6.586673968e-01,2.59312e-01,9.99999e-01,9.99999e-01,2.59312e-01,9.99999e-01
6.619607338e-01,2.66318e-01,9.99999e-01,9.99999e-01,2.66318e-01,9.99999e-01
6.652705375e-01,2.73370e-01,9.99999e-01,9.99999e-01,2.73370e-01,9.99999e-01
6.685968902e-01,2.80464e-01,9.99999e-01,9.99999e-01,2.80464e-01,9.99999e-01
6.719398746e-01,2.87596e-01,9.99999e-01,9.99999e-01,2.87596e-01,9.99999e-01
6.752995740e-01,2.94763e-01,9.99999e-01,9.99999e-01,2.94763e-01,9.99999e-01
6.786760719e-01,3.01962e-01,9.99999e-01,9.99999e-01,3.01962e-01,9.99999e-01
6.820694522e-01,3.09189e-01,9.99999e-01,9.99999e-01,3.09189e-01,9.99999e-01
6.854797995e-01,3.16442e-01,9.99999e-01,9.99999e-01,3.16442e-01,9.99999e-01
6.889071985e-01,3.23716e-01,9.99999e-01,9.99999e-01,3.23716e-01,9.99999e-01
6.923517345e-01,3.31009e-01,9.99999e-01,9.99999e-01,3.31009e-01,9.99999e-01
6.958134932e-01,3.38317e-01,9.99999e-01,9.99999e-01,3.38317e-01,9.99999e-01
6.992925606e-01,3.45637e-01,9.99999e-01,9.99999e-01,3.45637e-01,9.99999e-01
7.027890234e-01,3.52967e-01,9.99999e-01,9.99999e-01,3.52967e-01,9.99999e-01
7.063029686e-01,3.60303e-01,9.99999e-01,9.99999e-01,3.60303e-01,9.99999e-01
7.098344834e-01,3.67641e-01,9.99999e-01,9.99999e-01,3.67641e-01,9.99999e-01
7.133836558e-01,3.74980e-01,9.99999e-01,9.99999e-01,3.74980e-01,9.99999e-01
7.169505741e-01,3.82316e-01,9.99999e-01,9.99999e-01,3.82316e-01,9.99999e-01
7.205353270e-01,3.89647e-01,9.99999e-01,9.99999e-01,3.89647e-01,9.99999e-01
7.241380036e-01,3.96969e-01,9.99999e-01,9.99999e-01,3.96969e-01,9.99999e-01
7.277586936e-01,4.04279e-01,9.99999e-01,9.99999e-01,4.04279e-01,9.99999e-01
7.313974871e-01,4.11577e-01,9.99999e-01,9.99999e-01,4.11577e-01,9.99999e-01
7.350544745e-01,4.18857e-01,9.99999e-01,9.99999e-01,4.18857e-01,9.99999e-01
7.387297469e-01,4.26119e-01,9.99999e-01,9.99999e-01,4.26119e-01,9.99999e-01
7.424233956e-01,4.33360e-01,9.99999e-01,9.99999e-01,4.33360e-01,9.99999e-01
7.461355126e-01,4.40577e-01,9.99999e-01,9.99999e-01,4.40577e-01,9.99999e-01
7.498661902e-01,4.47769e-01,9.99999e-01,9.99999e-01,4.47769e-01,9.99999e-01
7.536155211e-01,4.54932e-01,9.99999e-01,9.99999e-01,4.54932e-01,9.99999e-01
7.573835987e-01,4.62064e-01,9.99999e-01,9.99999e-01,4.62064e-01,9.99999e-01
7.611705167e-01,4.69165e-01,9.99999e-01,9.99999e-01,4.69165e-01,9.99999e-01
7.649763693e-01,4.76231e-01,9.99999e-01,9.99999e-01,4.76231e-01,9.99999e-01
7.688012511e-01,4.83261e-01,9.99999e-01,9.99999e-01,4.83261e-01,9.99999e-01
7.726452574e-01,4.90252e-01,9.99999e-01,9.99999e-01,4.90252e-01,9.99999e-01
7.765084837e-01,4.97204e-01,9.99999e-01,9.99999e-01,4.97204e-01,9.99999e-01
7.803910261e-01,4.88039e-01,9.99999e-01,9.68112e-01,5.04114e-01,9.99999e-01
7.842929812e-01,4.41899e-01,9.99999e-01,8.64804e-01,5.10981e-01,9.99999e-01
7.882144461e-01,4.43371e-01,9.99999e-01,8.56254e-01,5.17803e-01,9.99999e-01
7.921555184e-01,4.79255e-01,9.99999e-01,9.13600e-01,5.24578e-01,9.99999e-01
7.961162960e-01,5.00035e-01,9.99999e-01,9.41143e-01,5.31306e-01,9.99999e-01
8.000968774e-01,5.20599e-01,9.99999e-01,9.67682e-01,5.37985e-01,9.99999e-01
8.040973618e-01,5.35410e-01,9.99999e-01,9.83102e-01,5.44613e-01,9.99999e-01
8.081178486e-01,5.46902e-01,9.99999e-01,9.92222e-01,5.51189e-01,9.99999e-01
8.121584379e-01,5.56366e-01,9.99999e-01,9.97583e-01,5.57713e-01,9.99999e-01
8.162192301e-01,5.63881e-01,9.99999e-01,9.99465e-01,5.64183e-01,9.99999e-01
8.203003262e-01,5.70593e-01,9.99999e-01,9.99991e-01,5.70597e-01,9.99999e-01
8.244018279e-01,5.76956e-01,9.99999e-01,9.99999e-01,5.76956e-01,9.99999e-01
8.285238370e-01,5.83258e-01,9.99999e-01,9.99999e-01,5.83258e-01,9.99999e-01
8.326664562e-01,5.89503e-01,9.99999e-01,9.99999e-01,5.89503e-01,9.99999e-01
8.368297885e-01,5.95688e-01,9.99999e-01,9.99999e-01,5.95688e-01,9.99999e-01
8.410139374e-01,6.01815e-01,9.99999e-01,9.99999e-01,6.01815e-01,9.99999e-01
8.452190071e-01,6.07882e-01,9.99999e-01,9.99999e-01,6.07882e-01,9.99999e-01
8.494451021e-01,6.13888e-01,9.99999e-01,9.99999e-01,6.13888e-01,9.99999e-01
8.536923276e-01,6.19833e-01,9.99999e-01,9.99999e-01,6.19833e-01,9.99999e-01
8.579607893e-01,6.25717e-01,9.99999e-01,9.99999e-01,6.25717e-01,9.99999e-01
8.622505932e-01,6.31539e-01,9.99999e-01,9.99999e-01,6.31539e-01,9.99999e-01
8.665618462e-01,5.91654e-01,9.99999e-01,9.28378e-01,6.37298e-01,9.99999e-01
8.708946554e-01,4.44736e-01,9.99999e-01,6.91663e-01,6.42995e-01,9.99999e-01
8.752491287e-01,4.81869e-01,9.99999e-01,7.42905e-01,6.48628e-01,9.99999e-01
8.796253743e-01,5.55695e-01,9.99999e-01,8.49429e-01,6.54198e-01,9.99999e-01
8.840235012e-01,6.06212e-01,9.99999e-01,9.18913e-01,6.59705e-01,9.99999e-01
8.884436187e-01,6.43320e-01,9.99999e-01,9.67184e-01,6.65147e-01,9.99999e-01
8.928858368e-01,6.61537e-01,9.99999e-01,9.86593e-01,6.70526e-01,9.99999e-01
8.973502660e-01,6.73624e-01,9.99999e-01,9.96720e-01,6.75841e-01,9.99999e-01
9.018370173e-01,6.80845e-01,9.99999e-01,9.99637e-01,6.81091e-01,9.99999e-01
9.063462024e-01,6.80003e-01,9.99999e-01,9.90855e-01,6.86278e-01,9.99999e-01
9.108779334e-01,6.76841e-01,9.99999e-01,9.78942e-01,6.91400e-01,9.99999e-01
9.154323231e-01,6.92976e-01,9.99999e-01,9.94999e-01,6.96458e-01,9.99999e-01
9.200094847e-01,6.52496e-01,9.99999e-01,9.30205e-01,7.01453e-01,9.99999e-01
9.246095321e-01,6.36514e-01,9.99999e-01,9.01089e-01,7.06383e-01,9.99999e-01
9.292325798e-01,6.55703e-01,9.99999e-01,9.21902e-01,7.11250e-01,9.99999e-01
9.338787427e-01,6.61729e-01,9.99999e-01,9.24133e-01,7.16053e-01,9.99999e-01
9.385481364e-01,6.80208e-01,9.99999e-01,9.43693e-01,7.20792e-01,9.99999e-01
9.432408771e-01,7.00158e-01,9.99999e-01,9.65110e-01,7.25469e-01,9.99999e-01
9.479570815e-01,7.16917e-01,9.99999e-01,9.81966e-01,7.30082e-01,9.99999e-01
9.526968669e-01,7.28212e-01,9.99999e-01,9.91258e-01,7.34633e-01,9.99999e-01
9.574603512e-01,7.36353e-01,9.99999e-01,9.96252e-01,7.39122e-01,9.99999e-01
9.622476530e-01,7.42678e-01,9.99999e-01,9.98829e-01,7.43548e-01,9.99999e-01
9.670588912e-01,7.47651e-01,9.99999e-01,9.99648e-01,7.47913e-01,9.99999e-01
9.718941857e-01,7.52198e-01,9.99999e-01,9.99974e-01,7.52217e-01,9.99999e-01
9.767536566e-01,7.56459e-01,9.99999e-01,9.99999e-01,7.56459e-01,9.99999e-01
9.816374249e-01,7.60641e-01,9.99999e-01,9.99999e-01,7.60641e-01,9.99999e-01
9.865456120e-01,7.64763e-01,9.99999e-01,9.99999e-01,7.64763e-01,9.99999e-01
9.914783401e-01,7.68825e-01,9.99999e-01,9.99999e-01,7.68825e-01,9.99999e-01
9.964357318e-01,7.72827e-01,9.99999e-01,9.99999e-01,7.72827e-01,9.99999e-01
1.001417910e+00,7.76771e-01,9.99999e-01,9.99999e-01,7.76771e-01,9.99999e-01
1.006425000e+00,7.80657e-01,9.99999e-01,9.99999e-01,7.80657e-01,9.99999e-01
1.011457125e+00,7.84484e-01,9.99999e-01,9.99999e-01,7.84484e-01,9.99999e-01
1.016514411e+00,7.88255e-01,9.99999e-01,9.99999e-01,7.88255e-01,9.99999e-01
1.021596983e+00,7.91931e-01,9.99999e-01,9.99953e-01,7.91968e-01,9.99999e-01
1.026704968e+00,7.92788e-01,9.99999e-01,9.96433e-01,7.95625e-01,9.99999e-01
1.031838492e+00,7.65890e-01,9.99999e-01,9.58289e-01,7.99226e-01,9.99999e-01
1.036997685e+00,1.28111e-01,9.99999e-01,1.59585e-01,8.02772e-01,9.99999e-01
1.042182673e+00,1.04649e-01,9.99999e-01,1.29795e-01,8.06263e-01,9.99999e-01
1.047393587e+00,1.22523e-01,9.99999e-01,1.51319e-01,8.09700e-01,9.99999e-01
1.052630555e+00,3.87352e-03,9.99999e-01,4.76399e-03,8.13083e-01,9.99999e-01
1.057893707e+00,9.61199e-03,9.99999e-01,1.17734e-02,8.16413e-01,9.99999e-01
1.063183176e+00,3.10918e-02,9.99999e-01,3.79311e-02,8.19690e-01,9.99999e-01
1.068499092e+00,8.52864e-02,9.99999e-01,1.03639e-01,8.22916e-01,9.99999e-01
1.073841587e+00,1.96869e-01,9.99999e-01,2.38314e-01,8.26090e-01,9.99999e-01
1.079210795e+00,3.34478e-01,9.99999e-01,4.03367e-01,8.29213e-01,9.99999e-01
1.084606849e+00,5.04898e-01,9.99999e-01,6.06639e-01,8.32286e-01,9.99999e-01
1.090029883e+00,6.44499e-01,9.99999e-01,7.71568e-01,8.35310e-01,9.99999e-01
1.095480033e+00,7.37685e-01,9.99999e-01,8.79993e-01,8.38284e-01,9.99999e-01
1.100957433e+00,7.90978e-01,9.99999e-01,9.40285e-01,8.41210e-01,9.99999e-01
1.106462220e+00,8.22860e-01,9.99999e-01,9.74849e-01,8.44088e-01,9.99999e-01
1.111994531e+00,8.38962e-01,9.99999e-01,9.90604e-01,8.46919e-01,9.99999e-01
1.117554504e+00,8.47744e-01,9.99999e-01,9.97694e-01,8.49703e-01,9.99999e-01
1.123142276e+00,8.52312e-01,9.99999e-01,9.99847e-01,8.52441e-01,9.99999e-01
1.128757988e+00,8.55133e-01,9.99999e-01,9.99999e-01,8.55133e-01,9.99999e-01
1.134401778e+00,8.57781e-01,9.99999e-01,9.99999e-01,8.57781e-01,9.99999e-01
1.140073787e+00,8.60384e-01,9.99999e-01,9.99999e-01,8.60384e-01,9.99999e-01
1.145774156e+00,8.62943e-01,9.99999e-01,9.99999e-01,8.62943e-01,9.99999e-01
1.151503026e+00,8.65460e-01,9.99999e-01,9.99999e-01,8.65460e-01,9.99999e-01
1.157260541e+00,8.67933e-01,9.99999e-01,9.99999e-01,8.67933e-01,9.99999e-01
1.163046844e+00,8.70365e-01,9.99999e-01,9.99999e-01,8.70365e-01,9.99999e-01
1.168862078e+00,8.72755e-01,9.99999e-01,9.99999e-01,8.72755e-01,9.99999e-01
1.174706389e+00,8.75104e-01,9.99999e-01,9.99999e-01,8.75104e-01,9.99999e-01
1.180579921e+00,8.77414e-01,9.99999e-01,9.99999e-01,8.77414e-01,9.99999e-01
1.186482820e+00,8.79678e-01,9.99999e-01,9.99993e-01,8.79683e-01,9.99999e-01
1.192415234e+00,8.70748e-01,9.99999e-01,9.87338e-01,8.81913e-01,9.99999e-01
1.198377311e+00,4.97727e-01,9.99999e-01,5.62972e-01,8.84105e-01,9.99999e-01
1.204369197e+00,7.44921e-11,9.99999e-01,8.40523e-11,8.86259e-01,9.99999e-01
1.210391043e+00,3.23004e-39,9.99999e-01,3.63589e-39,8.88375e-01,9.99999e-01
1.216442998e+00,3.80797e-34,9.99999e-01,4.27643e-34,8.90454e-01,9.99999e-01
1.222525213e+00,1.17642e-33,9.99999e-01,1.31812e-33,8.92497e-01,9.99999e-01
1.228637839e+00,4.58858e-26,9.99999e-01,5.12974e-26,8.94505e-01,9.99999e-01
1.234781029e+00,5.85461e-17,9.99999e-01,6.53068e-17,8.96477e-01,9.99999e-01
1.240954934e+00,1.80135e-11,9.99999e-01,2.00503e-11,8.98414e-01,9.99999e-01
1.247159708e+00,1.97162e-06,9.99999e-01,2.18991e-06,9.00317e-01,9.99999e-01
1.253395507e+00,3.82801e-04,9.99999e-01,4.24303e-04,9.02186e-01,9.99999e-01
1.259662485e+00,1.05357e-02,9.99999e-01,1.16542e-02,9.04022e-01,9.99999e-01
1.265960797e+00,6.85700e-02,9.99999e-01,7.56988e-02,9.05826e-01,9.99999e-01
1.272290601e+00,3.05575e-01,9.99999e-01,3.36685e-01,9.07597e-01,9.99999e-01
1.278652054e+00,2.62909e-01,9.99999e-01,2.89122e-01,9.09337e-01,9.99999e-01
1.285045314e+00,7.67228e-03,9.99999e-01,8.42139e-03,9.11046e-01,9.99999e-01
1.291470541e+00,2.73130e-05,9.99999e-01,2.99247e-05,9.12724e-01,9.99999e-01
1.297927893e+00,5.12914e-03,9.99999e-01,5.60946e-03,9.14372e-01,9.99999e-01
1.304417533e+00,1.26352e-01,9.99999e-01,1.37940e-01,9.15990e-01,9.99999e-01
1.310939621e+00,3.13084e-02,9.99999e-01,3.41207e-02,9.17579e-01,9.99999e-01
1.317494319e+00,5.96560e-14,9.99999e-01,6.49041e-14,9.19139e-01,9.99999e-01
1.324081790e+00,1.04962e-09,9.99999e-01,1.14006e-09,9.20671e-01,9.99999e-01
1.330702199e+00,9.76592e-06,9.99999e-01,1.05901e-05,9.22175e-01,9.99999e-01
1.337355710e+00,1.19967e-05,9.99999e-01,1.29883e-05,9.23652e-01,9.99999e-01
1.344042489e+00,3.64799e-06,9.99999e-01,3.94333e-06,9.25103e-01,9.99999e-01
1.350762701e+00,6.10649e-06,9.99999e-01,6.59074e-06,9.26526e-01,9.99999e-01
1.357516515e+00,4.37134e-04,9.99999e-01,4.71088e-04,9.27924e-01,9.99999e-01
1.364304097e+00,6.41349e-03,9.99999e-01,6.90145e-03,9.29296e-01,9.99999e-01
1.371125618e+00,6.92514e-02,9.99999e-01,7.44124e-02,9.30643e-01,9.99999e-01
1.377981246e+00,1.11116e-01,9.99999e-01,1.19228e-01,9.31965e-01,9.99999e-01
1.384871152e+00,2.70677e-01,9.99999e-01,2.90033e-01,9.33263e-01,9.99999e-01
1.391795508e+00,2.97658e-01,9.99999e-01,3.18508e-01,9.34537e-01,9.99999e-01
1.398754485e+00,4.61931e-01,9.99999e-01,4.93627e-01,9.35788e-01,9.99999e-01
1.405748258e+00,5.57058e-01,9.99999e-01,5.94502e-01,9.37015e-01,9.99999e-01
1.412776999e+00,6.75474e-01,9.99999e-01,7.19952e-01,9.38220e-01,9.99999e-01
1.419840884e+00,6.10716e-01,9.99999e-01,6.50111e-01,9.39403e-01,9.99999e-01
1.426940089e+00,5.82186e-02,9.99999e-01,6.18975e-02,9.40563e-01,9.99999e-01
1.434074789e+00,0.00000e+00,9.99999e-01,0.00000e+00,9.41702e-01,9.99999e-01
1.441245163e+00,0.00000e+00,9.99999e-01,0.00000e+00,9.42820e-01,9.99999e-01
1.448451389e+00,0.00000e+00,9.99999e-01,0.00000e+00,9.43917e-01,9.99999e-01
1.455693646e+00,3.12193e-314,9.99999e-01,3.30365e-314,9.44994e-01,9.99999e-01
1.462972114e+00,2.65655e-152,9.99999e-01,2.80804e-152,9.46051e-01,9.99999e-01
1.470286975e+00,5.41597e-64,9.99999e-01,5.71855e-64,9.47088e-01,9.99999e-01
