#,Wave/freq,Total,O2,CO2,Rayleigh,CIA
4.000000000e-01,9.15066e-06,9.99999e-01,9.99999e-01,9.15066e-06,9.99999e-01
4.020000000e-01,1.15101e-05,9.99999e-01,9.99999e-01,1.15101e-05,9.99999e-01
4.040100000e-01,1.44090e-05,9.99999e-01,9.99999e-01,1.44090e-05,9.99999e-01
4.060300500e-01,1.79583e-05,9.99999e-01,9.99999e-01,1.79583e-05,9.99999e-01
4.080602003e-01,2.22846e-05,9.99999e-01,9.99999e-01,2.22846e-05,9.99999e-01
4.101005013e-01,2.75355e-05,9.99999e-01,9.99999e-01,2.75355e-05,9.99999e-01
4.121510038e-01,3.38818e-05,9.99999e-01,9.99999e-01,3.38818e-05,9.99999e-01
4.142117588e-01,4.15203e-05,9.99999e-01,9.99999e-01,4.15203e-05,9.99999e-01
4.162828176e-01,5.06770e-05,9.99999e-01,9.99999e-01,5.06770e-05,9.99999e-01
4.183642317e-01,6.16100e-05,9.99999e-01,9.99999e-01,6.16100e-05,9.99999e-01
4.204560528e-01,7.46133e-05,9.99999e-01,9.99999e-01,7.46133e-05,9.99999e-01
4.225583331e-01,9.00198e-05,9.99999e-01,9.99999e-01,9.00198e-05,9.99999e-01
4.246711247e-01,1.08206e-04,9.99999e-01,9.99999e-01,1.08206e-04,9.99999e-01
4.267944804e-01,1.29594e-04,9.99999e-01,9.99999e-01,1.29594e-04,9.99999e-01
4.289284528e-01,1.54657e-04,9.99999e-01,9.99999e-01,1.54657e-04,9.99999e-01
4.310730950e-01,1.83924e-04,9.99999e-01,9.99999e-01,1.83924e-04,9.99999e-01
4.332284605e-01,2.17982e-04,9.99999e-01,9.99999e-01,2.17982e-04,9.99999e-01
4.353946028e-01,2.57482e-04,9.99999e-01,9.99999e-01,2.57482e-04,9.99999e-01
4.375715758e-01,3.03140e-04,9.99999e-01,9.99999e-01,3.03140e-04,9.99999e-01
4.397594337e-01,3.55746e-04,9.99999e-01,9.99999e-01,3.55746e-04,9.99999e-01
4.419582309e-01,4.16163e-04,9.99999e-01,9.99999e-01,4.16163e-04,9.99999e-01
4.441680220e-01,4.85334e-04,9.99999e-01,9.99999e-01,4.85334e-04,9.99999e-01
4.463888621e-01,5.64287e-04,9.99999e-01,9.99999e-01,5.64287e-04,9.99999e-01
4.486208064e-01,6.54133e-04,9.99999e-01,9.99999e-01,6.54133e-04,9.99999e-01
4.508639105e-01,7.56074e-04,9.99999e-01,9.99999e-01,7.56074e-04,9.99999e-01
4.531182300e-01,8.71406e-04,9.99999e-01,9.99999e-01,8.71406e-04,9.99999e-01
4.553838212e-01,1.00152e-03,9.99999e-01,9.99999e-01,1.00152e-03,9.99999e-01
4.576607403e-01,1.14790e-03,9.99999e-01,9.99999e-01,1.14790e-03,9.99999e-01
4.599490440e-01,1.31213e-03,9.99999e-01,9.99999e-01,1.31213e-03,9.99999e-01
4.622487892e-01,1.49591e-03,9.99999e-01,9.99999e-01,1.49591e-03,9.99999e-01
4.645600332e-01,1.70101e-03,9.99999e-01,9.99999e-01,1.70101e-03,9.99999e-01
4.668828333e-01,1.92933e-03,9.99999e-01,9.99999e-01,1.92933e-03,9.99999e-01
4.692172475e-01,2.18287e-03,9.99999e-01,9.99999e-01,2.18287e-03,9.99999e-01
4.715633337e-01,2.46370e-03,9.99999e-01,9.99999e-01,2.46370e-03,9.99999e-01
4.739211504e-01,2.77403e-03,9.99999e-01,9.99999e-01,2.77403e-03,9.99999e-01
4.762907561e-01,3.11613e-03,9.99999e-01,9.99999e-01,3.11613e-03,9.99999e-01
4.786722099e-01,3.49239e-03,9.99999e-01,9.99999e-01,3.49239e-03,9.99999e-01
4.810655710e-01,3.90528e-03,9.99999e-01,9.99999e-01,3.90528e-03,9.99999e-01
4.834708988e-01,4.35736e-03,9.99999e-01,9.99999e-01,4.35736e-03,9.99999e-01
4.858882533e-01,4.85126e-03,9.99999e-01,9.99999e-01,4.85126e-03,9.99999e-01
4.883176946e-01,5.38970e-03,9.99999e-01,9.99999e-01,5.38970e-03,9.99999e-01
4.907592831e-01,5.97546e-03,9.99999e-01,9.99999e-01,5.97546e-03,9.99999e-01
4.932130795e-01,6.61140e-03,9.99999e-01,9.99999e-01,6.61140e-03,9.99999e-01
4.956791449e-01,7.30043e-03,9.99999e-01,9.99999e-01,7.30043e-03,9.99999e-01
4.981575406e-01,8.04549e-03,9.99999e-01,9.99999e-01,8.04549e-03,9.99999e-01
5.006483283e-01,8.84959e-03,9.99999e-01,9.99999e-01,8.84959e-03,9.99999e-01
5.031515699e-01,9.71575e-03,9.99999e-01,9.99999e-01,9.71575e-03,9.99999e-01
5.056673278e-01,1.06470e-02,9.99999e-01,9.99999e-01,1.06470e-02,9.99999e-01
5.081956644e-01,1.16465e-02,9.99999e-01,9.99999e-01,1.16465e-02,9.99999e-01
5.107366428e-01,1.27173e-02,9.99999e-01,9.99999e-01,1.27173e-02,9.99999e-01
5.132903260e-01,1.38623e-02,9.99999e-01,9.99999e-01,1.38623e-02,9.99999e-01
5.158567776e-01,1.50848e-02,9.99999e-01,9.99999e-01,1.50848e-02,9.99999e-01
5.184360615e-01,1.63877e-02,9.99999e-01,9.99999e-01,1.63877e-02,9.99999e-01
5.210282418e-01,1.77740e-02,9.99999e-01,9.99999e-01,1.77740e-02,9.99999e-01
5.236333830e-01,1.92467e-02,9.99999e-01,9.99999e-01,1.92467e-02,9.99999e-01
5.262515499e-01,2.08087e-02,9.99999e-01,9.99999e-01,2.08087e-02,9.99999e-01
5.288828077e-01,2.24628e-02,9.99999e-01,9.99999e-01,2.24628e-02,9.99999e-01
5.315272217e-01,2.42118e-02,9.99999e-01,9.99999e-01,2.42118e-02,9.99999e-01
5.341848578e-01,2.60583e-02,9.99999e-01,9.99999e-01,2.60583e-02,9.99999e-01
5.368557821e-01,2.80049e-02,9.99999e-01,9.99999e-01,2.80049e-02,9.99999e-01
5.395400610e-01,3.00542e-02,9.99999e-01,9.99999e-01,3.00542e-02,9.99999e-01
5.422377613e-01,3.22085e-02,9.99999e-01,9.99999e-01,3.22085e-02,9.99999e-01
5.449489501e-01,3.44701e-02,9.99999e-01,9.99999e-01,3.44701e-02,9.99999e-01
5.476736949e-01,3.68410e-02,9.99999e-01,9.99999e-01,3.68410e-02,9.99999e-01
5.504120634e-01,3.93233e-02,9.99999e-01,9.99999e-01,3.93233e-02,9.99999e-01
5.531641237e-01,4.19188e-02,9.99999e-01,9.99999e-01,4.19188e-02,9.99999e-01
5.559299443e-01,4.46293e-02,9.99999e-01,9.99999e-01,4.46293e-02,9.99999e-01
5.587095940e-01,4.74562e-02,9.99999e-01,9.99999e-01,4.74562e-02,9.99999e-01
5.615031420e-01,5.04010e-02,9.99999e-01,9.99999e-01,5.04010e-02,9.99999e-01
5.643106577e-01,5.34650e-02,9.99999e-01,9.99999e-01,5.34650e-02,9.99999e-01
5.671322110e-01,5.66491e-02,9.99999e-01,9.99999e-01,5.66491e-02,9.99999e-01
5.699678720e-01,5.99544e-02,9.99999e-01,9.99999e-01,5.99544e-02,9.99999e-01
5.728177114e-01,6.33814e-02,9.99999e-01,9.99999e-01,6.33814e-02,9.99999e-01
5.756818000e-01,6.69308e-02,9.99999e-01,9.99999e-01,6.69308e-02,9.99999e-01
5.785602090e-01,7.06030e-02,9.99999e-01,9.99999e-01,7.06030e-02,9.99999e-01
5.814530100e-01,7.43980e-02,9.99999e-01,9.99999e-01,7.43980e-02,9.99999e-01
5.843602750e-01,7.83161e-02,9.99999e-01,9.99999e-01,7.83161e-02,9.99999e-01
5.872820764e-01,8.23569e-02,9.99999e-01,9.99999e-01,8.23569e-02,9.99999e-01
5.902184868e-01,8.65202e-02,9.99999e-01,9.99999e-01,8.65202e-02,9.99999e-01
5.931695792e-01,9.08055e-02,9.99999e-01,9.99999e-01,9.08055e-02,9.99999e-01
5.961354271e-01,9.52121e-02,9.99999e-01,9.99999e-01,9.52121e-02,9.99999e-01
5.991161043e-01,9.97391e-02,9.99999e-01,9.99999e-01,9.97391e-02,9.99999e-01
6.021116848e-01,1.04386e-01,9.99999e-01,9.99999e-01,1.04386e-01,9.99999e-01
6.051222432e-01,1.09150e-01,9.99999e-01,9.99999e-01,1.09150e-01,9.99999e-01
6.081478544e-01,1.14032e-01,9.99999e-01,9.99999e-01,1.14032e-01,9.99999e-01
6.111885937e-01,1.19029e-01,9.99999e-01,9.99999e-01,1.19029e-01,9.99999e-01
6.142445367e-01,1.24140e-01,9.99999e-01,9.99999e-01,1.24140e-01,9.99999e-01
6.173157594e-01,1.29362e-01,9.99999e-01,9.99999e-01,1.29362e-01,9.99999e-01
6.204023382e-01,1.34695e-01,9.99999e-01,9.99999e-01,1.34695e-01,9.99999e-01
6.235043498e-01,1.40136e-01,9.99999e-01,9.99999e-01,1.40136e-01,9.99999e-01
6.266218716e-01,1.45682e-01,9.99999e-01,9.99999e-01,1.45682e-01,9.99999e-01
6.297549810e-01,1.51332e-01,9.99999e-01,9.99999e-01,1.51332e-01,9.99999e-01
6.329037559e-01,1.57083e-01,9.99999e-01,9.99999e-01,1.57083e-01,9.99999e-01
6.360682746e-01,1.62933e-01,9.99999e-01,9.99999e-01,1.62933e-01,9.99999e-01
6.392486160e-01,1.68878e-01,9.99999e-01,9.99999e-01,1.68878e-01,9.99999e-01
6.424448591e-01,1.74916e-01,9.99999e-01,9.99999e-01,1.74916e-01,9.99999e-01
6.456570834e-01,1.81045e-01,9.99999e-01,9.99999e-01,1.81045e-01,9.99999e-01
6.488853688e-01,1.87261e-01,9.99999e-01,9.99999e-01,1.87261e-01,9.99999e-01
6.521297956e-01,1.93561e-01,9.99999e-01,9.99999e-01,1.93561e-01,9.99999e-01
6.553904446e-01,1.99943e-01,9.99999e-01,9.99999e-01,1.99943e-01,9.99999e-01
6.586673968e-01,2.06402e-01,9.99999e-01,9.99999e-01,2.06402e-01,9.99999e-01
6.619607338e-01,2.12937e-01,9.99999e-01,9.99999e-01,2.12937e-01,9.99999e-01
6.652705375e-01,2.19543e-01,9.99999e-01,9.99999e-01,2.19543e-01,9.99999e-01
6.685968902e-01,2.26217e-01,9.99999e-01,9.99999e-01,2.26217e-01,9.99999e-01
6.719398746e-01,2.32957e-01,9.99999e-01,9.99999e-01,2.32957e-01,9.99999e-01
6.752995740e-01,2.39758e-01,9.99999e-01,9.99999e-01,2.39758e-01,9.99999e-01
6.786760719e-01,2.46618e-01,9.99999e-01,9.99999e-01,2.46618e-01,9.99999e-01
6.820694522e-01,2.53532e-01,9.99999e-01,9.99999e-01,2.53532e-01,9.99999e-01
6.854797995e-01,2.60498e-01,9.99999e-01,9.99999e-01,2.60498e-01,9.99999e-01
6.889071985e-01,2.67513e-01,9.99999e-01,9.99999e-01,2.67513e-01,9.99999e-01
6.923517345e-01,2.74572e-01,9.99999e-01,9.99999e-01,2.74572e-01,9.99999e-01
6.958134932e-01,2.81672e-01,9.99999e-01,9.99999e-01,2.81672e-01,9.99999e-01
6.992925606e-01,2.88810e-01,9.99999e-01,9.99999e-01,2.88810e-01,9.99999e-01
7.027890234e-01,2.95983e-01,9.99999e-01,9.99999e-01,2.95983e-01,9.99999e-01
7.063029686e-01,3.03187e-01,9.99999e-01,9.99999e-01,3.03187e-01,9.99999e-01
7.098344834e-01,3.10419e-01,9.99999e-01,9.99999e-01,3.10419e-01,9.99999e-01
7.133836558e-01,3.17675e-01,9.99999e-01,9.99999e-01,3.17675e-01,9.99999e-01
7.169505741e-01,3.24953e-01,9.99999e-01,9.99999e-01,3.24953e-01,9.99999e-01
7.205353270e-01,3.32248e-01,9.99999e-01,9.99999e-01,3.32248e-01,9.99999e-01
7.241380036e-01,3.39559e-01,9.99999e-01,9.99999e-01,3.39559e-01,9.99999e-01
7.277586936e-01,3.46881e-01,9.99999e-01,9.99999e-01,3.46881e-01,9.99999e-01
7.313974871e-01,3.54212e-01,9.99999e-01,9.99999e-01,3.54212e-01,9.99999e-01
7.350544745e-01,3.61549e-01,9.99999e-01,9.99999e-01,3.61549e-01,9.99999e-01
7.387297469e-01,3.68887e-01,9.99999e-01,9.99999e-01,3.68887e-01,9.99999e-01
7.424233956e-01,3.76226e-01,9.99999e-01,9.99999e-01,3.76226e-01,9.99999e-01
7.461355126e-01,3.83561e-01,9.99999e-01,9.99999e-01,3.83561e-01,9.99999e-01
7.498661902e-01,3.90890e-01,9.99999e-01,9.99999e-01,3.90890e-01,9.99999e-01
7.536155211e-01,3.98211e-01,9.99999e-01,9.99999e-01,3.98211e-01,9.99999e-01
7.573835987e-01,4.05519e-01,9.99999e-01,9.99999e-01,4.05519e-01,9.99999e-01
7.611705167e-01,4.12814e-01,9.99999e-01,9.99999e-01,4.12814e-01,9.99999e-01
7.649763693e-01,4.20092e-01,9.99999e-01,9.99999e-01,4.20092e-01,9.99999e-01
7.688012511e-01,4.27350e-01,9.99999e-01,9.99999e-01,4.27350e-01,9.99999e-01
7.726452574e-01,4.34587e-01,9.99999e-01,9.99999e-01,4.34587e-01,9.99999e-01
7.765084837e-01,4.41800e-01,9.99999e-01,9.99999e-01,4.41800e-01,9.99999e-01
7.803910261e-01,4.32401e-01,9.99999e-01,9.63059e-01,4.48987e-01,9.99999e-01
7.842929812e-01,3.85301e-01,9.99999e-01,8.44688e-01,4.56145e-01,9.99999e-01
7.882144461e-01,3.86816e-01,9.99999e-01,8.34964e-01,4.63272e-01,9.99999e-01
7.921555184e-01,4.23259e-01,9.99999e-01,8.99848e-01,4.70367e-01,9.99999e-01
7.961162960e-01,4.44793e-01,9.99999e-01,9.31645e-01,4.77427e-01,9.99999e-01
8.000968774e-01,4.66218e-01,9.99999e-01,9.62364e-01,4.84451e-01,9.99999e-01
8.040973618e-01,4.81758e-01,9.99999e-01,9.80307e-01,4.91436e-01,9.99999e-01
8.081178486e-01,4.93856e-01,9.99999e-01,9.90920e-01,4.98380e-01,9.99999e-01
8.121584379e-01,5.03860e-01,9.99999e-01,9.97182e-01,5.05283e-01,9.99999e-01
8.162192301e-01,5.11824e-01,9.99999e-01,9.99377e-01,5.12142e-01,9.99999e-01
8.203003262e-01,5.18952e-01,9.99999e-01,9.99990e-01,5.18956e-01,9.99999e-01
8.244018279e-01,5.25724e-01,9.99999e-01,9.99999e-01,5.25724e-01,9.99999e-01
8.285238370e-01,5.32443e-01,9.99999e-01,9.99999e-01,5.32443e-01,9.99999e-01
8.326664562e-01,5.39114e-01,9.99999e-01,9.99999e-01,5.39114e-01,9.99999e-01
8.368297885e-01,5.45733e-01,9.99999e-01,9.99999e-01,5.45733e-01,9.99999e-01
8.410139374e-01,5.52301e-01,9.99999e-01,9.99999e-01,5.52301e-01,9.99999e-01
8.452190071e-01,5.58815e-01,9.99999e-01,9.99999e-01,5.58815e-01,9.99999e-01
8.494451021e-01,5.65276e-01,9.99999e-01,9.99999e-01,5.65276e-01,9.99999e-01
8.536923276e-01,5.71681e-01,9.99999e-01,9.99999e-01,5.71681e-01,9.99999e-01
8.579607893e-01,5.78030e-01,9.99999e-01,9.99999e-01,5.78030e-01,9.99999e-01
8.622505932e-01,5.84322e-01,9.99999e-01,9.99999e-01,5.84322e-01,9.99999e-01
8.665618462e-01,5.43859e-01,9.99999e-01,9.20925e-01,5.90557e-01,9.99999e-01
8.708946554e-01,3.89287e-01,9.99999e-01,6.52363e-01,5.96733e-01,9.99999e-01
8.752491287e-01,4.26832e-01,9.99999e-01,7.08024e-01,6.02849e-01,9.99999e-01
8.796253743e-01,5.03484e-01,9.99999e-01,8.26865e-01,6.08906e-01,9.99999e-01
8.840235012e-01,5.57122e-01,9.99999e-01,9.06034e-01,6.14902e-01,9.99999e-01
8.884436187e-01,5.97134e-01,9.99999e-01,9.61820e-01,6.20837e-01,9.99999e-01
8.928858368e-01,6.16912e-01,9.99999e-01,9.84365e-01,6.26710e-01,9.99999e-01
8.973502660e-01,6.30103e-01,9.99999e-01,9.96176e-01,6.32521e-01,9.99999e-01
9.018370173e-01,6.38001e-01,9.99999e-01,9.99577e-01,6.38270e-01,9.99999e-01
9.063462024e-01,6.37062e-01,9.99999e-01,9.89294e-01,6.43956e-01,9.99999e-01
9.108779334e-01,6.33635e-01,9.99999e-01,9.75455e-01,6.49578e-01,9.99999e-01
9.154323231e-01,6.51321e-01,9.99999e-01,9.94174e-01,6.55138e-01,9.99999e-01
9.200094847e-01,6.07501e-01,9.99999e-01,9.19573e-01,6.60633e-01,9.99999e-01
9.246095321e-01,5.89816e-01,9.99999e-01,8.85523e-01,6.66065e-01,9.99999e-01
9.292325798e-01,6.10601e-01,9.99999e-01,9.09400e-01,6.71433e-01,9.99999e-01
9.338787427e-01,6.17219e-01,9.99999e-01,9.12051e-01,6.76737e-01,9.99999e-01
9.385481364e-01,6.37352e-01,9.99999e-01,9.34565e-01,6.81976e-01,9.99999e-01
9.432408771e-01,6.59244e-01,9.99999e-01,9.59384e-01,6.87152e-01,9.99999e-01
9.479570815e-01,6.77702e-01,9.99999e-01,9.78964e-01,6.92263e-01,9.99999e-01
9.526968669e-01,6.90199e-01,9.99999e-01,9.89799e-01,6.97311e-01,9.99999e-01
9.574603512e-01,6.99223e-01,9.99999e-01,9.95625e-01,7.02294e-01,9.99999e-01
9.622476530e-01,7.06248e-01,9.99999e-01,9.98633e-01,7.07214e-01,9.99999e-01
9.670588912e-01,7.11778e-01,9.99999e-01,9.99590e-01,7.12070e-01,9.99999e-01
9.718941857e-01,7.16841e-01,9.99999e-01,9.99970e-01,7.16862e-01,9.99999e-01
9.767536566e-01,7.21591e-01,9.99999e-01,9.99999e-01,7.21591e-01,9.99999e-01
9.816374249e-01,7.26257e-01,9.99999e-01,9.99999e-01,7.26257e-01,9.99999e-01
9.865456120e-01,7.30860e-01,9.99999e-01,9.99999e-01,7.30860e-01,9.99999e-01
9.914783401e-01,7.35400e-01,9.99999e-01,9.99999e-01,7.35400e-01,9.99999e-01
9.964357318e-01,7.39878e-01,9.99999e-01,9.99999e-01,7.39878e-01,9.99999e-01
1.001417910e+00,7.44294e-01,9.99999e-01,9.99999e-01,7.44294e-01,9.99999e-01
1.006425000e+00,7.48648e-01,9.99999e-01,9.99999e-01,7.48648e-01,9.99999e-01
1.011457125e+00,7.52941e-01,9.99999e-01,9.99999e-01,7.52941e-01,9.99999e-01
1.016514411e+00,7.57173e-01,9.99999e-01,9.99999e-01,7.57173e-01,9.99999e-01
1.021596983e+00,7.61303e-01,9.99999e-01,9.99943e-01,7.61345e-01,9.99999e-01
1.026704968e+00,7.62255e-01,9.99999e-01,9.95816e-01,7.65457e-01,9.99999e-01
1.031838492e+00,7.33227e-01,9.99999e-01,9.52849e-01,7.69509e-01,9.99999e-01
1.036997685e+00,1.06798e-01,9.99999e-01,1.38070e-01,7.73501e-01,9.99999e-01
1.042182673e+00,7.38935e-02,9.99999e-01,9.50478e-02,7.77435e-01,9.99999e-01
1.047393587e+00,9.33643e-02,9.99999e-01,1.19497e-01,7.81311e-01,9.99999e-01
1.052630555e+00,1.81441e-03,9.99999e-01,2.31097e-03,7.85129e-01,9.99999e-01
1.057893707e+00,4.87012e-03,9.99999e-01,6.17338e-03,7.88889e-01,9.99999e-01
1.063183176e+00,1.84166e-02,9.99999e-01,2.32358e-02,7.92593e-01,9.99999e-01
1.068499092e+00,5.71694e-02,9.99999e-01,7.17991e-02,7.96240e-01,9.99999e-01
1.073841587e+00,1.50967e-01,9.99999e-01,1.88748e-01,7.99832e-01,9.99999e-01
1.079210795e+00,2.79441e-01,9.99999e-01,3.47836e-01,8.03368e-01,9.99999e-01
1.084606849e+00,4.50516e-01,9.99999e-01,5.58363e-01,8.06850e-01,9.99999e-01
1.090029883e+00,5.98661e-01,9.99999e-01,7.38833e-01,8.10278e-01,9.99999e-01
1.095480033e+00,7.00865e-01,9.99999e-01,8.61380e-01,8.13652e-01,9.99999e-01
1.100957433e+00,7.60292e-01,9.99999e-01,9.30620e-01,8.16973e-01,9.99999e-01
1.106462220e+00,7.96205e-01,9.99999e-01,9.70694e-01,8.20242e-01,9.99999e-01
1.111994531e+00,8.14431e-01,9.99999e-01,9.89036e-01,8.23458e-01,9.99999e-01
1.117554504e+00,8.24401e-01,9.99999e-01,9.97310e-01,8.26624e-01,9.99999e-01
1.123142276e+00,8.29592e-01,9.99999e-01,9.99822e-01,8.29739e-01,9.99999e-01
1.128757988e+00,8.32803e-01,9.99999e-01,9.99999e-01,8.32803e-01,9.99999e-01
1.134401778e+00,8.35818e-01,9.99999e-01,9.99999e-01,8.35818e-01,9.99999e-01
1.140073787e+00,8.38784e-01,9.99999e-01,9.99999e-01,8.38784e-01,9.99999e-01
1.145774156e+00,8.41702e-01,9.99999e-01,9.99999e-01,8.41702e-01,9.99999e-01
1.151503026e+00,8.44572e-01,9.99999e-01,9.99999e-01,8.44572e-01,9.99999e-01
1.157260541e+00,8.47395e-01,9.99999e-01,9.99999e-01,8.47395e-01,9.99999e-01
1.163046844e+00,8.50171e-01,9.99999e-01,9.99999e-01,8.50171e-01,9.99999e-01
1.168862078e+00,8.52901e-01,9.99999e-01,9.99999e-01,8.52901e-01,9.99999e-01
1.174706389e+00,8.55586e-01,9.99999e-01,9.99999e-01,8.55586e-01,9.99999e-01
1.180579921e+00,8.58226e-01,9.99999e-01,9.99999e-01,8.58226e-01,9.99999e-01
1.186482820e+00,8.60815e-01,9.99999e-01,9.99992e-01,8.60822e-01,9.99999e-01
1.192415234e+00,8.50581e-01,9.99999e-01,9.85182e-01,8.63374e-01,9.99999e-01
1.198377311e+00,4.83700e-01,9.99999e-01,5.58620e-01,8.65883e-01,9.99999e-01
1.204369197e+00,2.61111e-12,9.99999e-01,3.00698e-12,8.68349e-01,9.99999e-01
1.210391043e+00,1.80805e-45,9.99999e-01,2.07637e-45,8.70774e-01,9.99999e-01
1.216442998e+00,1.53591e-39,9.99999e-01,1.75903e-39,8.73157e-01,9.99999e-01
1.222525213e+00,5.73772e-39,9.99999e-01,6.55365e-39,8.75499e-01,9.99999e-01
1.228637839e+00,3.47703e-30,9.99999e-01,3.96106e-30,8.77802e-01,9.99999e-01
1.234781029e+00,1.90383e-19,9.99999e-01,2.16328e-19,8.80064e-01,9.99999e-01
1.240954934e+00,4.05032e-13,9.99999e-01,4.59069e-13,8.82288e-01,9.99999e-01
1.247159708e+00,3.59512e-07,9.99999e-01,4.06470e-07,8.84473e-01,9.99999e-01
1.253395507e+00,1.14487e-04,9.99999e-01,1.29128e-04,8.86621e-01,9.99999e-01
1.259662485e+00,5.20740e-03,9.99999e-01,5.85936e-03,8.88731e-01,9.99999e-01
1.265960797e+00,4.57031e-02,9.99999e-01,5.13055e-02,8.90804e-01,9.99999e-01
1.272290601e+00,2.51819e-01,9.99999e-01,2.82042e-01,8.92841e-01,9.99999e-01
1.278652054e+00,2.15409e-01,9.99999e-01,2.40723e-01,8.94842e-01,9.99999e-01
1.285045314e+00,4.75198e-03,9.99999e-01,5.29876e-03,8.96808e-01,9.99999e-01
1.291470541e+00,5.29181e-06,9.99999e-01,5.88803e-06,8.98739e-01,9.99999e-01
1.297927893e+00,2.72228e-03,9.99999e-01,3.02261e-03,9.00637e-01,9.99999e-01
1.304417533e+00,8.99152e-02,9.99999e-01,9.96289e-02,9.02500e-01,9.99999e-01
1.310939621e+00,2.16726e-02,9.99999e-01,2.39653e-02,9.04331e-01,9.99999e-01
1.317494319e+00,4.45597e-16,9.99999e-01,4.91759e-16,9.06129e-01,9.99999e-01
1.324081790e+00,4.67034e-11,9.99999e-01,5.14414e-11,9.07895e-01,9.99999e-01
1.330702199e+00,1.53092e-06,9.99999e-01,1.68301e-06,9.09629e-01,9.99999e-01
1.337355710e+00,2.33568e-06,9.99999e-01,2.56292e-06,9.11333e-01,9.99999e-01
1.344042489e+00,7.37095e-07,9.99999e-01,8.07327e-07,9.13006e-01,9.99999e-01
1.350762701e+00,9.22206e-07,9.99999e-01,1.00826e-06,9.14648e-01,9.99999e-01
1.357516515e+00,1.39845e-04,9.99999e-01,1.52625e-04,9.16262e-01,9.99999e-01
1.364304097e+00,2.82870e-03,9.99999e-01,3.08189e-03,9.17846e-01,9.99999e-01
1.371125618e+00,4.54666e-02,9.99999e-01,4.94523e-02,9.19401e-01,9.99999e-01
1.377981246e+00,7.70655e-02,9.99999e-01,8.36823e-02,9.20929e-01,9.99999e-01
1.384871152e+00,2.17768e-01,9.99999e-01,2.36081e-01,9.22428e-01,9.99999e-01
1.391795508e+00,2.43295e-01,9.99999e-01,2.63335e-01,9.23901e-01,9.99999e-01
1.398754485e+00,4.05668e-01,9.99999e-01,4.38395e-01,9.25346e-01,9.99999e-01
1.405748258e+00,5.05188e-01,9.99999e-01,5.45108e-01,9.26765e-01,9.99999e-01
1.412776999e+00,6.32442e-01,9.99999e-01,6.81394e-01,9.28159e-01,9.99999e-01
1.419840884e+00,5.69000e-01,9.99999e-01,6.12139e-01,9.29526e-01,9.99999e-01
1.426940089e+00,4.85554e-02,9.99999e-01,5.21613e-02,9.30869e-01,9.99999e-01
1.434074789e+00,0.00000e+00,9.99999e-01,0.00000e+00,9.32187e-01,9.99999e-01
1.441245163e+00,0.00000e+00,9.99999e-01,0.00000e+00,9.33481e-01,9.99999e-01
1.448451389e+00,0.00000e+00,9.99999e-01,0.00000e+00,9.34751e-01,9.99999e-01
1.455693646e+00,0.00000e+00,9.99999e-01,0.00000e+00,9.35998e-01,9.99999e-01
1.462972114e+00,1.11532e-177,9.99999e-01,1.19003e-177,9.37221e-01,9.99999e-01
1.470286975e+00,1.95714e-74,9.99999e-01,2.08556e-74,9.38422e-01,9.99999e-01
