#,Wave/freq,Total,O2,CO2,Rayleigh,CIA
4.000000000e-01,7.86021e-05,9.99999e-01,9.99999e-01,7.86021e-05,9.99999e-01
4.020000000e-01,9.47533e-05,9.99999e-01,9.99999e-01,9.47533e-05,9.99999e-01
4.040100000e-01,1.13780e-04,9.99999e-01,9.99999e-01,1.13780e-04,9.99999e-01
4.060300500e-01,1.36135e-04,9.99999e-01,9.99999e-01,1.36135e-04,9.99999e-01
4.080602003e-01,1.62305e-04,9.99999e-01,9.99999e-01,1.62305e-04,9.99999e-01
4.101005013e-01,1.92836e-04,9.99999e-01,9.99999e-01,1.92836e-04,9.99999e-01
4.121510038e-01,2.28331e-04,9.99999e-01,9.99999e-01,2.28331e-04,9.99999e-01
4.142117588e-01,2.69459e-04,9.99999e-01,9.99999e-01,2.69459e-04,9.99999e-01
4.162828176e-01,3.16956e-04,9.99999e-01,9.99999e-01,3.16956e-04,9.99999e-01
4.183642317e-01,3.71632e-04,9.99999e-01,9.99999e-01,3.71632e-04,9.99999e-01
4.204560528e-01,4.34372e-04,9.99999e-01,9.99999e-01,4.34372e-04,9.99999e-01
4.225583331e-01,5.06142e-04,9.99999e-01,9.99999e-01,5.06142e-04,9.99999e-01
4.246711247e-01,5.87991e-04,9.99999e-01,9.99999e-01,5.87991e-04,9.99999e-01
4.267944804e-01,6.81057e-04,9.99999e-01,9.99999e-01,6.81057e-04,9.99999e-01
4.289284528e-01,7.86568e-04,9.99999e-01,9.99999e-01,7.86568e-04,9.99999e-01
4.310730950e-01,9.05843e-04,9.99999e-01,9.99999e-01,9.05843e-04,9.99999e-01
4.332284605e-01,1.04030e-03,9.99999e-01,9.99999e-01,1.04030e-03,9.99999e-01
4.353946028e-01,1.19145e-03,9.99999e-01,9.99999e-01,1.19145e-03,9.99999e-01
4.375715758e-01,1.36092e-03,9.99999e-01,9.99999e-01,1.36092e-03,9.99999e-01
4.397594337e-01,1.55041e-03,9.99999e-01,9.99999e-01,1.55041e-03,9.99999e-01
4.419582309e-01,1.76174e-03,9.99999e-01,9.99999e-01,1.76174e-03,9.99999e-01
4.441680220e-01,1.99683e-03,9.99999e-01,9.99999e-01,1.99683e-03,9.99999e-01
4.463888621e-01,2.25770e-03,9.99999e-01,9.99999e-01,2.25770e-03,9.99999e-01
4.486208064e-01,2.54646e-03,9.99999e-01,9.99999e-01,2.54646e-03,9.99999e-01
4.508639105e-01,2.86534e-03,9.99999e-01,9.99999e-01,2.86534e-03,9.99999e-01
4.531182300e-01,3.21665e-03,9.99999e-01,9.99999e-01,3.21665e-03,9.99999e-01
4.553838212e-01,3.60279e-03,9.99999e-01,9.99999e-01,3.60279e-03,9.99999e-01
4.576607403e-01,4.02625e-03,9.99999e-01,9.99999e-01,4.02625e-03,9.99999e-01
4.599490440e-01,4.48963e-03,9.99999e-01,9.99999e-01,4.48963e-03,9.99999e-01
4.622487892e-01,4.99557e-03,9.99999e-01,9.99999e-01,4.99557e-03,9.99999e-01
4.645600332e-01,5.54681e-03,9.99999e-01,9.99999e-01,5.54681e-03,9.99999e-01
4.668828333e-01,6.14617e-03,9.99999e-01,9.99999e-01,6.14617e-03,9.99999e-01
4.692172475e-01,6.79649e-03,9.99999e-01,9.99999e-01,6.79649e-03,9.99999e-01
4.715633337e-01,7.50071e-03,9.99999e-01,9.99999e-01,7.50071e-03,9.99999e-01
4.739211504e-01,8.26180e-03,9.99999e-01,9.99999e-01,8.26180e-03,9.99999e-01
4.762907561e-01,9.08275e-03,9.99999e-01,9.99999e-01,9.08275e-03,9.99999e-01
4.786722099e-01,9.96662e-03,9.99999e-01,9.99999e-01,9.96662e-03,9.99999e-01
4.810655710e-01,1.09164e-02,9.99999e-01,9.99999e-01,1.09164e-02,9.99999e-01
4.834708988e-01,1.19353e-02,9.99999e-01,9.99999e-01,1.19353e-02,9.99999e-01
4.858882533e-01,1.30263e-02,9.99999e-01,9.99999e-01,1.30263e-02,9.99999e-01
4.883176946e-01,1.41925e-02,9.99999e-01,9.99999e-01,1.41925e-02,9.99999e-01
4.907592831e-01,1.54369e-02,9.99999e-01,9.99999e-01,1.54369e-02,9.99999e-01
4.932130795e-01,1.67626e-02,9.99999e-01,9.99999e-01,1.67626e-02,9.99999e-01
4.956791449e-01,1.81725e-02,9.99999e-01,9.99999e-01,1.81725e-02,9.99999e-01
4.981575406e-01,1.96696e-02,9.99999e-01,9.99999e-01,1.96696e-02,9.99999e-01
5.006483283e-01,2.12567e-02,9.99999e-01,9.99999e-01,2.12567e-02,9.99999e-01
5.031515699e-01,2.29368e-02,9.99999e-01,9.99999e-01,2.29368e-02,9.99999e-01
5.056673278e-01,2.47125e-02,9.99999e-01,9.99999e-01,2.47125e-02,9.99999e-01
5.081956644e-01,2.65864e-02,9.99999e-01,9.99999e-01,2.65864e-02,9.99999e-01
5.107366428e-01,2.85612e-02,9.99999e-01,9.99999e-01,2.85612e-02,9.99999e-01
5.132903260e-01,3.06393e-02,9.99999e-01,9.99999e-01,3.06393e-02,9.99999e-01
5.158567776e-01,3.28230e-02,9.99999e-01,9.99999e-01,3.28230e-02,9.99999e-01
5.184360615e-01,3.51146e-02,9.99999e-01,9.99999e-01,3.51146e-02,9.99999e-01
5.210282418e-01,3.75161e-02,9.99999e-01,9.99999e-01,3.75161e-02,9.99999e-01
5.236333830e-01,4.00296e-02,9.99999e-01,9.99999e-01,4.00296e-02,9.99999e-01
5.262515499e-01,4.26567e-02,9.99999e-01,9.99999e-01,4.26567e-02,9.99999e-01
5.288828077e-01,4.53992e-02,9.99999e-01,9.99999e-01,4.53992e-02,9.99999e-01
5.315272217e-01,4.82586e-02,9.99999e-01,9.99999e-01,4.82586e-02,9.99999e-01
5.341848578e-01,5.12363e-02,9.99999e-01,9.99999e-01,5.12363e-02,9.99999e-01
5.368557821e-01,5.43334e-02,9.99999e-01,9.99999e-01,5.43334e-02,9.99999e-01
5.395400610e-01,5.75509e-02,9.99999e-01,9.99999e-01,5.75509e-02,9.99999e-01
5.422377613e-01,6.08898e-02,9.99999e-01,9.99999e-01,6.08898e-02,9.99999e-01
5.449489501e-01,6.43506e-02,9.99999e-01,9.99999e-01,6.43506e-02,9.99999e-01
5.476736949e-01,6.79339e-02,9.99999e-01,9.99999e-01,6.79339e-02,9.99999e-01
5.504120634e-01,7.16400e-02,9.99999e-01,9.99999e-01,7.16400e-02,9.99999e-01
5.531641237e-01,7.54691e-02,9.99999e-01,9.99999e-01,7.54691e-02,9.99999e-01
5.559299443e-01,7.94211e-02,9.99999e-01,9.99999e-01,7.94211e-02,9.99999e-01
5.587095940e-01,8.34959e-02,9.99999e-01,9.99999e-01,8.34959e-02,9.99999e-01
5.615031420e-01,8.76930e-02,9.99999e-01,9.99999e-01,8.76930e-02,9.99999e-01
5.643106577e-01,9.20119e-02,9.99999e-01,9.99999e-01,9.20119e-02,9.99999e-01
5.671322110e-01,9.64519e-02,9.99999e-01,9.99999e-01,9.64519e-02,9.99999e-01
5.699678720e-01,1.01012e-01,9.99999e-01,9.99999e-01,1.01012e-01,9.99999e-01
5.728177114e-01,1.05691e-01,9.99999e-01,9.99999e-01,1.05691e-01,9.99999e-01
5.756818000e-01,1.10488e-01,9.99999e-01,9.99999e-01,1.10488e-01,9.99999e-01
5.785602090e-01,1.15402e-01,9.99999e-01,9.99999e-01,1.15402e-01,9.99999e-01
5.814530100e-01,1.20431e-01,9.99999e-01,9.99999e-01,1.20431e-01,9.99999e-01
5.843602750e-01,1.25573e-01,9.99999e-01,9.99999e-01,1.25573e-01,9.99999e-01
5.872820764e-01,1.30826e-01,9.99999e-01,9.99999e-01,1.30826e-01,9.99999e-01
5.902184868e-01,1.36189e-01,9.99999e-01,9.99999e-01,1.36189e-01,9.99999e-01
5.931695792e-01,1.41659e-01,9.99999e-01,9.99999e-01,1.41659e-01,9.99999e-01
5.961354271e-01,1.47234e-01,9.99999e-01,9.99999e-01,1.47234e-01,9.99999e-01
5.991161043e-01,1.52913e-01,9.99999e-01,9.99999e-01,1.52913e-01,9.99999e-01
6.021116848e-01,1.58691e-01,9.99999e-01,9.99999e-01,1.58691e-01,9.99999e-01
6.051222432e-01,1.64567e-01,9.99999e-01,9.99999e-01,1.64567e-01,9.99999e-01
6.081478544e-01,1.70539e-01,9.99999e-01,9.99999e-01,1.70539e-01,9.99999e-01
6.111885937e-01,1.76602e-01,9.99999e-01,9.99999e-01,1.76602e-01,9.99999e-01
6.142445367e-01,1.82755e-01,9.99999e-01,9.99999e-01,1.82755e-01,9.99999e-01
6.173157594e-01,1.88995e-01,9.99999e-01,9.99999e-01,1.88995e-01,9.99999e-01
6.204023382e-01,1.95318e-01,9.99999e-01,9.99999e-01,1.95318e-01,9.99999e-01
6.235043498e-01,2.01721e-01,9.99999e-01,9.99999e-01,2.01721e-01,9.99999e-01
6.266218716e-01,2.08202e-01,9.99999e-01,9.99999e-01,2.08202e-01,9.99999e-01
6.297549810e-01,2.14756e-01,9.99999e-01,9.99999e-01,2.14756e-01,9.99999e-01
6.329037559e-01,2.21381e-01,9.99999e-01,9.99999e-01,2.21381e-01,9.99999e-01
6.360682746e-01,2.28074e-01,9.99999e-01,9.99999e-01,2.28074e-01,9.99999e-01
6.392486160e-01,2.34831e-01,9.99999e-01,9.99999e-01,2.34831e-01,9.99999e-01
6.424448591e-01,2.41649e-01,9.99999e-01,9.99999e-01,2.41649e-01,9.99999e-01
6.456570834e-01,2.48524e-01,9.99999e-01,9.99999e-01,2.48524e-01,9.99999e-01
6.488853688e-01,2.55453e-01,9.99999e-01,9.99999e-01,2.55453e-01,9.99999e-01
6.521297956e-01,2.62433e-01,9.99999e-01,9.99999e-01,2.62433e-01,9.99999e-01
6.553904446e-01,2.69460e-01,9.99999e-01,9.99999e-01,2.69460e-01,9.99999e-01
6.586673968e-01,2.76531e-01,9.99999e-01,9.99999e-01,2.76531e-01,9.99999e-01
6.619607338e-01,2.83642e-01,9.99999e-01,9.99999e-01,2.83642e-01,9.99999e-01
6.652705375e-01,2.90790e-01,9.99999e-01,9.99999e-01,2.90790e-01,9.99999e-01
6.685968902e-01,2.97972e-01,9.99999e-01,9.99999e-01,2.97972e-01,9.99999e-01
6.719398746e-01,3.05184e-01,9.99999e-01,9.99999e-01,3.05184e-01,9.99999e-01
6.752995740e-01,3.12423e-01,9.99999e-01,9.99999e-01,3.12423e-01,9.99999e-01
6.786760719e-01,3.19685e-01,9.99999e-01,9.99999e-01,3.19685e-01,9.99999e-01
6.820694522e-01,3.26968e-01,9.99999e-01,9.99999e-01,3.26968e-01,9.99999e-01
6.854797995e-01,3.34269e-01,9.99999e-01,9.99999e-01,3.34269e-01,9.99999e-01
6.889071985e-01,3.41583e-01,9.99999e-01,9.99999e-01,3.41583e-01,9.99999e-01
6.923517345e-01,3.48908e-01,9.99999e-01,9.99999e-01,3.48908e-01,9.99999e-01
6.958134932e-01,3.56240e-01,9.99999e-01,9.99999e-01,3.56240e-01,9.99999e-01
6.992925606e-01,3.63578e-01,9.99999e-01,9.99999e-01,3.63578e-01,9.99999e-01
7.027890234e-01,3.70917e-01,9.99999e-01,9.99999e-01,3.70917e-01,9.99999e-01
7.063029686e-01,3.78255e-01,9.99999e-01,9.99999e-01,3.78255e-01,9.99999e-01
7.098344834e-01,3.85589e-01,9.99999e-01,9.99999e-01,3.85589e-01,9.99999e-01
7.133836558e-01,3.92916e-01,9.99999e-01,9.99999e-01,3.92916e-01,9.99999e-01
7.169505741e-01,4.00233e-01,9.99999e-01,9.99999e-01,4.00233e-01,9.99999e-01
7.205353270e-01,4.07538e-01,9.99999e-01,9.99999e-01,4.07538e-01,9.99999e-01
7.241380036e-01,4.14828e-01,9.99999e-01,9.99999e-01,4.14828e-01,9.99999e-01
7.277586936e-01,4.22101e-01,9.99999e-01,9.99999e-01,4.22101e-01,9.99999e-01
7.313974871e-01,4.29354e-01,9.99999e-01,9.99999e-01,4.29354e-01,9.99999e-01
7.350544745e-01,4.36584e-01,9.99999e-01,9.99999e-01,4.36584e-01,9.99999e-01
7.387297469e-01,4.43790e-01,9.99999e-01,9.99999e-01,4.43790e-01,9.99999e-01
7.424233956e-01,4.50969e-01,9.99999e-01,9.99999e-01,4.50969e-01,9.99999e-01
7.461355126e-01,4.58119e-01,9.99999e-01,9.99999e-01,4.58119e-01,9.99999e-01
7.498661902e-01,4.65237e-01,9.99999e-01,9.99999e-01,4.65237e-01,9.99999e-01
7.536155211e-01,4.72323e-01,9.99999e-01,9.99999e-01,4.72323e-01,9.99999e-01
7.573835987e-01,4.79373e-01,9.99999e-01,9.99999e-01,4.79373e-01,9.99999e-01
7.611705167e-01,4.86386e-01,9.99999e-01,9.99999e-01,4.86386e-01,9.99999e-01
7.649763693e-01,4.93360e-01,9.99999e-01,9.99999e-01,4.93360e-01,9.99999e-01
7.688012511e-01,5.00293e-01,9.99999e-01,9.99999e-01,5.00293e-01,9.99999e-01
7.726452574e-01,5.07184e-01,9.99999e-01,9.99999e-01,5.07184e-01,9.99999e-01
7.765084837e-01,5.14031e-01,9.99999e-01,9.99999e-01,5.14031e-01,9.99999e-01
7.803910261e-01,5.05106e-01,9.99999e-01,9.69805e-01,5.20832e-01,9.99999e-01
7.842929812e-01,4.59248e-01,9.99999e-01,8.70468e-01,5.27587e-01,9.99999e-01
7.882144461e-01,4.60789e-01,9.99999e-01,8.62427e-01,5.34293e-01,9.99999e-01
7.921555184e-01,4.96347e-01,9.99999e-01,9.17548e-01,5.40949e-01,9.99999e-01
7.961162960e-01,5.16771e-01,9.99999e-01,9.43779e-01,5.47554e-01,9.99999e-01
8.000968774e-01,5.37021e-01,9.99999e-01,9.69163e-01,5.54107e-01,9.99999e-01
8.040973618e-01,5.51562e-01,9.99999e-01,9.83865e-01,5.60607e-01,9.99999e-01
8.081178486e-01,5.62847e-01,9.99999e-01,9.92583e-01,5.67052e-01,9.99999e-01
8.121584379e-01,5.72118e-01,9.99999e-01,9.97691e-01,5.73442e-01,9.99999e-01
8.162192301e-01,5.79480e-01,9.99999e-01,9.99489e-01,5.79776e-01,9.99999e-01
8.203003262e-01,5.86047e-01,9.99999e-01,9.99991e-01,5.86052e-01,9.99999e-01
8.244018279e-01,5.92270e-01,9.99999e-01,9.99999e-01,5.92270e-01,9.99999e-01
8.285238370e-01,5.98430e-01,9.99999e-01,9.99999e-01,5.98430e-01,9.99999e-01
8.326664562e-01,6.04530e-01,9.99999e-01,9.99999e-01,6.04530e-01,9.99999e-01
8.368297885e-01,6.10570e-01,9.99999e-01,9.99999e-01,6.10570e-01,9.99999e-01
8.410139374e-01,6.16549e-01,9.99999e-01,9.99999e-01,6.16549e-01,9.99999e-01
8.452190071e-01,6.22467e-01,9.99999e-01,9.99999e-01,6.22467e-01,9.99999e-01
8.494451021e-01,6.28323e-01,9.99999e-01,9.99999e-01,6.28323e-01,9.99999e-01
8.536923276e-01,6.34117e-01,9.99999e-01,9.99999e-01,6.34117e-01,9.99999e-01
8.579607893e-01,6.39848e-01,9.99999e-01,9.99999e-01,6.39848e-01,9.99999e-01
8.622505932e-01,6.45517e-01,9.99999e-01,9.99999e-01,6.45517e-01,9.99999e-01
8.665618462e-01,6.06257e-01,9.99999e-01,9.31096e-01,6.51122e-01,9.99999e-01
8.708946554e-01,4.61811e-01,9.99999e-01,7.03268e-01,6.56664e-01,9.99999e-01
8.752491287e-01,4.98550e-01,9.99999e-01,7.52935e-01,6.62142e-01,9.99999e-01
8.796253743e-01,5.71282e-01,9.99999e-01,8.55781e-01,6.67556e-01,9.99999e-01
8.840235012e-01,6.20763e-01,9.99999e-01,9.22510e-01,6.72906e-01,9.99999e-01
8.884436187e-01,6.56929e-01,9.99999e-01,9.68647e-01,6.78192e-01,9.99999e-01
8.928858368e-01,6.74671e-01,9.99999e-01,9.87206e-01,6.83414e-01,9.99999e-01
8.973502660e-01,6.86414e-01,9.99999e-01,9.96865e-01,6.88572e-01,9.99999e-01
9.018370173e-01,6.93425e-01,9.99999e-01,9.99653e-01,6.93666e-01,9.99999e-01
9.063462024e-01,6.92637e-01,9.99999e-01,9.91328e-01,6.98695e-01,9.99999e-01
9.108779334e-01,6.89525e-01,9.99999e-01,9.79909e-01,7.03661e-01,9.99999e-01
9.154323231e-01,7.05176e-01,9.99999e-01,9.95220e-01,7.08563e-01,9.99999e-01
9.200094847e-01,6.65898e-01,9.99999e-01,9.33412e-01,7.13401e-01,9.99999e-01
9.246095321e-01,6.50286e-01,9.99999e-01,9.05468e-01,7.18176e-01,9.99999e-01
9.292325798e-01,6.69077e-01,9.99999e-01,9.25561e-01,7.22887e-01,9.99999e-01
9.338787427e-01,6.74813e-01,9.99999e-01,9.27531e-01,7.27536e-01,9.99999e-01
9.385481364e-01,6.92774e-01,9.99999e-01,9.46255e-01,7.32121e-01,9.99999e-01
9.432408771e-01,7.12106e-01,9.99999e-01,9.66688e-01,7.36644e-01,9.99999e-01
9.479570815e-01,7.28361e-01,9.99999e-01,9.82803e-01,7.41105e-01,9.99999e-01
9.526968669e-01,7.39288e-01,9.99999e-01,9.91662e-01,7.45504e-01,9.99999e-01
9.574603512e-01,7.47161e-01,9.99999e-01,9.96425e-01,7.49841e-01,9.99999e-01
9.622476530e-01,7.53276e-01,9.99999e-01,9.98883e-01,7.54118e-01,9.99999e-01
9.670588912e-01,7.58079e-01,9.99999e-01,9.99664e-01,7.58333e-01,9.99999e-01
9.718941857e-01,7.62470e-01,9.99999e-01,9.99975e-01,7.62488e-01,9.99999e-01
9.767536566e-01,7.66583e-01,9.99999e-01,9.99999e-01,7.66583e-01,9.99999e-01
9.816374249e-01,7.70618e-01,9.99999e-01,9.99999e-01,7.70618e-01,9.99999e-01
9.865456120e-01,7.74595e-01,9.99999e-01,9.99999e-01,7.74595e-01,9.99999e-01
9.914783401e-01,7.78513e-01,9.99999e-01,9.99999e-01,7.78513e-01,9.99999e-01
9.964357318e-01,7.82372e-01,9.99999e-01,9.99999e-01,7.82372e-01,9.99999e-01
1.001417910e+00,7.86174e-01,9.99999e-01,9.99999e-01,7.86174e-01,9.99999e-01
1.006425000e+00,7.89919e-01,9.99999e-01,9.99999e-01,7.89919e-01,9.99999e-01
1.011457125e+00,7.93607e-01,9.99999e-01,9.99999e-01,7.93607e-01,9.99999e-01
1.016514411e+00,7.97239e-01,9.99999e-01,9.99999e-01,7.97239e-01,9.99999e-01
1.021596983e+00,8.00781e-01,9.99999e-01,9.99956e-01,8.00815e-01,9.99999e-01
1.026704968e+00,8.01620e-01,9.99999e-01,9.96622e-01,8.04337e-01,9.99999e-01
1.031838492e+00,7.75896e-01,9.99999e-01,9.60500e-01,8.07803e-01,9.99999e-01
1.036997685e+00,1.35702e-01,9.99999e-01,1.67281e-01,8.11216e-01,9.99999e-01
1.042182673e+00,1.15455e-01,9.99999e-01,1.41736e-01,8.14576e-01,9.99999e-01
1.047393587e+00,1.32735e-01,9.99999e-01,1.62291e-01,8.17882e-01,9.99999e-01
1.052630555e+00,4.82292e-03,9.99999e-01,5.87346e-03,8.21136e-01,9.99999e-01
1.057893707e+00,1.16476e-02,9.99999e-01,1.41296e-02,8.24339e-01,9.99999e-01
1.063183176e+00,3.60666e-02,9.99999e-01,4.35855e-02,8.27490e-01,9.99999e-01
1.068499092e+00,9.55446e-02,9.99999e-01,1.15032e-01,8.30591e-01,9.99999e-01
1.073841587e+00,2.12080e-01,9.99999e-01,2.54401e-01,8.33642e-01,9.99999e-01
1.079210795e+00,3.51814e-01,9.99999e-01,4.20506e-01,8.36643e-01,9.99999e-01
1.084606849e+00,5.21218e-01,9.99999e-01,6.20796e-01,8.39596e-01,9.99999e-01
1.090029883e+00,6.57962e-01,9.99999e-01,7.80963e-01,8.42501e-01,9.99999e-01
1.095480033e+00,7.48335e-01,9.99999e-01,8.85228e-01,8.45357e-01,9.99999e-01
1.100957433e+00,7.99810e-01,9.99999e-01,9.42985e-01,8.48167e-01,9.99999e-01
1.106462220e+00,8.30509e-01,9.99999e-01,9.76000e-01,8.50931e-01,9.99999e-01
1.111994531e+00,8.45998e-01,9.99999e-01,9.91038e-01,8.53648e-01,9.99999e-01
1.117554504e+00,8.54436e-01,9.99999e-01,9.97798e-01,8.56320e-01,9.99999e-01
1.123142276e+00,8.58823e-01,9.99999e-01,9.99854e-01,8.58948e-01,9.99999e-01
1.128757988e+00,8.61532e-01,9.99999e-01,9.99999e-01,8.61532e-01,9.99999e-01
1.134401778e+00,8.64072e-01,9.99999e-01,9.99999e-01,8.64072e-01,9.99999e-01
1.140073787e+00,8.66569e-01,9.99999e-01,9.99999e-01,8.66569e-01,9.99999e-01
1.145774156e+00,8.69024e-01,9.99999e-01,9.99999e-01,8.69024e-01,9.99999e-01
1.151503026e+00,8.71437e-01,9.99999e-01,9.99999e-01,8.71437e-01,9.99999e-01
1.157260541e+00,8.73809e-01,9.99999e-01,9.99999e-01,8.73809e-01,9.99999e-01
1.163046844e+00,8.76140e-01,9.99999e-01,9.99999e-01,8.76140e-01,9.99999e-01
1.168862078e+00,8.78431e-01,9.99999e-01,9.99999e-01,8.78431e-01,9.99999e-01
1.174706389e+00,8.80683e-01,9.99999e-01,9.99999e-01,8.80683e-01,9.99999e-01
1.180579921e+00,8.82896e-01,9.99999e-01,9.99999e-01,8.82896e-01,9.99999e-01
1.186482820e+00,8.85067e-01,9.99999e-01,9.99994e-01,8.85071e-01,9.99999e-01
1.192415234e+00,8.76576e-01,9.99999e-01,9.88016e-01,8.87208e-01,9.99999e-01
1.198377311e+00,5.02036e-01,9.99999e-01,5.64524e-01,8.89308e-01,9.99999e-01
1.204369197e+00,1.91541e-10,9.99999e-01,2.14884e-10,8.91371e-01,9.99999e-01
1.210391043e+00,1.86813e-37,9.99999e-01,2.09104e-37,8.93398e-01,9.99999e-01
1.216442998e+00,1.26221e-32,9.99999e-01,1.40967e-32,8.95389e-01,9.99999e-01
1.222525213e+00,3.69708e-32,9.99999e-01,4.12001e-32,8.97345e-01,9.99999e-01
1.228637839e+00,6.69212e-25,9.99999e-01,7.44174e-25,8.99267e-01,9.99999e-01
1.234781029e+00,2.94291e-16,9.99999e-01,3.26570e-16,9.01155e-01,9.99999e-01
1.240954934e+00,5.21218e-11,9.99999e-01,5.77200e-11,9.03010e-01,9.99999e-01
1.247159708e+00,3.21375e-06,9.99999e-01,3.55176e-06,9.04831e-01,9.99999e-01
1.253395507e+00,5.37682e-04,9.99999e-01,5.93062e-04,9.06620e-01,9.99999e-01
1.259662485e+00,1.28521e-02,9.99999e-01,1.41484e-02,9.08378e-01,9.99999e-01
1.265960797e+00,7.68288e-02,9.99999e-01,8.44176e-02,9.10103e-01,9.99999e-01
1.272290601e+00,2.97105e-01,9.99999e-01,3.25845e-01,9.11798e-01,9.99999e-01
1.278652054e+00,2.78916e-01,9.99999e-01,3.05339e-01,9.13463e-01,9.99999e-01
1.285045314e+00,8.87832e-03,9.99999e-01,9.70204e-03,9.15097e-01,9.99999e-01
1.291470541e+00,4.34666e-05,9.99999e-01,4.74162e-05,9.16703e-01,9.99999e-01
1.297927893e+00,6.13490e-03,9.99999e-01,6.68086e-03,9.18279e-01,9.99999e-01
1.304417533e+00,1.38863e-01,9.99999e-01,1.50966e-01,9.19826e-01,9.99999e-01
1.310939621e+00,3.50223e-02,9.99999e-01,3.80121e-02,9.21346e-01,9.99999e-01
1.317494319e+00,2.38730e-13,9.99999e-01,2.58691e-13,9.22838e-01,9.99999e-01
1.324081790e+00,2.52449e-09,9.99999e-01,2.73124e-09,9.24303e-01,9.99999e-01
1.330702199e+00,1.64903e-05,9.99999e-01,1.78130e-05,9.25741e-01,9.99999e-01
1.337355710e+00,1.90071e-05,9.99999e-01,2.05005e-05,9.27153e-01,9.99999e-01
1.344042489e+00,5.77826e-06,9.99999e-01,6.22295e-06,9.28539e-01,9.99999e-01
1.350762701e+00,1.04033e-05,9.99999e-01,1.11875e-05,9.29900e-01,9.99999e-01
1.357516515e+00,6.03249e-04,9.99999e-01,6.47794e-04,9.31236e-01,9.99999e-01
1.364304097e+00,8.07273e-03,9.99999e-01,8.65663e-03,9.32547e-01,9.99999e-01
1.371125618e+00,7.79054e-02,9.99999e-01,8.34252e-02,9.33835e-01,9.99999e-01
1.377981246e+00,1.23149e-01,9.99999e-01,1.31696e-01,9.35098e-01,9.99999e-01
1.384871152e+00,2.87666e-01,9.99999e-01,3.07224e-01,9.36338e-01,9.99999e-01
1.391795508e+00,3.14929e-01,9.99999e-01,3.35904e-01,9.37556e-01,9.99999e-01
1.398754485e+00,4.79006e-01,9.99999e-01,5.10259e-01,9.38751e-01,9.99999e-01
1.405748258e+00,5.72455e-01,9.99999e-01,6.09044e-01,9.39923e-01,9.99999e-01
1.412776999e+00,6.87965e-01,9.99999e-01,7.31041e-01,9.41074e-01,9.99999e-01
1.419840884e+00,6.24057e-01,9.99999e-01,6.62337e-01,9.42204e-01,9.99999e-01
1.426940089e+00,6.15654e-02,9.99999e-01,6.52650e-02,9.43312e-01,9.99999e-01
1.434074789e+00,0.00000e+00,9.99999e-01,0.00000e+00,9.44400e-01,9.99999e-01
1.441245163e+00,0.00000e+00,9.99999e-01,0.00000e+00,9.45468e-01,9.99999e-01
1.448451389e+00,0.00000e+00,9.99999e-01,0.00000e+00,9.46516e-01,9.99999e-01
1.455693646e+00,2.31860e-299,9.99999e-01,2.44695e-299,9.47544e-01,9.99999e-01
1.462972114e+00,3.77056e-145,9.99999e-01,3.97506e-145,9.48553e-01,9.99999e-01
1.470286975e+00,4.74880e-61,9.99999e-01,5.00114e-61,9.49543e-01,9.99999e-01
