#,Wave/freq,Total,O2,CO2,Rayleigh,CIA
4.000000000e-01,6.43633e-15,9.99999e-01,9.99999e-01,6.43633e-15,9.99999e-01
4.020000000e-01,1.22810e-14,9.99999e-01,9.99999e-01,1.22810e-14,9.99999e-01
4.040100000e-01,2.31210e-14,9.99999e-01,9.99999e-01,2.31210e-14,9.99999e-01
4.060300500e-01,4.29884e-14,9.99999e-01,9.99999e-01,4.29884e-14,9.99999e-01
4.080602003e-01,7.89543e-14,9.99999e-01,9.99999e-01,7.89543e-14,9.99999e-01
4.101005013e-01,1.43280e-13,9.99999e-01,9.99999e-01,1.43280e-13,9.99999e-01
4.121510038e-01,2.56970e-13,9.99999e-01,9.99999e-01,2.56970e-13,9.99999e-01
4.142117588e-01,4.55584e-13,9.99999e-01,9.99999e-01,4.55584e-13,9.99999e-01
4.162828176e-01,7.98624e-13,9.99999e-01,9.99999e-01,7.98624e-13,9.99999e-01
4.183642317e-01,1.38453e-12,9.99999e-01,9.99999e-01,1.38453e-12,9.99999e-01
4.204560528e-01,2.37432e-12,9.99999e-01,9.99999e-01,2.37432e-12,9.99999e-01
4.225583331e-01,4.02858e-12,9.99999e-01,9.99999e-01,4.02858e-12,9.99999e-01
4.246711247e-01,6.76438e-12,9.99999e-01,9.99999e-01,6.76438e-12,9.99999e-01
4.267944804e-01,1.12424e-11,9.99999e-01,9.99999e-01,1.12424e-11,9.99999e-01
4.289284528e-01,1.84983e-11,9.99999e-01,9.99999e-01,1.84983e-11,9.99999e-01
4.310730950e-01,3.01392e-11,9.99999e-01,9.99999e-01,3.01392e-11,9.99999e-01
4.332284605e-01,4.86346e-11,9.99999e-01,9.99999e-01,4.86346e-11,9.99999e-01
4.353946028e-01,7.77416e-11,9.99999e-01,9.99999e-01,7.77416e-11,9.99999e-01
4.375715758e-01,1.23123e-10,9.99999e-01,9.99999e-01,1.23123e-10,9.99999e-01
4.397594337e-01,1.93232e-10,9.99999e-01,9.99999e-01,1.93232e-10,9.99999e-01
4.419582309e-01,3.00575e-10,9.99999e-01,9.99999e-01,3.00575e-10,9.99999e-01
4.441680220e-01,4.63486e-10,9.99999e-01,9.99999e-01,4.63486e-10,9.99999e-01
4.463888621e-01,7.08607e-10,9.99999e-01,9.99999e-01,7.08607e-10,9.99999e-01
4.486208064e-01,1.07432e-09,9.99999e-01,9.99999e-01,1.07432e-09,9.99999e-01
4.508639105e-01,1.61544e-09,9.99999e-01,9.99999e-01,1.61544e-09,9.99999e-01
4.531182300e-01,2.40962e-09,9.99999e-01,9.99999e-01,2.40962e-09,9.99999e-01
4.553838212e-01,3.56596e-09,9.99999e-01,9.99999e-01,3.56596e-09,9.99999e-01
4.576607403e-01,5.23650e-09,9.99999e-01,9.99999e-01,5.23650e-09,9.99999e-01
4.599490440e-01,7.63152e-09,9.99999e-01,9.99999e-01,7.63152e-09,9.99999e-01
4.622487892e-01,1.10395e-08,9.99999e-01,9.99999e-01,1.10395e-08,9.99999e-01
4.645600332e-01,1.58533e-08,9.99999e-01,9.99999e-01,1.58533e-08,9.99999e-01
4.668828333e-01,2.26041e-08,9.99999e-01,9.99999e-01,2.26041e-08,9.99999e-01
4.692172475e-01,3.20045e-08,9.99999e-01,9.99999e-01,3.20045e-08,9.99999e-01
4.715633337e-01,4.50041e-08,9.99999e-01,9.99999e-01,4.50041e-08,9.99999e-01
4.739211504e-01,6.28592e-08,9.99999e-01,9.99999e-01,6.28592e-08,9.99999e-01
4.762907561e-01,8.72205e-08,9.99999e-01,9.99999e-01,8.72205e-08,9.99999e-01
4.786722099e-01,1.20243e-07,9.99999e-01,9.99999e-01,1.20243e-07,9.99999e-01
4.810655710e-01,1.64719e-07,9.99999e-01,9.99999e-01,1.64719e-07,9.99999e-01
4.834708988e-01,2.24249e-07,9.99999e-01,9.99999e-01,2.24249e-07,9.99999e-01
4.858882533e-01,3.03438e-07,9.99999e-01,9.99999e-01,3.03438e-07,9.99999e-01
4.883176946e-01,4.08146e-07,9.99999e-01,9.99999e-01,4.08146e-07,9.99999e-01
4.907592831e-01,5.45781e-07,9.99999e-01,9.99999e-01,5.45781e-07,9.99999e-01
4.932130795e-01,7.25650e-07,9.99999e-01,9.99999e-01,7.25650e-07,9.99999e-01
4.956791449e-01,9.59386e-07,9.99999e-01,9.99999e-01,9.59386e-07,9.99999e-01
4.981575406e-01,1.26143e-06,9.99999e-01,9.99999e-01,1.26143e-06,9.99999e-01
5.006483283e-01,1.64963e-06,9.99999e-01,9.99999e-01,1.64963e-06,9.99999e-01
5.031515699e-01,2.14589e-06,9.99999e-01,9.99999e-01,2.14589e-06,9.99999e-01
5.056673278e-01,2.77698e-06,9.99999e-01,9.99999e-01,2.77698e-06,9.99999e-01
5.081956644e-01,3.57541e-06,9.99999e-01,9.99999e-01,3.57541e-06,9.99999e-01
5.107366428e-01,4.58048e-06,9.99999e-01,9.99999e-01,4.58048e-06,9.99999e-01
5.132903260e-01,5.83944e-06,9.99999e-01,9.99999e-01,5.83944e-06,9.99999e-01
5.158567776e-01,7.40880e-06,9.99999e-01,9.99999e-01,7.40880e-06,9.99999e-01
5.184360615e-01,9.35585e-06,9.99999e-01,9.99999e-01,9.35585e-06,9.99999e-01
5.210282418e-01,1.17603e-05,9.99999e-01,9.99999e-01,1.17603e-05,9.99999e-01
5.236333830e-01,1.47159e-05,9.99999e-01,9.99999e-01,1.47159e-05,9.99999e-01
5.262515499e-01,1.83331e-05,9.99999e-01,9.99999e-01,1.83331e-05,9.99999e-01
5.288828077e-01,2.27405e-05,9.99999e-01,9.99999e-01,2.27405e-05,9.99999e-01
5.315272217e-01,2.80876e-05,9.99999e-01,9.99999e-01,2.80876e-05,9.99999e-01
5.341848578e-01,3.45475e-05,9.99999e-01,9.99999e-01,3.45475e-05,9.99999e-01
5.368557821e-01,4.23199e-05,9.99999e-01,9.99999e-01,4.23199e-05,9.99999e-01
5.395400610e-01,5.16334e-05,9.99999e-01,9.99999e-01,5.16334e-05,9.99999e-01
5.422377613e-01,6.27496e-05,9.99999e-01,9.99999e-01,6.27496e-05,9.99999e-01
5.449489501e-01,7.59659e-05,9.99999e-01,9.99999e-01,7.59659e-05,9.99999e-01
5.476736949e-01,9.16193e-05,9.99999e-01,9.99999e-01,9.16193e-05,9.99999e-01
5.504120634e-01,1.10090e-04,9.99999e-01,9.99999e-01,1.10090e-04,9.99999e-01
5.531641237e-01,1.31805e-04,9.99999e-01,9.99999e-01,1.31805e-04,9.99999e-01
5.559299443e-01,1.57244e-04,9.99999e-01,9.99999e-01,1.57244e-04,9.99999e-01
5.587095940e-01,1.86939e-04,9.99999e-01,9.99999e-01,1.86939e-04,9.99999e-01
5.615031420e-01,2.21485e-04,9.99999e-01,9.99999e-01,2.21485e-04,9.99999e-01
5.643106577e-01,2.61537e-04,9.99999e-01,9.99999e-01,2.61537e-04,9.99999e-01
5.671322110e-01,3.07819e-04,9.99999e-01,9.99999e-01,3.07819e-04,9.99999e-01
5.699678720e-01,3.61127e-04,9.99999e-01,9.99999e-01,3.61127e-04,9.99999e-01
5.728177114e-01,4.22333e-04,9.99999e-01,9.99999e-01,4.22333e-04,9.99999e-01
5.756818000e-01,4.92387e-04,9.99999e-01,9.99999e-01,4.92387e-04,9.99999e-01
5.785602090e-01,5.72323e-04,9.99999e-01,9.99999e-01,5.72323e-04,9.99999e-01
5.814530100e-01,6.63263e-04,9.99999e-01,9.99999e-01,6.63263e-04,9.99999e-01
5.843602750e-01,7.66418e-04,9.99999e-01,9.99999e-01,7.66418e-04,9.99999e-01
5.872820764e-01,8.83090e-04,9.99999e-01,9.99999e-01,8.83090e-04,9.99999e-01
5.902184868e-01,1.01468e-03,9.99999e-01,9.99999e-01,1.01468e-03,9.99999e-01
5.931695792e-01,1.16268e-03,9.99999e-01,9.99999e-01,1.16268e-03,9.99999e-01
5.961354271e-01,1.32870e-03,9.99999e-01,9.99999e-01,1.32870e-03,9.99999e-01
5.991161043e-01,1.51442e-03,9.99999e-01,9.99999e-01,1.51442e-03,9.99999e-01
6.021116848e-01,1.72164e-03,9.99999e-01,9.99999e-01,1.72164e-03,9.99999e-01
6.051222432e-01,1.95227e-03,9.99999e-01,9.99999e-01,1.95227e-03,9.99999e-01
6.081478544e-01,2.20830e-03,9.99999e-01,9.99999e-01,2.20830e-03,9.99999e-01
6.111885937e-01,2.49184e-03,9.99999e-01,9.99999e-01,2.49184e-03,9.99999e-01
6.142445367e-01,2.80508e-03,9.99999e-01,9.99999e-01,2.80508e-03,9.99999e-01
6.173157594e-01,3.15032e-03,9.99999e-01,9.99999e-01,3.15032e-03,9.99999e-01
6.204023382e-01,3.52994e-03,9.99999e-01,9.99999e-01,3.52994e-03,9.99999e-01
6.235043498e-01,3.94644e-03,9.99999e-01,9.99999e-01,3.94644e-03,9.99999e-01
6.266218716e-01,4.40237e-03,9.99999e-01,9.99999e-01,4.40237e-03,9.99999e-01
6.297549810e-01,4.90038e-03,9.99999e-01,9.99999e-01,4.90038e-03,9.99999e-01
6.329037559e-01,5.44318e-03,9.99999e-01,9.99999e-01,5.44318e-03,9.99999e-01
6.360682746e-01,6.03359e-03,9.99999e-01,9.99999e-01,6.03359e-03,9.99999e-01
6.392486160e-01,6.67444e-03,9.99999e-01,9.99999e-01,6.67444e-03,9.99999e-01
6.424448591e-01,7.36865e-03,9.99999e-01,9.99999e-01,7.36865e-03,9.99999e-01
6.456570834e-01,8.11918e-03,9.99999e-01,9.99999e-01,8.11918e-03,9.99999e-01
6.488853688e-01,8.92904e-03,9.99999e-01,9.99999e-01,8.92904e-03,9.99999e-01
6.521297956e-01,9.80124e-03,9.99999e-01,9.99999e-01,9.80124e-03,9.99999e-01
6.553904446e-01,1.07389e-02,9.99999e-01,9.99999e-01,1.07389e-02,9.99999e-01
6.586673968e-01,1.17450e-02,9.99999e-01,9.99999e-01,1.17450e-02,9.99999e-01
6.619607338e-01,1.28226e-02,9.99999e-01,9.99999e-01,1.28226e-02,9.99999e-01
6.652705375e-01,1.39749e-02,9.99999e-01,9.99999e-01,1.39749e-02,9.99999e-01
6.685968902e-01,1.52049e-02,9.99999e-01,9.99999e-01,1.52049e-02,9.99999e-01
6.719398746e-01,1.65156e-02,9.99999e-01,9.99999e-01,1.65156e-02,9.99999e-01
6.752995740e-01,1.79100e-02,9.99999e-01,9.99999e-01,1.79100e-02,9.99999e-01
6.786760719e-01,1.93910e-02,9.99999e-01,9.99999e-01,1.93910e-02,9.99999e-01
6.820694522e-01,2.09616e-02,9.99999e-01,9.99999e-01,2.09616e-02,9.99999e-01
6.854797995e-01,2.26246e-02,9.99999e-01,9.99999e-01,2.26246e-02,9.99999e-01
6.889071985e-01,2.43827e-02,9.99999e-01,9.99999e-01,2.43827e-02,9.99999e-01
6.923517345e-01,2.62386e-02,9.99999e-01,9.99999e-01,2.62386e-02,9.99999e-01
6.958134932e-01,2.81949e-02,9.99999e-01,9.99999e-01,2.81949e-02,9.99999e-01
6.992925606e-01,3.02540e-02,9.99999e-01,9.99999e-01,3.02540e-02,9.99999e-01
7.027890234e-01,3.24184e-02,9.99999e-01,9.99999e-01,3.24184e-02,9.99999e-01
7.063029686e-01,3.46902e-02,9.99999e-01,9.99999e-01,3.46902e-02,9.99999e-01
7.098344834e-01,3.70716e-02,9.99999e-01,9.99999e-01,3.70716e-02,9.99999e-01
7.133836558e-01,3.95646e-02,9.99999e-01,9.99999e-01,3.95646e-02,9.99999e-01
7.169505741e-01,4.21709e-02,9.99999e-01,9.99999e-01,4.21709e-02,9.99999e-01
7.205353270e-01,4.48924e-02,9.99999e-01,9.99999e-01,4.48924e-02,9.99999e-01
7.241380036e-01,4.77305e-02,9.99999e-01,9.99999e-01,4.77305e-02,9.99999e-01
7.277586936e-01,5.06865e-02,9.99999e-01,9.99999e-01,5.06865e-02,9.99999e-01
7.313974871e-01,5.37619e-02,9.99999e-01,9.99999e-01,5.37619e-02,9.99999e-01
7.350544745e-01,5.69574e-02,9.99999e-01,9.99999e-01,5.69574e-02,9.99999e-01
7.387297469e-01,6.02742e-02,9.99999e-01,9.99999e-01,6.02742e-02,9.99999e-01
7.424233956e-01,6.37128e-02,9.99999e-01,9.99999e-01,6.37128e-02,9.99999e-01
7.461355126e-01,6.72739e-02,9.99999e-01,9.99999e-01,6.72739e-02,9.99999e-01
7.498661902e-01,7.09577e-02,9.99999e-01,9.99999e-01,7.09577e-02,9.99999e-01
7.536155211e-01,7.47644e-02,9.99999e-01,9.99999e-01,7.47644e-02,9.99999e-01
7.573835987e-01,7.86941e-02,9.99999e-01,9.99999e-01,7.86941e-02,9.99999e-01
7.611705167e-01,8.27466e-02,9.99999e-01,9.99999e-01,8.27466e-02,9.99999e-01
7.649763693e-01,8.69215e-02,9.99999e-01,9.99999e-01,8.69215e-02,9.99999e-01
7.688012511e-01,9.12183e-02,9.99999e-01,9.99999e-01,9.12183e-02,9.99999e-01
7.726452574e-01,9.56363e-02,9.99999e-01,9.99999e-01,9.56363e-02,9.99999e-01
7.765084837e-01,1.00175e-01,9.99999e-01,9.99999e-01,1.00175e-01,9.99999e-01
7.803910261e-01,9.53409e-02,9.99999e-01,9.09459e-01,1.04832e-01,9.99999e-01
7.842929812e-01,7.00361e-02,9.99999e-01,6.38966e-01,1.09608e-01,9.99999e-01
7.882144461e-01,7.11524e-02,9.99999e-01,6.21413e-01,1.14501e-01,9.99999e-01
7.921555184e-01,8.91677e-02,9.99999e-01,7.46118e-01,1.19509e-01,9.99999e-01
7.961162960e-01,1.02351e-01,9.99999e-01,8.21240e-01,1.24630e-01,9.99999e-01
8.000968774e-01,1.16673e-01,9.99999e-01,8.98427e-01,1.29863e-01,9.99999e-01
8.040973618e-01,1.27924e-01,9.99999e-01,9.46138e-01,1.35207e-01,9.99999e-01
8.081178486e-01,1.37110e-01,9.99999e-01,9.74780e-01,1.40657e-01,9.99999e-01
8.121584379e-01,1.45077e-01,9.99999e-01,9.92223e-01,1.46214e-01,9.99999e-01
8.162192301e-01,1.51612e-01,9.99999e-01,9.98276e-01,1.51874e-01,9.99999e-01
8.203003262e-01,1.57630e-01,9.99999e-01,9.99976e-01,1.57634e-01,9.99999e-01
8.244018279e-01,1.63493e-01,9.99999e-01,9.99999e-01,1.63493e-01,9.99999e-01
8.285238370e-01,1.69447e-01,9.99999e-01,9.99999e-01,1.69447e-01,9.99999e-01
8.326664562e-01,1.75494e-01,9.99999e-01,9.99999e-01,1.75494e-01,9.99999e-01
8.368297885e-01,1.81631e-01,9.99999e-01,9.99999e-01,1.81631e-01,9.99999e-01
8.410139374e-01,1.87855e-01,9.99999e-01,9.99999e-01,1.87855e-01,9.99999e-01
8.452190071e-01,1.94163e-01,9.99999e-01,9.99999e-01,1.94163e-01,9.99999e-01
8.494451021e-01,2.00552e-01,9.99999e-01,9.99999e-01,2.00552e-01,9.99999e-01
8.536923276e-01,2.07019e-01,9.99999e-01,9.99999e-01,2.07019e-01,9.99999e-01
8.579607893e-01,2.13560e-01,9.99999e-01,9.99999e-01,2.13560e-01,9.99999e-01
8.622505932e-01,2.20173e-01,9.99999e-01,9.99999e-01,2.20173e-01,9.99999e-01
8.665618462e-01,1.95942e-01,9.99999e-01,8.63738e-01,2.26854e-01,9.99999e-01
8.708946554e-01,7.72407e-02,9.99999e-01,3.30654e-01,2.33599e-01,9.99999e-01
8.752491287e-01,9.58673e-02,9.99999e-01,3.98772e-01,2.40406e-01,9.99999e-01
8.796253743e-01,1.47472e-01,9.99999e-01,5.96397e-01,2.47271e-01,9.99999e-01
8.840235012e-01,1.93455e-01,9.99999e-01,7.61063e-01,2.54191e-01,9.99999e-01
8.884436187e-01,2.34448e-01,9.99999e-01,8.97712e-01,2.61162e-01,9.99999e-01
8.928858368e-01,2.56657e-01,9.99999e-01,9.57032e-01,2.68180e-01,9.99999e-01
8.973502660e-01,2.72338e-01,9.99999e-01,9.89445e-01,2.75243e-01,9.99999e-01
9.018370173e-01,2.82019e-01,9.99999e-01,9.98835e-01,2.82347e-01,9.99999e-01
9.063462024e-01,2.80815e-01,9.99999e-01,9.70035e-01,2.89489e-01,9.99999e-01
9.108779334e-01,2.76795e-01,9.99999e-01,9.33020e-01,2.96665e-01,9.99999e-01
9.154323231e-01,2.99015e-01,9.99999e-01,9.84017e-01,3.03872e-01,9.99999e-01
9.200094847e-01,2.52052e-01,9.99999e-01,8.10179e-01,3.11106e-01,9.99999e-01
9.246095321e-01,2.27132e-01,9.99999e-01,7.13433e-01,3.18365e-01,9.99999e-01
9.292325798e-01,2.50489e-01,9.99999e-01,7.69209e-01,3.25644e-01,9.99999e-01
9.338787427e-01,2.58162e-01,9.99999e-01,7.75396e-01,3.32941e-01,9.99999e-01
9.385481364e-01,2.81791e-01,9.99999e-01,8.28179e-01,3.40253e-01,9.99999e-01
9.432408771e-01,3.09581e-01,9.99999e-01,8.90684e-01,3.47576e-01,9.99999e-01
9.479570815e-01,3.34382e-01,9.99999e-01,9.42164e-01,3.54908e-01,9.99999e-01
9.526968669e-01,3.52019e-01,9.99999e-01,9.71770e-01,3.62245e-01,9.99999e-01
9.574603512e-01,3.65086e-01,9.99999e-01,9.87829e-01,3.69584e-01,9.99999e-01
9.622476530e-01,3.75487e-01,9.99999e-01,9.96191e-01,3.76922e-01,9.99999e-01
9.670588912e-01,3.83819e-01,9.99999e-01,9.98859e-01,3.84257e-01,9.99999e-01
9.718941857e-01,3.91554e-01,9.99999e-01,9.99920e-01,3.91585e-01,9.99999e-01
9.767536566e-01,3.98905e-01,9.99999e-01,9.99999e-01,3.98905e-01,9.99999e-01
9.816374249e-01,4.06212e-01,9.99999e-01,9.99999e-01,4.06212e-01,9.99999e-01
9.865456120e-01,4.13505e-01,9.99999e-01,9.99999e-01,4.13505e-01,9.99999e-01
9.914783401e-01,4.20781e-01,9.99999e-01,9.99999e-01,4.20781e-01,9.99999e-01
9.964357318e-01,4.28038e-01,9.99999e-01,9.99999e-01,4.28038e-01,9.99999e-01
1.001417910e+00,4.35273e-01,9.99999e-01,9.99999e-01,4.35273e-01,9.99999e-01
1.006425000e+00,4.42483e-01,9.99999e-01,9.99999e-01,4.42483e-01,9.99999e-01
1.011457125e+00,4.49667e-01,9.99999e-01,9.99999e-01,4.49667e-01,9.99999e-01
1.016514411e+00,4.56822e-01,9.99999e-01,9.99999e-01,4.56822e-01,9.99999e-01
1.021596983e+00,4.63861e-01,9.99999e-01,9.99814e-01,4.63947e-01,9.99999e-01
1.026704968e+00,4.65388e-01,9.99999e-01,9.88003e-01,4.71038e-01,9.99999e-01
1.031838492e+00,4.30416e-01,9.99999e-01,9.00273e-01,4.78095e-01,9.99999e-01
1.036997685e+00,2.40010e-02,9.99999e-01,4.94749e-02,4.85115e-01,9.99999e-01
1.042182673e+00,1.67261e-03,9.99999e-01,3.39895e-03,4.92096e-01,9.99999e-01
1.047393587e+00,4.25861e-03,9.99999e-01,8.53364e-03,4.99037e-01,9.99999e-01
1.052630555e+00,4.83783e-07,9.99999e-01,9.56213e-07,5.05936e-01,9.99999e-01
1.057893707e+00,1.86336e-06,9.99999e-01,3.63376e-06,5.12791e-01,9.99999e-01
1.063183176e+00,4.89316e-05,9.99999e-01,9.41716e-05,5.19600e-01,9.99999e-01
1.068499092e+00,4.90636e-04,9.99999e-01,9.32123e-04,5.26363e-01,9.99999e-01
1.073841587e+00,5.97366e-03,9.99999e-01,1.12060e-02,5.33078e-01,9.99999e-01
1.079210795e+00,3.22337e-02,9.99999e-01,5.97204e-02,5.39744e-01,9.99999e-01
1.084606849e+00,1.10491e-01,9.99999e-01,2.02232e-01,5.46358e-01,9.99999e-01
1.090029883e+00,2.39139e-01,9.99999e-01,4.32500e-01,5.52921e-01,9.99999e-01
1.095480033e+00,3.69724e-01,9.99999e-01,6.60894e-01,5.59430e-01,9.99999e-01
1.100957433e+00,4.62982e-01,9.99999e-01,8.18155e-01,5.65886e-01,9.99999e-01
1.106462220e+00,5.26696e-01,9.99999e-01,9.20337e-01,5.72286e-01,9.99999e-01
1.111994531e+00,5.61073e-01,9.99999e-01,9.69657e-01,5.78629e-01,9.99999e-01
1.117554504e+00,5.80556e-01,9.99999e-01,9.92545e-01,5.84916e-01,9.99999e-01
1.123142276e+00,5.90857e-01,9.99999e-01,9.99512e-01,5.91145e-01,9.99999e-01
1.128757988e+00,5.97315e-01,9.99999e-01,9.99999e-01,5.97316e-01,9.99999e-01
1.134401778e+00,6.03426e-01,9.99999e-01,9.99999e-01,6.03426e-01,9.99999e-01
1.140073787e+00,6.09477e-01,9.99999e-01,9.99999e-01,6.09477e-01,9.99999e-01
1.145774156e+00,6.15468e-01,9.99999e-01,9.99999e-01,6.15468e-01,9.99999e-01
1.151503026e+00,6.21397e-01,9.99999e-01,9.99999e-01,6.21397e-01,9.99999e-01
1.157260541e+00,6.27264e-01,9.99999e-01,9.99999e-01,6.27264e-01,9.99999e-01
1.163046844e+00,6.33069e-01,9.99999e-01,9.99999e-01,6.33069e-01,9.99999e-01
1.168862078e+00,6.38812e-01,9.99999e-01,9.99999e-01,6.38812e-01,9.99999e-01
1.174706389e+00,6.44492e-01,9.99999e-01,9.99999e-01,6.44492e-01,9.99999e-01
1.180579921e+00,6.50108e-01,9.99999e-01,9.99999e-01,6.50108e-01,9.99999e-01
1.186482820e+00,6.55643e-01,9.99999e-01,9.99971e-01,6.55662e-01,9.99999e-01
1.192415234e+00,6.34074e-01,9.99999e-01,9.59045e-01,6.61151e-01,9.99999e-01
1.198377311e+00,3.42964e-01,9.99999e-01,5.14515e-01,6.66577e-01,9.99999e-01
1.204369197e+00,1.37946e-30,9.99999e-01,2.05296e-30,6.71939e-01,9.99999e-01
1.210391043e+00,5.38407e-124,9.99999e-01,7.95005e-124,6.77236e-01,9.99999e-01
1.216442998e+00,2.71555e-107,9.99999e-01,3.97899e-107,6.82470e-01,9.99999e-01
1.222525213e+00,1.10998e-105,9.99999e-01,1.61419e-105,6.87640e-01,9.99999e-01
1.228637839e+00,1.63086e-81,9.99999e-01,2.35420e-81,6.92745e-01,9.99999e-01
1.234781029e+00,1.08158e-50,9.99999e-01,1.55002e-50,6.97786e-01,9.99999e-01
1.240954934e+00,1.32581e-33,9.99999e-01,1.88657e-33,7.02764e-01,9.99999e-01
1.247159708e+00,3.61612e-16,9.99999e-01,5.10984e-16,7.07677e-01,9.99999e-01
1.253395507e+00,5.53918e-11,9.99999e-01,7.77398e-11,7.12527e-01,9.99999e-01
1.259662485e+00,1.44155e-06,9.99999e-01,2.00964e-06,7.17313e-01,9.99999e-01
1.265960797e+00,5.48709e-04,9.99999e-01,7.59945e-04,7.22036e-01,9.99999e-01
1.272290601e+00,2.45810e-02,9.99999e-01,3.38257e-02,7.26696e-01,9.99999e-01
1.278652054e+00,2.22502e-02,9.99999e-01,3.04257e-02,7.31293e-01,9.99999e-01
1.285045314e+00,2.21869e-05,9.99999e-01,3.01523e-05,7.35827e-01,9.99999e-01
1.291470541e+00,1.29538e-14,9.99999e-01,1.74981e-14,7.40299e-01,9.99999e-01
1.297927893e+00,2.64495e-05,9.99999e-01,3.55165e-05,7.44710e-01,9.99999e-01
1.304417533e+00,1.44598e-03,9.99999e-01,1.93040e-03,7.49058e-01,9.99999e-01
1.310939621e+00,2.71492e-04,9.99999e-01,3.60381e-04,7.53345e-01,9.99999e-01
1.317494319e+00,8.76438e-43,9.99999e-01,1.15690e-42,7.57572e-01,9.99999e-01
1.324081790e+00,1.23478e-19,9.99999e-01,1.62100e-19,7.61738e-01,9.99999e-01
1.330702199e+00,1.93883e-16,9.99999e-01,2.53162e-16,7.65844e-01,9.99999e-01
1.337355710e+00,4.88913e-15,9.99999e-01,6.35042e-15,7.69890e-01,9.99999e-01
1.344042489e+00,2.58258e-15,9.99999e-01,3.33719e-15,7.73877e-01,9.99999e-01
1.350762701e+00,9.83873e-17,9.99999e-01,1.26493e-16,7.77805e-01,9.99999e-01
1.357516515e+00,3.24139e-10,9.99999e-01,4.14672e-10,7.81675e-01,9.99999e-01
1.364304097e+00,1.56330e-07,9.99999e-01,1.99023e-07,7.85488e-01,9.99999e-01
1.371125618e+00,3.08997e-04,9.99999e-01,3.91510e-04,7.89243e-01,9.99999e-01
1.377981246e+00,8.86101e-04,9.99999e-01,1.11749e-03,7.92941e-01,9.99999e-01
1.384871152e+00,1.50069e-02,9.99999e-01,1.88390e-02,7.96583e-01,9.99999e-01
1.391795508e+00,2.08272e-02,9.99999e-01,2.60285e-02,8.00170e-01,9.99999e-01
1.398754485e+00,7.99968e-02,9.99999e-01,9.95354e-02,8.03701e-01,9.99999e-01
1.405748258e+00,1.51024e-01,9.99999e-01,1.87101e-01,8.07178e-01,9.99999e-01
1.412776999e+00,2.78764e-01,9.99999e-01,3.43898e-01,8.10600e-01,9.99999e-01
1.419840884e+00,2.59775e-01,9.99999e-01,3.19146e-01,8.13969e-01,9.99999e-01
1.426940089e+00,9.28602e-03,9.99999e-01,1.13620e-02,8.17285e-01,9.99999e-01
1.434074789e+00,0.00000e+00,9.99999e-01,0.00000e+00,8.20549e-01,9.99999e-01
1.441245163e+00,0.00000e+00,9.99999e-01,0.00000e+00,8.23761e-01,9.99999e-01
1.448451389e+00,0.00000e+00,9.99999e-01,0.00000e+00,8.26922e-01,9.99999e-01
1.455693646e+00,0.00000e+00,9.99999e-01,0.00000e+00,8.30032e-01,9.99999e-01
1.462972114e+00,0.00000e+00,9.99999e-01,0.00000e+00,8.33091e-01,9.99999e-01
1.470286975e+00,1.41079e-205,9.99999e-01,1.68734e-205,8.36102e-01,9.99999e-01
