#,Wave/freq,Total,O2,CO2,Rayleigh,CIA
4.000000000e-01,2.89923e-08,9.99999e-01,9.99999e-01,2.89923e-08,9.99999e-01
4.020000000e-01,4.08628e-08,9.99999e-01,9.99999e-01,4.08628e-08,9.99999e-01
4.040100000e-01,5.71838e-08,9.99999e-01,9.99999e-01,5.71838e-08,9.99999e-01
4.060300500e-01,7.94941e-08,9.99999e-01,9.99999e-01,7.94941e-08,9.99999e-01
4.080602003e-01,1.09792e-07,9.99999e-01,9.99999e-01,1.09792e-07,9.99999e-01
4.101005013e-01,1.50673e-07,9.99999e-01,9.99999e-01,1.50673e-07,9.99999e-01
4.121510038e-01,2.05488e-07,9.99999e-01,9.99999e-01,2.05488e-07,9.99999e-01
4.142117588e-01,2.78533e-07,9.99999e-01,9.99999e-01,2.78533e-07,9.99999e-01
4.162828176e-01,3.75281e-07,9.99999e-01,9.99999e-01,3.75281e-07,9.99999e-01
4.183642317e-01,5.02665e-07,9.99999e-01,9.99999e-01,5.02665e-07,9.99999e-01
4.204560528e-01,6.69413e-07,9.99999e-01,9.99999e-01,6.69413e-07,9.99999e-01
4.225583331e-01,8.86445e-07,9.99999e-01,9.99999e-01,8.86445e-07,9.99999e-01
4.246711247e-01,1.16735e-06,9.99999e-01,9.99999e-01,1.16735e-06,9.99999e-01
4.267944804e-01,1.52893e-06,9.99999e-01,9.99999e-01,1.52893e-06,9.99999e-01
4.289284528e-01,1.99187e-06,9.99999e-01,9.99999e-01,1.99187e-06,9.99999e-01
4.310730950e-01,2.58146e-06,9.99999e-01,9.99999e-01,2.58146e-06,9.99999e-01
4.332284605e-01,3.32847e-06,9.99999e-01,9.99999e-01,3.32847e-06,9.99999e-01
4.353946028e-01,4.27015e-06,9.99999e-01,9.99999e-01,4.27015e-06,9.99999e-01
4.375715758e-01,5.45137e-06,9.99999e-01,9.99999e-01,5.45137e-06,9.99999e-01
4.397594337e-01,6.92584e-06,9.99999e-01,9.99999e-01,6.92584e-06,9.99999e-01
4.419582309e-01,8.75762e-06,9.99999e-01,9.99999e-01,8.75762e-06,9.99999e-01
4.441680220e-01,1.10227e-05,9.99999e-01,9.99999e-01,1.10227e-05,9.99999e-01
4.463888621e-01,1.38106e-05,9.99999e-01,9.99999e-01,1.38106e-05,9.99999e-01
4.486208064e-01,1.72269e-05,9.99999e-01,9.99999e-01,1.72269e-05,9.99999e-01
4.508639105e-01,2.13945e-05,9.99999e-01,9.99999e-01,2.13945e-05,9.99999e-01
4.531182300e-01,2.64570e-05,9.99999e-01,9.99999e-01,2.64570e-05,9.99999e-01
4.553838212e-01,3.25805e-05,9.99999e-01,9.99999e-01,3.25805e-05,9.99999e-01
4.576607403e-01,3.99565e-05,9.99999e-01,9.99999e-01,3.99565e-05,9.99999e-01
4.599490440e-01,4.88053e-05,9.99999e-01,9.99999e-01,4.88053e-05,9.99999e-01
4.622487892e-01,5.93787e-05,9.99999e-01,9.99999e-01,5.93787e-05,9.99999e-01
4.645600332e-01,7.19634e-05,9.99999e-01,9.99999e-01,7.19634e-05,9.99999e-01
4.668828333e-01,8.68848e-05,9.99999e-01,9.99999e-01,8.68848e-05,9.99999e-01
4.692172475e-01,1.04511e-04,9.99999e-01,9.99999e-01,1.04511e-04,9.99999e-01
4.715633337e-01,1.25254e-04,9.99999e-01,9.99999e-01,1.25254e-04,9.99999e-01
4.739211504e-01,1.49579e-04,9.99999e-01,9.99999e-01,1.49579e-04,9.99999e-01
4.762907561e-01,1.78002e-04,9.99999e-01,9.99999e-01,1.78002e-04,9.99999e-01
4.786722099e-01,2.11100e-04,9.99999e-01,9.99999e-01,2.11100e-04,9.99999e-01
4.810655710e-01,2.49511e-04,9.99999e-01,9.99999e-01,2.49511e-04,9.99999e-01
4.834708988e-01,2.93938e-04,9.99999e-01,9.99999e-01,2.93938e-04,9.99999e-01
4.858882533e-01,3.45157e-04,9.99999e-01,9.99999e-01,3.45157e-04,9.99999e-01
4.883176946e-01,4.04017e-04,9.99999e-01,9.99999e-01,4.04017e-04,9.99999e-01
4.907592831e-01,4.71445e-04,9.99999e-01,9.99999e-01,4.71445e-04,9.99999e-01
4.932130795e-01,5.48453e-04,9.99999e-01,9.99999e-01,5.48453e-04,9.99999e-01
4.956791449e-01,6.36135e-04,9.99999e-01,9.99999e-01,6.36135e-04,9.99999e-01
4.981575406e-01,7.35677e-04,9.99999e-01,9.99999e-01,7.35677e-04,9.99999e-01
5.006483283e-01,8.48355e-04,9.99999e-01,9.99999e-01,8.48355e-04,9.99999e-01
5.031515699e-01,9.75542e-04,9.99999e-01,9.99999e-01,9.75542e-04,9.99999e-01
5.056673278e-01,1.11871e-03,9.99999e-01,9.99999e-01,1.11871e-03,9.99999e-01
5.081956644e-01,1.27941e-03,9.99999e-01,9.99999e-01,1.27941e-03,9.99999e-01
5.107366428e-01,1.45933e-03,9.99999e-01,9.99999e-01,1.45933e-03,9.99999e-01
5.132903260e-01,1.66024e-03,9.99999e-01,9.99999e-01,1.66024e-03,9.99999e-01
5.158567776e-01,1.88399e-03,9.99999e-01,9.99999e-01,1.88399e-03,9.99999e-01
5.184360615e-01,2.13256e-03,9.99999e-01,9.99999e-01,2.13256e-03,9.99999e-01
5.210282418e-01,2.40804e-03,9.99999e-01,9.99999e-01,2.40804e-03,9.99999e-01
5.236333830e-01,2.71257e-03,9.99999e-01,9.99999e-01,2.71257e-03,9.99999e-01
5.262515499e-01,3.04845e-03,9.99999e-01,9.99999e-01,3.04845e-03,9.99999e-01
5.288828077e-01,3.41802e-03,9.99999e-01,9.99999e-01,3.41802e-03,9.99999e-01
5.315272217e-01,3.82374e-03,9.99999e-01,9.99999e-01,3.82374e-03,9.99999e-01
5.341848578e-01,4.26815e-03,9.99999e-01,9.99999e-01,4.26815e-03,9.99999e-01
5.368557821e-01,4.75389e-03,9.99999e-01,9.99999e-01,4.75389e-03,9.99999e-01
5.395400610e-01,5.28363e-03,9.99999e-01,9.99999e-01,5.28363e-03,9.99999e-01
5.422377613e-01,5.86017e-03,9.99999e-01,9.99999e-01,5.86017e-03,9.99999e-01
5.449489501e-01,6.48634e-03,9.99999e-01,9.99999e-01,6.48634e-03,9.99999e-01
5.476736949e-01,7.16503e-03,9.99999e-01,9.99999e-01,7.16503e-03,9.99999e-01
5.504120634e-01,7.89920e-03,9.99999e-01,9.99999e-01,7.89920e-03,9.99999e-01
5.531641237e-01,8.69182e-03,9.99999e-01,9.99999e-01,8.69182e-03,9.99999e-01
5.559299443e-01,9.54594e-03,9.99999e-01,9.99999e-01,9.54594e-03,9.99999e-01
5.587095940e-01,1.04646e-02,9.99999e-01,9.99999e-01,1.04646e-02,9.99999e-01
5.615031420e-01,1.14508e-02,9.99999e-01,9.99999e-01,1.14508e-02,9.99999e-01
5.643106577e-01,1.25078e-02,9.99999e-01,9.99999e-01,1.25078e-02,9.99999e-01
5.671322110e-01,1.36385e-02,9.99999e-01,9.99999e-01,1.36385e-02,9.99999e-01
5.699678720e-01,1.48460e-02,9.99999e-01,9.99999e-01,1.48460e-02,9.99999e-01
5.728177114e-01,1.61333e-02,9.99999e-01,9.99999e-01,1.61333e-02,9.99999e-01
5.756818000e-01,1.75035e-02,9.99999e-01,9.99999e-01,1.75035e-02,9.99999e-01
5.785602090e-01,1.89596e-02,9.99999e-01,9.99999e-01,1.89596e-02,9.99999e-01
5.814530100e-01,2.05043e-02,9.99999e-01,9.99999e-01,2.05043e-02,9.99999e-01
5.843602750e-01,2.21407e-02,9.99999e-01,9.99999e-01,2.21407e-02,9.99999e-01
5.872820764e-01,2.38714e-02,9.99999e-01,9.99999e-01,2.38714e-02,9.99999e-01
5.902184868e-01,2.56991e-02,9.99999e-01,9.99999e-01,2.56991e-02,9.99999e-01
5.931695792e-01,2.76265e-02,9.99999e-01,9.99999e-01,2.76265e-02,9.99999e-01
5.961354271e-01,2.96561e-02,9.99999e-01,9.99999e-01,2.96561e-02,9.99999e-01
5.991161043e-01,3.17902e-02,9.99999e-01,9.99999e-01,3.17902e-02,9.99999e-01
6.021116848e-01,3.40312e-02,9.99999e-01,9.99999e-01,3.40312e-02,9.99999e-01
6.051222432e-01,3.63811e-02,9.99999e-01,9.99999e-01,3.63811e-02,9.99999e-01
6.081478544e-01,3.88421e-02,9.99999e-01,9.99999e-01,3.88421e-02,9.99999e-01
6.111885937e-01,4.14159e-02,9.99999e-01,9.99999e-01,4.14159e-02,9.99999e-01
6.142445367e-01,4.41043e-02,9.99999e-01,9.99999e-01,4.41043e-02,9.99999e-01
6.173157594e-01,4.69090e-02,9.99999e-01,9.99999e-01,4.69090e-02,9.99999e-01
6.204023382e-01,4.98313e-02,9.99999e-01,9.99999e-01,4.98313e-02,9.99999e-01
6.235043498e-01,5.28725e-02,9.99999e-01,9.99999e-01,5.28725e-02,9.99999e-01
6.266218716e-01,5.60337e-02,9.99999e-01,9.99999e-01,5.60337e-02,9.99999e-01
6.297549810e-01,5.93158e-02,9.99999e-01,9.99999e-01,5.93158e-02,9.99999e-01
6.329037559e-01,6.27196e-02,9.99999e-01,9.99999e-01,6.27196e-02,9.99999e-01
6.360682746e-01,6.62457e-02,9.99999e-01,9.99999e-01,6.62457e-02,9.99999e-01
6.392486160e-01,6.98944e-02,9.99999e-01,9.99999e-01,6.98944e-02,9.99999e-01
6.424448591e-01,7.36661e-02,9.99999e-01,9.99999e-01,7.36661e-02,9.99999e-01
6.456570834e-01,7.75607e-02,9.99999e-01,9.99999e-01,7.75607e-02,9.99999e-01
6.488853688e-01,8.15782e-02,9.99999e-01,9.99999e-01,8.15782e-02,9.99999e-01
6.521297956e-01,8.57183e-02,9.99999e-01,9.99999e-01,8.57183e-02,9.99999e-01
6.553904446e-01,8.99804e-02,9.99999e-01,9.99999e-01,8.99804e-02,9.99999e-01
6.586673968e-01,9.43639e-02,9.99999e-01,9.99999e-01,9.43639e-02,9.99999e-01
6.619607338e-01,9.88681e-02,9.99999e-01,9.99999e-01,9.88681e-02,9.99999e-01
6.652705375e-01,1.03492e-01,9.99999e-01,9.99999e-01,1.03492e-01,9.99999e-01
6.685968902e-01,1.08234e-01,9.99999e-01,9.99999e-01,1.08234e-01,9.99999e-01
6.719398746e-01,1.13094e-01,9.99999e-01,9.99999e-01,1.13094e-01,9.99999e-01
6.752995740e-01,1.18069e-01,9.99999e-01,9.99999e-01,1.18069e-01,9.99999e-01
6.786760719e-01,1.23158e-01,9.99999e-01,9.99999e-01,1.23158e-01,9.99999e-01
6.820694522e-01,1.28360e-01,9.99999e-01,9.99999e-01,1.28360e-01,9.99999e-01
6.854797995e-01,1.33672e-01,9.99999e-01,9.99999e-01,1.33672e-01,9.99999e-01
6.889071985e-01,1.39092e-01,9.99999e-01,9.99999e-01,1.39092e-01,9.99999e-01
6.923517345e-01,1.44618e-01,9.99999e-01,9.99999e-01,1.44618e-01,9.99999e-01
6.958134932e-01,1.50249e-01,9.99999e-01,9.99999e-01,1.50249e-01,9.99999e-01
6.992925606e-01,1.55981e-01,9.99999e-01,9.99999e-01,1.55981e-01,9.99999e-01
7.027890234e-01,1.61812e-01,9.99999e-01,9.99999e-01,1.61812e-01,9.99999e-01
7.063029686e-01,1.67739e-01,9.99999e-01,9.99999e-01,1.67739e-01,9.99999e-01
7.098344834e-01,1.73760e-01,9.99999e-01,9.99999e-01,1.73760e-01,9.99999e-01
7.133836558e-01,1.79872e-01,9.99999e-01,9.99999e-01,1.79872e-01,9.99999e-01
7.169505741e-01,1.86071e-01,9.99999e-01,9.99999e-01,1.86071e-01,9.99999e-01
7.205353270e-01,1.92355e-01,9.99999e-01,9.99999e-01,1.92355e-01,9.99999e-01
7.241380036e-01,1.98722e-01,9.99999e-01,9.99999e-01,1.98722e-01,9.99999e-01
7.277586936e-01,2.05167e-01,9.99999e-01,9.99999e-01,2.05167e-01,9.99999e-01
7.313974871e-01,2.11687e-01,9.99999e-01,9.99999e-01,2.11687e-01,9.99999e-01
7.350544745e-01,2.18280e-01,9.99999e-01,9.99999e-01,2.18280e-01,9.99999e-01
7.387297469e-01,2.24941e-01,9.99999e-01,9.99999e-01,2.24941e-01,9.99999e-01
7.424233956e-01,2.31669e-01,9.99999e-01,9.99999e-01,2.31669e-01,9.99999e-01
7.461355126e-01,2.38459e-01,9.99999e-01,9.99999e-01,2.38459e-01,9.99999e-01
7.498661902e-01,2.45307e-01,9.99999e-01,9.99999e-01,2.45307e-01,9.99999e-01
7.536155211e-01,2.52212e-01,9.99999e-01,9.99999e-01,2.52212e-01,9.99999e-01
7.573835987e-01,2.59168e-01,9.99999e-01,9.99999e-01,2.59168e-01,9.99999e-01
7.611705167e-01,2.66174e-01,9.99999e-01,9.99999e-01,2.66174e-01,9.99999e-01
7.649763693e-01,2.73224e-01,9.99999e-01,9.99999e-01,2.73224e-01,9.99999e-01
7.688012511e-01,2.80317e-01,9.99999e-01,9.99999e-01,2.80317e-01,9.99999e-01
7.726452574e-01,2.87448e-01,9.99999e-01,9.99999e-01,2.87448e-01,9.99999e-01
7.765084837e-01,2.94615e-01,9.99999e-01,9.99999e-01,2.94615e-01,9.99999e-01
7.803910261e-01,2.86592e-01,9.99999e-01,9.49566e-01,3.01813e-01,9.99999e-01
7.842929812e-01,2.40780e-01,9.99999e-01,7.79121e-01,3.09040e-01,9.99999e-01
7.882144461e-01,2.42869e-01,9.99999e-01,7.67862e-01,3.16292e-01,9.99999e-01
7.921555184e-01,2.76591e-01,9.99999e-01,8.54821e-01,3.23566e-01,9.99999e-01
7.961162960e-01,2.97503e-01,9.99999e-01,8.99186e-01,3.30858e-01,9.99999e-01
8.000968774e-01,3.19259e-01,9.99999e-01,9.44089e-01,3.38166e-01,9.99999e-01
8.040973618e-01,3.35290e-01,9.99999e-01,9.70485e-01,3.45487e-01,9.99999e-01
8.081178486e-01,3.48019e-01,9.99999e-01,9.86403e-01,3.52816e-01,9.99999e-01
8.121584379e-01,3.58618e-01,9.99999e-01,9.95742e-01,3.60152e-01,9.99999e-01
8.162192301e-01,3.67144e-01,9.99999e-01,9.99057e-01,3.67490e-01,9.99999e-01
8.203003262e-01,3.74823e-01,9.99999e-01,9.99983e-01,3.74829e-01,9.99999e-01
8.244018279e-01,3.82165e-01,9.99999e-01,9.99999e-01,3.82165e-01,9.99999e-01
8.285238370e-01,3.89496e-01,9.99999e-01,9.99999e-01,3.89496e-01,9.99999e-01
8.326664562e-01,3.96818e-01,9.99999e-01,9.99999e-01,3.96818e-01,9.99999e-01
8.368297885e-01,4.04129e-01,9.99999e-01,9.99999e-01,4.04129e-01,9.99999e-01
8.410139374e-01,4.11427e-01,9.99999e-01,9.99999e-01,4.11427e-01,9.99999e-01
8.452190071e-01,4.18708e-01,9.99999e-01,9.99999e-01,4.18708e-01,9.99999e-01
8.494451021e-01,4.25970e-01,9.99999e-01,9.99999e-01,4.25970e-01,9.99999e-01
8.536923276e-01,4.33211e-01,9.99999e-01,9.99999e-01,4.33211e-01,9.99999e-01
8.579607893e-01,4.40429e-01,9.99999e-01,9.99999e-01,4.40429e-01,9.99999e-01
8.622505932e-01,4.47621e-01,9.99999e-01,9.99999e-01,4.47621e-01,9.99999e-01
8.665618462e-01,4.11501e-01,9.99999e-01,9.04826e-01,4.54784e-01,9.99999e-01
8.708946554e-01,2.48111e-01,9.99999e-01,5.37131e-01,4.61918e-01,9.99999e-01
8.752491287e-01,2.81779e-01,9.99999e-01,6.00783e-01,4.69019e-01,9.99999e-01
8.796253743e-01,3.58603e-01,9.99999e-01,7.53232e-01,4.76086e-01,9.99999e-01
8.840235012e-01,4.16746e-01,9.99999e-01,8.62619e-01,4.83116e-01,9.99999e-01
8.884436187e-01,4.62188e-01,9.99999e-01,9.43031e-01,4.90109e-01,9.99999e-01
8.928858368e-01,4.85422e-01,9.99999e-01,9.76582e-01,4.97061e-01,9.99999e-01
8.973502660e-01,5.01060e-01,9.99999e-01,9.94219e-01,5.03972e-01,9.99999e-01
9.018370173e-01,5.10513e-01,9.99999e-01,9.99359e-01,5.10840e-01,9.99999e-01
9.063462024e-01,5.09585e-01,9.99999e-01,9.84394e-01,5.17663e-01,9.99999e-01
9.108779334e-01,5.05243e-01,9.99999e-01,9.63396e-01,5.24439e-01,9.99999e-01
9.154323231e-01,5.26489e-01,9.99999e-01,9.91191e-01,5.31168e-01,9.99999e-01
9.200094847e-01,4.77268e-01,9.99999e-01,8.87365e-01,5.37848e-01,9.99999e-01
9.246095321e-01,4.53909e-01,9.99999e-01,8.33660e-01,5.44477e-01,9.99999e-01
9.292325798e-01,4.79006e-01,9.99999e-01,8.69253e-01,5.51054e-01,9.99999e-01
9.338787427e-01,4.85976e-01,9.99999e-01,8.71582e-01,5.57579e-01,9.99999e-01
9.385481364e-01,5.09726e-01,9.99999e-01,9.03689e-01,5.64050e-01,9.99999e-01
9.432408771e-01,5.35979e-01,9.99999e-01,9.39545e-01,5.70466e-01,9.99999e-01
9.479570815e-01,5.58722e-01,9.99999e-01,9.68615e-01,5.76826e-01,9.99999e-01
9.526968669e-01,5.74218e-01,9.99999e-01,9.84717e-01,5.83129e-01,9.99999e-01
9.574603512e-01,5.85503e-01,9.99999e-01,9.93430e-01,5.89375e-01,9.99999e-01
9.622476530e-01,5.94338e-01,9.99999e-01,9.97944e-01,5.95562e-01,9.99999e-01
9.670588912e-01,6.01318e-01,9.99999e-01,9.99381e-01,6.01690e-01,9.99999e-01
9.718941857e-01,6.07731e-01,9.99999e-01,9.99954e-01,6.07758e-01,9.99999e-01
9.767536566e-01,6.13765e-01,9.99999e-01,9.99999e-01,6.13765e-01,9.99999e-01
9.816374249e-01,6.19712e-01,9.99999e-01,9.99999e-01,6.19712e-01,9.99999e-01
9.865456120e-01,6.25597e-01,9.99999e-01,9.99999e-01,6.25597e-01,9.99999e-01
9.914783401e-01,6.31420e-01,9.99999e-01,9.99999e-01,6.31420e-01,9.99999e-01
9.964357318e-01,6.37180e-01,9.99999e-01,9.99999e-01,6.37180e-01,9.99999e-01
1.001417910e+00,6.42878e-01,9.99999e-01,9.99999e-01,6.42878e-01,9.99999e-01
1.006425000e+00,6.48513e-01,9.99999e-01,9.99999e-01,6.48513e-01,9.99999e-01
1.011457125e+00,6.54084e-01,9.99999e-01,9.99999e-01,6.54084e-01,9.99999e-01
1.016514411e+00,6.59592e-01,9.99999e-01,9.99999e-01,6.59592e-01,9.99999e-01
1.021596983e+00,6.64986e-01,9.99999e-01,9.99924e-01,6.65036e-01,9.99999e-01
1.026704968e+00,6.66315e-01,9.99999e-01,9.93883e-01,6.70416e-01,9.99999e-01
1.031838492e+00,6.36169e-01,9.99999e-01,9.41450e-01,6.75732e-01,9.99999e-01
1.036997685e+00,6.60376e-02,9.99999e-01,9.69737e-02,6.80984e-01,9.99999e-01
1.042182673e+00,2.34031e-02,9.99999e-01,3.41067e-02,6.86172e-01,9.99999e-01
1.047393587e+00,3.90346e-02,9.99999e-01,5.64659e-02,6.91295e-01,9.99999e-01
1.052630555e+00,1.59804e-04,9.99999e-01,2.29486e-04,6.96355e-01,9.99999e-01
1.057893707e+00,5.07117e-04,9.99999e-01,7.23057e-04,7.01351e-01,9.99999e-01
1.063183176e+00,3.24850e-03,9.99999e-01,4.59944e-03,7.06282e-01,9.99999e-01
1.068499092e+00,1.49188e-02,9.99999e-01,2.09784e-02,7.11150e-01,9.99999e-01
1.073841587e+00,6.10296e-02,9.99999e-01,8.52422e-02,7.15955e-01,9.99999e-01
1.079210795e+00,1.51700e-01,9.99999e-01,2.10492e-01,7.20695e-01,9.99999e-01
1.084606849e+00,3.04246e-01,9.99999e-01,4.19434e-01,7.25373e-01,9.99999e-01
1.090029883e+00,4.64449e-01,9.99999e-01,6.36242e-01,7.29988e-01,9.99999e-01
1.095480033e+00,5.87462e-01,9.99999e-01,7.99767e-01,7.34540e-01,9.99999e-01
1.100957433e+00,6.63490e-01,9.99999e-01,8.97784e-01,7.39030e-01,9.99999e-01
1.106462220e+00,7.10979e-01,9.99999e-01,9.56313e-01,7.43458e-01,9.99999e-01
1.111994531e+00,7.35541e-01,9.99999e-01,9.83575e-01,7.47824e-01,9.99999e-01
1.117554504e+00,7.49079e-01,9.99999e-01,9.95944e-01,7.52129e-01,9.99999e-01
1.123142276e+00,7.56169e-01,9.99999e-01,9.99731e-01,7.56372e-01,9.99999e-01
1.128757988e+00,7.60555e-01,9.99999e-01,9.99999e-01,7.60556e-01,9.99999e-01
1.134401778e+00,7.64679e-01,9.99999e-01,9.99999e-01,7.64679e-01,9.99999e-01
1.140073787e+00,7.68742e-01,9.99999e-01,9.99999e-01,7.68742e-01,9.99999e-01
1.145774156e+00,7.72746e-01,9.99999e-01,9.99999e-01,7.72746e-01,9.99999e-01
1.151503026e+00,7.76691e-01,9.99999e-01,9.99999e-01,7.76691e-01,9.99999e-01
1.157260541e+00,7.80577e-01,9.99999e-01,9.99999e-01,7.80577e-01,9.99999e-01
1.163046844e+00,7.84406e-01,9.99999e-01,9.99999e-01,7.84406e-01,9.99999e-01
1.168862078e+00,7.88178e-01,9.99999e-01,9.99999e-01,7.88178e-01,9.99999e-01
1.174706389e+00,7.91892e-01,9.99999e-01,9.99999e-01,7.91892e-01,9.99999e-01
1.180579921e+00,7.95550e-01,9.99999e-01,9.99999e-01,7.95550e-01,9.99999e-01
1.186482820e+00,7.99146e-01,9.99999e-01,9.99991e-01,7.99153e-01,9.99999e-01
1.192415234e+00,7.85610e-01,9.99999e-01,9.78709e-01,8.02699e-01,9.99999e-01
1.198377311e+00,4.41340e-01,9.99999e-01,5.47437e-01,8.06192e-01,9.99999e-01
1.204369197e+00,2.68876e-17,9.99999e-01,3.32098e-17,8.09630e-01,9.99999e-01
1.210391043e+00,6.78029e-67,9.99999e-01,8.33969e-67,8.13014e-01,9.99999e-01
1.216442998e+00,5.00935e-58,9.99999e-01,6.13632e-58,8.16345e-01,9.99999e-01
1.222525213e+00,3.59524e-57,9.99999e-01,4.38645e-57,8.19623e-01,9.99999e-01
1.228637839e+00,3.04666e-44,9.99999e-01,3.70256e-44,8.22850e-01,9.99999e-01
1.234781029e+00,5.67609e-28,9.99999e-01,6.87156e-28,8.26025e-01,9.99999e-01
1.240954934e+00,9.28686e-19,9.99999e-01,1.12005e-18,8.29150e-01,9.99999e-01
1.247159708e+00,3.46793e-12,9.99999e-01,4.16706e-12,8.32224e-01,9.99999e-01
1.253395507e+00,1.93140e-06,9.99999e-01,2.31237e-06,8.35248e-01,9.99999e-01
1.259662485e+00,3.01940e-04,9.99999e-01,3.60213e-04,8.38224e-01,9.99999e-01
1.265960797e+00,1.18453e-02,9.99999e-01,1.40823e-02,8.41150e-01,9.99999e-01
1.272290601e+00,1.12833e-01,9.99999e-01,1.33684e-01,8.44029e-01,9.99999e-01
1.278652054e+00,1.13747e-01,9.99999e-01,1.34316e-01,8.46861e-01,9.99999e-01
1.285045314e+00,1.07468e-03,9.99999e-01,1.26486e-03,8.49646e-01,9.99999e-01
1.291470541e+00,2.09340e-08,9.99999e-01,2.45593e-08,8.52385e-01,9.99999e-01
1.297927893e+00,3.46863e-04,9.99999e-01,4.05650e-04,8.55078e-01,9.99999e-01
1.304417533e+00,2.80962e-02,9.99999e-01,3.27565e-02,8.57727e-01,9.99999e-01
1.310939621e+00,6.92350e-03,9.99999e-01,8.04747e-03,8.60331e-01,9.99999e-01
1.317494319e+00,2.82366e-23,9.99999e-01,3.27232e-23,8.62891e-01,9.99999e-01
1.324081790e+00,1.22668e-15,9.99999e-01,1.41745e-15,8.65408e-01,9.99999e-01
1.330702199e+00,2.83744e-09,9.99999e-01,3.26937e-09,8.67883e-01,9.99999e-01
1.337355710e+00,9.03587e-09,9.99999e-01,1.03823e-08,8.70315e-01,9.99999e-01
1.344042489e+00,3.50295e-09,9.99999e-01,4.01389e-09,8.72706e-01,9.99999e-01
1.350762701e+00,1.53518e-09,9.99999e-01,1.75438e-09,8.75057e-01,9.99999e-01
1.357516515e+00,3.24151e-06,9.99999e-01,3.69459e-06,8.77366e-01,9.99999e-01
1.364304097e+00,1.76356e-04,9.99999e-01,2.00487e-04,8.79637e-01,9.99999e-01
1.371125618e+00,1.09474e-02,9.99999e-01,1.24138e-02,8.81868e-01,9.99999e-01
1.377981246e+00,2.20721e-02,9.99999e-01,2.49667e-02,8.84060e-01,9.99999e-01
1.384871152e+00,1.03454e-01,9.99999e-01,1.16736e-01,8.86215e-01,9.99999e-01
1.391795508e+00,1.21730e-01,9.99999e-01,1.37032e-01,8.88332e-01,9.99999e-01
1.398754485e+00,2.59159e-01,9.99999e-01,2.91055e-01,8.90412e-01,9.99999e-01
1.405748258e+00,3.60571e-01,9.99999e-01,4.04020e-01,8.92456e-01,9.99999e-01
1.412776999e+00,5.03480e-01,9.99999e-01,5.62885e-01,8.94464e-01,9.99999e-01
1.419840884e+00,4.58218e-01,9.99999e-01,5.11154e-01,8.96436e-01,9.99999e-01
1.426940089e+00,2.85725e-02,9.99999e-01,3.18046e-02,8.98374e-01,9.99999e-01
1.434074789e+00,0.00000e+00,9.99999e-01,0.00000e+00,9.00278e-01,9.99999e-01
1.441245163e+00,0.00000e+00,9.99999e-01,0.00000e+00,9.02148e-01,9.99999e-01
1.448451389e+00,0.00000e+00,9.99999e-01,0.00000e+00,9.03985e-01,9.99999e-01
1.455693646e+00,0.00000e+00,9.99999e-01,0.00000e+00,9.05789e-01,9.99999e-01
1.462972114e+00,1.20437e-264,9.99999e-01,1.32704e-264,9.07561e-01,9.99999e-01
1.470286975e+00,3.21200e-110,9.99999e-01,3.53238e-110,9.09302e-01,9.99999e-01
