#,Wave/freq,Total,O2,CO2,Rayleigh,CIA
4.000000000e-01,3.96986e-03,9.99999e-01,9.99999e-01,3.96986e-03,9.99999e-01
4.020000000e-01,4.42848e-03,9.99999e-01,9.99999e-01,4.42848e-03,9.99999e-01
4.040100000e-01,4.92886e-03,9.99999e-01,9.99999e-01,4.92886e-03,9.99999e-01
4.060300500e-01,5.47420e-03,9.99999e-01,9.99999e-01,5.47420e-03,9.99999e-01
4.080602003e-01,6.06729e-03,9.99999e-01,9.99999e-01,6.06729e-03,9.99999e-01
4.101005013e-01,6.71098e-03,9.99999e-01,9.99999e-01,6.71098e-03,9.99999e-01
4.121510038e-01,7.40819e-03,9.99999e-01,9.99999e-01,7.40819e-03,9.99999e-01
4.142117588e-01,8.16189e-03,9.99999e-01,9.99999e-01,8.16189e-03,9.99999e-01
4.162828176e-01,8.97507e-03,9.99999e-01,9.99999e-01,8.97507e-03,9.99999e-01
4.183642317e-01,9.85078e-03,9.99999e-01,9.99999e-01,9.85078e-03,9.99999e-01
4.204560528e-01,1.07921e-02,9.99999e-01,9.99999e-01,1.07921e-02,9.99999e-01
4.225583331e-01,1.18020e-02,9.99999e-01,9.99999e-01,1.18020e-02,9.99999e-01
4.246711247e-01,1.28837e-02,9.99999e-01,9.99999e-01,1.28837e-02,9.99999e-01
4.267944804e-01,1.40401e-02,9.99999e-01,9.99999e-01,1.40401e-02,9.99999e-01
4.289284528e-01,1.52744e-02,9.99999e-01,9.99999e-01,1.52744e-02,9.99999e-01
4.310730950e-01,1.65896e-02,9.99999e-01,9.99999e-01,1.65896e-02,9.99999e-01
4.332284605e-01,1.79886e-02,9.99999e-01,9.99999e-01,1.79886e-02,9.99999e-01
4.353946028e-01,1.94745e-02,9.99999e-01,9.99999e-01,1.94745e-02,9.99999e-01
4.375715758e-01,2.10501e-02,9.99999e-01,9.99999e-01,2.10501e-02,9.99999e-01
4.397594337e-01,2.27182e-02,9.99999e-01,9.99999e-01,2.27182e-02,9.99999e-01
4.419582309e-01,2.44816e-02,9.99999e-01,9.99999e-01,2.44816e-02,9.99999e-01
4.441680220e-01,2.63429e-02,9.99999e-01,9.99999e-01,2.63429e-02,9.99999e-01
4.463888621e-01,2.83048e-02,9.99999e-01,9.99999e-01,2.83048e-02,9.99999e-01
4.486208064e-01,3.03696e-02,9.99999e-01,9.99999e-01,3.03696e-02,9.99999e-01
4.508639105e-01,3.25398e-02,9.99999e-01,9.99999e-01,3.25398e-02,9.99999e-01
4.531182300e-01,3.48176e-02,9.99999e-01,9.99999e-01,3.48176e-02,9.99999e-01
4.553838212e-01,3.72050e-02,9.99999e-01,9.99999e-01,3.72050e-02,9.99999e-01
4.576607403e-01,3.97041e-02,9.99999e-01,9.99999e-01,3.97041e-02,9.99999e-01
4.599490440e-01,4.23167e-02,9.99999e-01,9.99999e-01,4.23167e-02,9.99999e-01
4.622487892e-01,4.50445e-02,9.99999e-01,9.99999e-01,4.50445e-02,9.99999e-01
4.645600332e-01,4.78890e-02,9.99999e-01,9.99999e-01,4.78890e-02,9.99999e-01
4.668828333e-01,5.08516e-02,9.99999e-01,9.99999e-01,5.08516e-02,9.99999e-01
4.692172475e-01,5.39334e-02,9.99999e-01,9.99999e-01,5.39334e-02,9.99999e-01
4.715633337e-01,5.71356e-02,9.99999e-01,9.99999e-01,5.71356e-02,9.99999e-01
4.739211504e-01,6.04590e-02,9.99999e-01,9.99999e-01,6.04590e-02,9.99999e-01
4.762907561e-01,6.39043e-02,9.99999e-01,9.99999e-01,6.39043e-02,9.99999e-01
4.786722099e-01,6.74721e-02,9.99999e-01,9.99999e-01,6.74721e-02,9.99999e-01
4.810655710e-01,7.11626e-02,9.99999e-01,9.99999e-01,7.11626e-02,9.99999e-01
4.834708988e-01,7.49760e-02,9.99999e-01,9.99999e-01,7.49760e-02,9.99999e-01
4.858882533e-01,7.89125e-02,9.99999e-01,9.99999e-01,7.89125e-02,9.99999e-01
4.883176946e-01,8.29716e-02,9.99999e-01,9.99999e-01,8.29716e-02,9.99999e-01
4.907592831e-01,8.71532e-02,9.99999e-01,9.99999e-01,8.71532e-02,9.99999e-01
4.932130795e-01,9.14567e-02,9.99999e-01,9.99999e-01,9.14567e-02,9.99999e-01
4.956791449e-01,9.58813e-02,9.99999e-01,9.99999e-01,9.58813e-02,9.99999e-01
4.981575406e-01,1.00426e-01,9.99999e-01,9.99999e-01,1.00426e-01,9.99999e-01
5.006483283e-01,1.05090e-01,9.99999e-01,9.99999e-01,1.05090e-01,9.99999e-01
5.031515699e-01,1.09873e-01,9.99999e-01,9.99999e-01,1.09873e-01,9.99999e-01
5.056673278e-01,1.14772e-01,9.99999e-01,9.99999e-01,1.14772e-01,9.99999e-01
5.081956644e-01,1.19786e-01,9.99999e-01,9.99999e-01,1.19786e-01,9.99999e-01
5.107366428e-01,1.24913e-01,9.99999e-01,9.99999e-01,1.24913e-01,9.99999e-01
5.132903260e-01,1.30153e-01,9.99999e-01,9.99999e-01,1.30153e-01,9.99999e-01
5.158567776e-01,1.35502e-01,9.99999e-01,9.99999e-01,1.35502e-01,9.99999e-01
5.184360615e-01,1.40958e-01,9.99999e-01,9.99999e-01,1.40958e-01,9.99999e-01
5.210282418e-01,1.46521e-01,9.99999e-01,9.99999e-01,1.46521e-01,9.99999e-01
5.236333830e-01,1.52186e-01,9.99999e-01,9.99999e-01,1.52186e-01,9.99999e-01
5.262515499e-01,1.57952e-01,9.99999e-01,9.99999e-01,1.57952e-01,9.99999e-01
5.288828077e-01,1.63816e-01,9.99999e-01,9.99999e-01,1.63816e-01,9.99999e-01
5.315272217e-01,1.69775e-01,9.99999e-01,9.99999e-01,1.69775e-01,9.99999e-01
5.341848578e-01,1.75827e-01,9.99999e-01,9.99999e-01,1.75827e-01,9.99999e-01
5.368557821e-01,1.81969e-01,9.99999e-01,9.99999e-01,1.81969e-01,9.99999e-01
5.395400610e-01,1.88198e-01,9.99999e-01,9.99999e-01,1.88198e-01,9.99999e-01
5.422377613e-01,1.94510e-01,9.99999e-01,9.99999e-01,1.94510e-01,9.99999e-01
5.449489501e-01,2.00903e-01,9.99999e-01,9.99999e-01,2.00903e-01,9.99999e-01
5.476736949e-01,2.07374e-01,9.99999e-01,9.99999e-01,2.07374e-01,9.99999e-01
5.504120634e-01,2.13920e-01,9.99999e-01,9.99999e-01,2.13920e-01,9.99999e-01
5.531641237e-01,2.20536e-01,9.99999e-01,9.99999e-01,2.20536e-01,9.99999e-01
5.559299443e-01,2.27221e-01,9.99999e-01,9.99999e-01,2.27221e-01,9.99999e-01
5.587095940e-01,2.33970e-01,9.99999e-01,9.99999e-01,2.33970e-01,9.99999e-01
5.615031420e-01,2.40780e-01,9.99999e-01,9.99999e-01,2.40780e-01,9.99999e-01
5.643106577e-01,2.47648e-01,9.99999e-01,9.99999e-01,2.47648e-01,9.99999e-01
5.671322110e-01,2.54571e-01,9.99999e-01,9.99999e-01,2.54571e-01,9.99999e-01
5.699678720e-01,2.61544e-01,9.99999e-01,9.99999e-01,2.61544e-01,9.99999e-01
5.728177114e-01,2.68565e-01,9.99999e-01,9.99999e-01,2.68565e-01,9.99999e-01
5.756818000e-01,2.75631e-01,9.99999e-01,9.99999e-01,2.75631e-01,9.99999e-01
5.785602090e-01,2.82737e-01,9.99999e-01,9.99999e-01,2.82737e-01,9.99999e-01
5.814530100e-01,2.89880e-01,9.99999e-01,9.99999e-01,2.89880e-01,9.99999e-01
5.843602750e-01,2.97058e-01,9.99999e-01,9.99999e-01,2.97058e-01,9.99999e-01
5.872820764e-01,3.04267e-01,9.99999e-01,9.99999e-01,3.04267e-01,9.99999e-01
5.902184868e-01,3.11502e-01,9.99999e-01,9.99999e-01,3.11502e-01,9.99999e-01
5.931695792e-01,3.18762e-01,9.99999e-01,9.99999e-01,3.18762e-01,9.99999e-01
5.961354271e-01,3.26043e-01,9.99999e-01,9.99999e-01,3.26043e-01,9.99999e-01
5.991161043e-01,3.33341e-01,9.99999e-01,9.99999e-01,3.33341e-01,9.99999e-01
6.021116848e-01,3.40653e-01,9.99999e-01,9.99999e-01,3.40653e-01,9.99999e-01
6.051222432e-01,3.47977e-01,9.99999e-01,9.99999e-01,3.47977e-01,9.99999e-01
6.081478544e-01,3.55309e-01,9.99999e-01,9.99999e-01,3.55309e-01,9.99999e-01
6.111885937e-01,3.62646e-01,9.99999e-01,9.99999e-01,3.62646e-01,9.99999e-01
6.142445367e-01,3.69985e-01,9.99999e-01,9.99999e-01,3.69985e-01,9.99999e-01
6.173157594e-01,3.77323e-01,9.99999e-01,9.99999e-01,3.77323e-01,9.99999e-01
6.204023382e-01,3.84658e-01,9.99999e-01,9.99999e-01,3.84658e-01,9.99999e-01
6.235043498e-01,3.91986e-01,9.99999e-01,9.99999e-01,3.91986e-01,9.99999e-01
6.266218716e-01,3.99304e-01,9.99999e-01,9.99999e-01,3.99304e-01,9.99999e-01
6.297549810e-01,4.06611e-01,9.99999e-01,9.99999e-01,4.06611e-01,9.99999e-01
6.329037559e-01,4.13903e-01,9.99999e-01,9.99999e-01,4.13903e-01,9.99999e-01
6.360682746e-01,4.21178e-01,9.99999e-01,9.99999e-01,4.21178e-01,9.99999e-01
6.392486160e-01,4.28434e-01,9.99999e-01,9.99999e-01,4.28434e-01,9.99999e-01
6.424448591e-01,4.35667e-01,9.99999e-01,9.99999e-01,4.35667e-01,9.99999e-01
6.456570834e-01,4.42876e-01,9.99999e-01,9.99999e-01,4.42876e-01,9.99999e-01
6.488853688e-01,4.50059e-01,9.99999e-01,9.99999e-01,4.50059e-01,9.99999e-01
6.521297956e-01,4.57213e-01,9.99999e-01,9.99999e-01,4.57213e-01,9.99999e-01
6.553904446e-01,4.64335e-01,9.99999e-01,9.99999e-01,4.64335e-01,9.99999e-01
6.586673968e-01,4.71425e-01,9.99999e-01,9.99999e-01,4.71425e-01,9.99999e-01
6.619607338e-01,4.78480e-01,9.99999e-01,9.99999e-01,4.78480e-01,9.99999e-01
6.652705375e-01,4.85497e-01,9.99999e-01,9.99999e-01,4.85497e-01,9.99999e-01
6.685968902e-01,4.92476e-01,9.99999e-01,9.99999e-01,4.92476e-01,9.99999e-01
6.719398746e-01,4.99415e-01,9.99999e-01,9.99999e-01,4.99415e-01,9.99999e-01
6.752995740e-01,5.06311e-01,9.99999e-01,9.99999e-01,5.06311e-01,9.99999e-01
6.786760719e-01,5.13164e-01,9.99999e-01,9.99999e-01,5.13164e-01,9.99999e-01
6.820694522e-01,5.19971e-01,9.99999e-01,9.99999e-01,5.19971e-01,9.99999e-01
6.854797995e-01,5.26732e-01,9.99999e-01,9.99999e-01,5.26732e-01,9.99999e-01
6.889071985e-01,5.33444e-01,9.99999e-01,9.99999e-01,5.33444e-01,9.99999e-01
6.923517345e-01,5.40107e-01,9.99999e-01,9.99999e-01,5.40107e-01,9.99999e-01
6.958134932e-01,5.46718e-01,9.99999e-01,9.99999e-01,5.46718e-01,9.99999e-01
6.992925606e-01,5.53278e-01,9.99999e-01,9.99999e-01,5.53278e-01,9.99999e-01
7.027890234e-01,5.59785e-01,9.99999e-01,9.99999e-01,5.59785e-01,9.99999e-01
7.063029686e-01,5.66237e-01,9.99999e-01,9.99999e-01,5.66237e-01,9.99999e-01
7.098344834e-01,5.72634e-01,9.99999e-01,9.99999e-01,5.72634e-01,9.99999e-01
7.133836558e-01,5.78975e-01,9.99999e-01,9.99999e-01,5.78975e-01,9.99999e-01
7.169505741e-01,5.85258e-01,9.99999e-01,9.99999e-01,5.85258e-01,9.99999e-01
7.205353270e-01,5.91484e-01,9.99999e-01,9.99999e-01,5.91484e-01,9.99999e-01
7.241380036e-01,5.97651e-01,9.99999e-01,9.99999e-01,5.97651e-01,9.99999e-01
7.277586936e-01,6.03759e-01,9.99999e-01,9.99999e-01,6.03759e-01,9.99999e-01
7.313974871e-01,6.09806e-01,9.99999e-01,9.99999e-01,6.09806e-01,9.99999e-01
7.350544745e-01,6.15793e-01,9.99999e-01,9.99999e-01,6.15793e-01,9.99999e-01
7.387297469e-01,6.21719e-01,9.99999e-01,9.99999e-01,6.21719e-01,9.99999e-01
7.424233956e-01,6.27583e-01,9.99999e-01,9.99999e-01,6.27583e-01,9.99999e-01
7.461355126e-01,6.33385e-01,9.99999e-01,9.99999e-01,6.33385e-01,9.99999e-01
7.498661902e-01,6.39124e-01,9.99999e-01,9.99999e-01,6.39124e-01,9.99999e-01
7.536155211e-01,6.44800e-01,9.99999e-01,9.99999e-01,6.44800e-01,9.99999e-01
7.573835987e-01,6.50414e-01,9.99999e-01,9.99999e-01,6.50414e-01,9.99999e-01
7.611705167e-01,6.55963e-01,9.99999e-01,9.99999e-01,6.55963e-01,9.99999e-01
7.649763693e-01,6.61449e-01,9.99999e-01,9.99999e-01,6.61449e-01,9.99999e-01
7.688012511e-01,6.66872e-01,9.99999e-01,9.99999e-01,6.66872e-01,9.99999e-01
7.726452574e-01,6.72230e-01,9.99999e-01,9.99999e-01,6.72230e-01,9.99999e-01
7.765084837e-01,6.77524e-01,9.99999e-01,9.99999e-01,6.77524e-01,9.99999e-01
7.803910261e-01,6.70079e-01,9.99999e-01,9.81435e-01,6.82754e-01,9.99999e-01
7.842929812e-01,6.33712e-01,9.99999e-01,9.21200e-01,6.87920e-01,9.99999e-01
7.882144461e-01,6.34703e-01,9.99999e-01,9.15847e-01,6.93022e-01,9.99999e-01
7.921555184e-01,6.63665e-01,9.99999e-01,9.50727e-01,6.98060e-01,9.99999e-01
7.961162960e-01,6.79632e-01,9.99999e-01,9.66712e-01,7.03034e-01,9.99999e-01
8.000968774e-01,6.95090e-01,9.99999e-01,9.81842e-01,7.07944e-01,9.99999e-01
8.040973618e-01,7.06048e-01,9.99999e-01,9.90540e-01,7.12790e-01,9.99999e-01
8.081178486e-01,7.14457e-01,9.99999e-01,9.95656e-01,7.17573e-01,9.99999e-01
8.121584379e-01,7.21319e-01,9.99999e-01,9.98651e-01,7.22292e-01,9.99999e-01
8.162192301e-01,7.26732e-01,9.99999e-01,9.99701e-01,7.26949e-01,9.99999e-01
8.203003262e-01,7.31539e-01,9.99999e-01,9.99994e-01,7.31542e-01,9.99999e-01
8.244018279e-01,7.36073e-01,9.99999e-01,9.99999e-01,7.36073e-01,9.99999e-01
8.285238370e-01,7.40542e-01,9.99999e-01,9.99999e-01,7.40542e-01,9.99999e-01
8.326664562e-01,7.44949e-01,9.99999e-01,9.99999e-01,7.44949e-01,9.99999e-01
8.368297885e-01,7.49294e-01,9.99999e-01,9.99999e-01,7.49294e-01,9.99999e-01
8.410139374e-01,7.53578e-01,9.99999e-01,9.99999e-01,7.53578e-01,9.99999e-01
8.452190071e-01,7.57801e-01,9.99999e-01,9.99999e-01,7.57801e-01,9.99999e-01
8.494451021e-01,7.61964e-01,9.99999e-01,9.99999e-01,7.61964e-01,9.99999e-01
8.536923276e-01,7.66066e-01,9.99999e-01,9.99999e-01,7.66066e-01,9.99999e-01
8.579607893e-01,7.70109e-01,9.99999e-01,9.99999e-01,7.70109e-01,9.99999e-01
8.622505932e-01,7.74093e-01,9.99999e-01,9.99999e-01,7.74093e-01,9.99999e-01
8.665618462e-01,7.40397e-01,9.99999e-01,9.51643e-01,7.78018e-01,9.99999e-01
8.708946554e-01,6.33219e-01,9.99999e-01,8.09861e-01,7.81885e-01,9.99999e-01
8.752491287e-01,6.64047e-01,9.99999e-01,8.45171e-01,7.85694e-01,9.99999e-01
8.796253743e-01,7.20374e-01,9.99999e-01,9.12505e-01,7.89446e-01,9.99999e-01
8.840235012e-01,7.56543e-01,9.99999e-01,9.53855e-01,7.93142e-01,9.99999e-01
8.884436187e-01,7.82083e-01,9.99999e-01,9.81553e-01,7.96781e-01,9.99999e-01
8.928858368e-01,7.94364e-01,9.99999e-01,9.92502e-01,8.00364e-01,9.99999e-01
8.973502660e-01,8.02421e-01,9.99999e-01,9.98169e-01,8.03892e-01,9.99999e-01
9.018370173e-01,8.07203e-01,9.99999e-01,9.99797e-01,8.07366e-01,9.99999e-01
9.063462024e-01,8.06635e-01,9.99999e-01,9.94880e-01,8.10786e-01,9.99999e-01
9.108779334e-01,8.04545e-01,9.99999e-01,9.88199e-01,8.14152e-01,9.99999e-01
9.154323231e-01,8.15182e-01,9.99999e-01,9.97206e-01,8.17465e-01,9.99999e-01
9.200094847e-01,7.87370e-01,9.99999e-01,9.59357e-01,8.20726e-01,9.99999e-01
9.246095321e-01,7.77374e-01,9.99999e-01,9.43489e-01,8.23935e-01,9.99999e-01
9.292325798e-01,7.90249e-01,9.99999e-01,9.55453e-01,8.27093e-01,9.99999e-01
9.338787427e-01,7.94362e-01,9.99999e-01,9.56831e-01,8.30200e-01,9.99999e-01
9.385481364e-01,8.06734e-01,9.99999e-01,9.68168e-01,8.33257e-01,9.99999e-01
9.432408771e-01,8.19867e-01,9.99999e-01,9.80390e-01,8.36265e-01,9.99999e-01
9.479570815e-01,8.30754e-01,9.99999e-01,9.89907e-01,8.39224e-01,9.99999e-01
9.526968669e-01,8.38022e-01,9.99999e-01,9.95116e-01,8.42134e-01,9.99999e-01
9.574603512e-01,8.43231e-01,9.99999e-01,9.97909e-01,8.44997e-01,9.99999e-01
9.622476530e-01,8.47260e-01,9.99999e-01,9.99347e-01,8.47813e-01,9.99999e-01
9.670588912e-01,8.50416e-01,9.99999e-01,9.99803e-01,8.50582e-01,9.99999e-01
9.718941857e-01,8.53294e-01,9.99999e-01,9.99985e-01,8.53306e-01,9.99999e-01
9.767536566e-01,8.55984e-01,9.99999e-01,9.99999e-01,8.55984e-01,9.99999e-01
9.816374249e-01,8.58617e-01,9.99999e-01,9.99999e-01,8.58617e-01,9.99999e-01
9.865456120e-01,8.61206e-01,9.99999e-01,9.99999e-01,8.61206e-01,9.99999e-01
9.914783401e-01,8.63751e-01,9.99999e-01,9.99999e-01,8.63751e-01,9.99999e-01
9.964357318e-01,8.66254e-01,9.99999e-01,9.99999e-01,8.66254e-01,9.99999e-01
1.001417910e+00,8.68714e-01,9.99999e-01,9.99999e-01,8.68714e-01,9.99999e-01
1.006425000e+00,8.71133e-01,9.99999e-01,9.99999e-01,8.71133e-01,9.99999e-01
1.011457125e+00,8.73510e-01,9.99999e-01,9.99999e-01,8.73510e-01,9.99999e-01
1.016514411e+00,8.75846e-01,9.99999e-01,9.99999e-01,8.75846e-01,9.99999e-01
1.021596983e+00,8.78120e-01,9.99999e-01,9.99973e-01,8.78143e-01,9.99999e-01
1.026704968e+00,8.78649e-01,9.99999e-01,9.98011e-01,8.80399e-01,9.99999e-01
1.031838492e+00,8.58322e-01,9.99999e-01,9.72472e-01,8.82617e-01,9.99999e-01
1.036997685e+00,2.35279e-01,9.99999e-01,2.65913e-01,8.84797e-01,9.99999e-01
1.042182673e+00,2.71907e-01,9.99999e-01,3.06567e-01,8.86939e-01,9.99999e-01
1.047393587e+00,2.59982e-01,9.99999e-01,2.92428e-01,8.89043e-01,9.99999e-01
1.052630555e+00,3.26407e-02,9.99999e-01,3.66292e-02,8.91111e-01,9.99999e-01
1.057893707e+00,6.34191e-02,9.99999e-01,7.10066e-02,8.93142e-01,9.99999e-01
1.063183176e+00,1.31295e-01,9.99999e-01,1.46675e-01,8.95138e-01,9.99999e-01
1.068499092e+00,2.47944e-01,9.99999e-01,2.76384e-01,8.97099e-01,9.99999e-01
1.073841587e+00,3.99073e-01,9.99999e-01,4.43895e-01,8.99025e-01,9.99999e-01
1.079210795e+00,5.39716e-01,9.99999e-01,5.99074e-01,9.00917e-01,9.99999e-01
1.084606849e+00,6.82259e-01,9.99999e-01,7.55734e-01,9.02776e-01,9.99999e-01
1.090029883e+00,7.82549e-01,9.99999e-01,8.65075e-01,9.04602e-01,9.99999e-01
1.095480033e+00,8.43937e-01,9.99999e-01,9.31091e-01,9.06395e-01,9.99999e-01
1.100957433e+00,8.77496e-01,9.99999e-01,9.66238e-01,9.08156e-01,9.99999e-01
1.106462220e+00,8.97053e-01,9.99999e-01,9.85896e-01,9.09886e-01,9.99999e-01
1.111994531e+00,9.06800e-01,9.99999e-01,9.94751e-01,9.11585e-01,9.99999e-01
1.117554504e+00,9.12079e-01,9.99999e-01,9.98713e-01,9.13253e-01,9.99999e-01
1.123142276e+00,9.14814e-01,9.99999e-01,9.99914e-01,9.14891e-01,9.99999e-01
1.128757988e+00,9.16500e-01,9.99999e-01,9.99999e-01,9.16500e-01,9.99999e-01
1.134401778e+00,9.18080e-01,9.99999e-01,9.99999e-01,9.18080e-01,9.99999e-01
1.140073787e+00,9.19631e-01,9.99999e-01,9.99999e-01,9.19631e-01,9.99999e-01
1.145774156e+00,9.21155e-01,9.99999e-01,9.99999e-01,9.21155e-01,9.99999e-01
1.151503026e+00,9.22650e-01,9.99999e-01,9.99999e-01,9.22650e-01,9.99999e-01
1.157260541e+00,9.24118e-01,9.99999e-01,9.99999e-01,9.24118e-01,9.99999e-01
1.163046844e+00,9.25560e-01,9.99999e-01,9.99999e-01,9.25560e-01,9.99999e-01
1.168862078e+00,9.26975e-01,9.99999e-01,9.99999e-01,9.26975e-01,9.99999e-01
1.174706389e+00,9.28365e-01,9.99999e-01,9.99999e-01,9.28365e-01,9.99999e-01
1.180579921e+00,9.29729e-01,9.99999e-01,9.99999e-01,9.29729e-01,9.99999e-01
1.186482820e+00,9.31065e-01,9.99999e-01,9.99996e-01,9.31068e-01,9.99999e-01
1.192415234e+00,9.25744e-01,9.99999e-01,9.92879e-01,9.32382e-01,9.99999e-01
1.198377311e+00,5.43365e-01,9.99999e-01,5.81965e-01,9.33672e-01,9.99999e-01
1.204369197e+00,4.82760e-07,9.99999e-01,5.16354e-07,9.34939e-01,9.99999e-01
1.210391043e+00,7.59200e-23,9.99999e-01,8.10952e-23,9.36182e-01,9.99999e-01
1.216442998e+00,5.11090e-20,9.99999e-01,5.45219e-20,9.37402e-01,9.99999e-01
1.222525213e+00,9.85095e-20,9.99999e-01,1.04954e-19,9.38600e-01,9.99999e-01
1.228637839e+00,3.34465e-15,9.99999e-01,3.55898e-15,9.39776e-01,9.99999e-01
1.234781029e+00,1.96935e-10,9.99999e-01,2.09298e-10,9.40929e-01,9.99999e-01
1.240954934e+00,4.25890e-07,9.99999e-01,4.52082e-07,9.42062e-01,9.99999e-01
1.247159708e+00,2.70361e-04,9.99999e-01,2.86650e-04,9.43173e-01,9.99999e-01
1.253395507e+00,1.01351e-02,9.99999e-01,1.07333e-02,9.44263e-01,9.99999e-01
1.259662485e+00,7.17975e-02,9.99999e-01,7.59493e-02,9.45334e-01,9.99999e-01
1.265960797e+00,2.11807e-01,9.99999e-01,2.23807e-01,9.46384e-01,9.99999e-01
1.272290601e+00,4.87502e-01,9.99999e-01,5.14560e-01,9.47415e-01,9.99999e-01
1.278652054e+00,4.52945e-01,9.99999e-01,4.77575e-01,9.48426e-01,9.99999e-01
1.285045314e+00,3.27125e-02,9.99999e-01,3.44553e-02,9.49419e-01,9.99999e-01
1.291470541e+00,2.24808e-03,9.99999e-01,2.36542e-03,9.50392e-01,9.99999e-01
1.297927893e+00,3.34990e-02,9.99999e-01,3.52121e-02,9.51348e-01,9.99999e-01
1.304417533e+00,3.12155e-01,9.99999e-01,3.27795e-01,9.52286e-01,9.99999e-01
1.310939621e+00,8.76991e-02,9.99999e-01,9.20043e-02,9.53206e-01,9.99999e-01
1.317494319e+00,2.66421e-08,9.99999e-01,2.79236e-08,9.54108e-01,9.99999e-01
1.324081790e+00,4.35210e-06,9.99999e-01,4.55719e-06,9.54994e-01,9.99999e-01
1.330702199e+00,1.34289e-03,9.99999e-01,1.40490e-03,9.55863e-01,9.99999e-01
1.337355710e+00,9.96809e-04,9.99999e-01,1.04191e-03,9.56716e-01,9.99999e-01
1.344042489e+00,3.32501e-04,9.99999e-01,3.47240e-04,9.57552e-01,9.99999e-01
1.350762701e+00,1.00128e-03,9.99999e-01,1.04477e-03,9.58373e-01,9.99999e-01
1.357516515e+00,1.05074e-02,9.99999e-01,1.09546e-02,9.59178e-01,9.99999e-01
1.364304097e+00,5.72781e-02,9.99999e-01,5.96666e-02,9.59968e-01,9.99999e-01
1.371125618e+00,2.16471e-01,9.99999e-01,2.25316e-01,9.60743e-01,9.99999e-01
1.377981246e+00,2.92184e-01,9.99999e-01,3.03882e-01,9.61504e-01,9.99999e-01
1.384871152e+00,4.80857e-01,9.99999e-01,4.99721e-01,9.62249e-01,9.99999e-01
1.391795508e+00,5.07442e-01,9.99999e-01,5.26948e-01,9.62981e-01,9.99999e-01
1.398754485e+00,6.49985e-01,9.99999e-01,6.74468e-01,9.63699e-01,9.99999e-01
1.405748258e+00,7.21034e-01,9.99999e-01,7.47648e-01,9.64403e-01,9.99999e-01
1.412776999e+00,8.03384e-01,9.99999e-01,8.32441e-01,9.65094e-01,9.99999e-01
1.419840884e+00,7.43349e-01,9.99999e-01,7.69694e-01,9.65771e-01,9.99999e-01
1.426940089e+00,9.64492e-02,9.99999e-01,9.97988e-02,9.66436e-01,9.99999e-01
1.434074789e+00,0.00000e+00,9.99999e-01,0.00000e+00,9.67088e-01,9.99999e-01
1.441245163e+00,0.00000e+00,9.99999e-01,0.00000e+00,9.67727e-01,9.99999e-01
1.448451389e+00,0.00000e+00,9.99999e-01,0.00000e+00,9.68354e-01,9.99999e-01
1.455693646e+00,4.50773e-176,9.99999e-01,4.65208e-176,9.68970e-01,9.99999e-01
1.462972114e+00,7.48108e-86,9.99999e-01,7.71584e-86,9.69573e-01,9.99999e-01
1.470286975e+00,1.19388e-36,9.99999e-01,1.23059e-36,9.70165e-01,9.99999e-01
