#,Wave/freq,Total,O2,CO2,Rayleigh,CIA
4.000000000e-01,2.27105e-21,9.99999e-01,9.99999e-01,2.27105e-21,9.99999e-01
4.020000000e-01,5.81309e-21,9.99999e-01,9.99999e-01,5.81309e-21,9.99999e-01
4.040100000e-01,1.45918e-20,9.99999e-01,9.99999e-01,1.45918e-20,9.99999e-01
4.060300500e-01,3.59682e-20,9.99999e-01,9.99999e-01,3.59682e-20,9.99999e-01
4.080602003e-01,8.70937e-20,9.99999e-01,9.99999e-01,8.70937e-20,9.99999e-01
4.101005013e-01,2.07238e-19,9.99999e-01,9.99999e-01,2.07238e-19,9.99999e-01
4.121510038e-01,4.84747e-19,9.99999e-01,9.99999e-01,4.84747e-19,9.99999e-01
4.142117588e-01,1.11499e-18,9.99999e-01,9.99999e-01,1.11499e-18,9.99999e-01
4.162828176e-01,2.52280e-18,9.99999e-01,9.99999e-01,2.52280e-18,9.99999e-01
4.183642317e-01,5.61680e-18,9.99999e-01,9.99999e-01,5.61680e-18,9.99999e-01
4.204560528e-01,1.23092e-17,9.99999e-01,9.99999e-01,1.23092e-17,9.99999e-01
4.225583331e-01,2.65607e-17,9.99999e-01,9.99999e-01,2.65607e-17,9.99999e-01
4.246711247e-01,5.64484e-17,9.99999e-01,9.99999e-01,5.64484e-17,9.99999e-01
4.267944804e-01,1.18194e-16,9.99999e-01,9.99999e-01,1.18194e-16,9.99999e-01
4.289284528e-01,2.43895e-16,9.99999e-01,9.99999e-01,2.43895e-16,9.99999e-01
4.310730950e-01,4.96128e-16,9.99999e-01,9.99999e-01,4.96128e-16,9.99999e-01
4.332284605e-01,9.95162e-16,9.99999e-01,9.99999e-01,9.95162e-16,9.99999e-01
4.353946028e-01,1.96890e-15,9.99999e-01,9.99999e-01,1.96890e-15,9.99999e-01
4.375715758e-01,3.84325e-15,9.99999e-01,9.99999e-01,3.84325e-15,9.99999e-01
4.397594337e-01,7.40348e-15,9.99999e-01,9.99999e-01,7.40348e-15,9.99999e-01
4.419582309e-01,1.40783e-14,9.99999e-01,9.99999e-01,1.40783e-14,9.99999e-01
4.441680220e-01,2.64332e-14,9.99999e-01,9.99999e-01,2.64332e-14,9.99999e-01
4.463888621e-01,4.90170e-14,9.99999e-01,9.99999e-01,4.90170e-14,9.99999e-01
4.486208064e-01,8.97935e-14,9.99999e-01,9.99999e-01,8.97935e-14,9.99999e-01
4.508639105e-01,1.62536e-13,9.99999e-01,9.99999e-01,1.62536e-13,9.99999e-01
4.531182300e-01,2.90781e-13,9.99999e-01,9.99999e-01,2.90781e-13,9.99999e-01
4.553838212e-01,5.14271e-13,9.99999e-01,9.99999e-01,5.14271e-13,9.99999e-01
4.576607403e-01,8.99345e-13,9.99999e-01,9.99999e-01,8.99345e-13,9.99999e-01
4.599490440e-01,1.55549e-12,9.99999e-01,9.99999e-01,1.55549e-12,9.99999e-01
4.622487892e-01,2.66137e-12,9.99999e-01,9.99999e-01,2.66137e-12,9.99999e-01
4.645600332e-01,4.50546e-12,9.99999e-01,9.99999e-01,4.50546e-12,9.99999e-01
4.668828333e-01,7.54841e-12,9.99999e-01,9.99999e-01,7.54841e-12,9.99999e-01
4.692172475e-01,1.25183e-11,9.99999e-01,9.99999e-01,1.25183e-11,9.99999e-01
4.715633337e-01,2.05540e-11,9.99999e-01,9.99999e-01,2.05540e-11,9.99999e-01
4.739211504e-01,3.34189e-11,9.99999e-01,9.99999e-01,3.34189e-11,9.99999e-01
4.762907561e-01,5.38170e-11,9.99999e-01,9.99999e-01,5.38170e-11,9.99999e-01
4.786722099e-01,8.58538e-11,9.99999e-01,9.99999e-01,8.58538e-11,9.99999e-01
4.810655710e-01,1.35704e-10,9.99999e-01,9.99999e-01,1.35704e-10,9.99999e-01
4.834708988e-01,2.12568e-10,9.99999e-01,9.99999e-01,2.12568e-10,9.99999e-01
4.858882533e-01,3.30031e-10,9.99999e-01,9.99999e-01,3.30031e-10,9.99999e-01
4.883176946e-01,5.07968e-10,9.99999e-01,9.99999e-01,5.07968e-10,9.99999e-01
4.907592831e-01,7.75210e-10,9.99999e-01,9.99999e-01,7.75210e-10,9.99999e-01
4.932130795e-01,1.17321e-09,9.99999e-01,9.99999e-01,1.17321e-09,9.99999e-01
4.956791449e-01,1.76107e-09,9.99999e-01,9.99999e-01,1.76107e-09,9.99999e-01
4.981575406e-01,2.62238e-09,9.99999e-01,9.99999e-01,2.62238e-09,9.99999e-01
5.006483283e-01,3.87434e-09,9.99999e-01,9.99999e-01,3.87434e-09,9.99999e-01
5.031515699e-01,5.68004e-09,9.99999e-01,9.99999e-01,5.68004e-09,9.99999e-01
5.056673278e-01,8.26463e-09,9.99999e-01,9.99999e-01,8.26463e-09,9.99999e-01
5.081956644e-01,1.19365e-08,9.99999e-01,9.99999e-01,1.19365e-08,9.99999e-01
5.107366428e-01,1.71151e-08,9.99999e-01,9.99999e-01,1.71151e-08,9.99999e-01
5.132903260e-01,2.43663e-08,9.99999e-01,9.99999e-01,2.43663e-08,9.99999e-01
5.158567776e-01,3.44484e-08,9.99999e-01,9.99999e-01,3.44484e-08,9.99999e-01
5.184360615e-01,4.83703e-08,9.99999e-01,9.99999e-01,4.83703e-08,9.99999e-01
5.210282418e-01,6.74646e-08,9.99999e-01,9.99999e-01,6.74646e-08,9.99999e-01
5.236333830e-01,9.34802e-08,9.99999e-01,9.99999e-01,9.34802e-08,9.99999e-01
5.262515499e-01,1.28696e-07,9.99999e-01,9.99999e-01,1.28696e-07,9.99999e-01
5.288828077e-01,1.76063e-07,9.99999e-01,9.99999e-01,1.76063e-07,9.99999e-01
5.315272217e-01,2.39378e-07,9.99999e-01,9.99999e-01,2.39378e-07,9.99999e-01
5.341848578e-01,3.23492e-07,9.99999e-01,9.99999e-01,3.23492e-07,9.99999e-01
5.368557821e-01,4.34569e-07,9.99999e-01,9.99999e-01,4.34569e-07,9.99999e-01
5.395400610e-01,5.80394e-07,9.99999e-01,9.99999e-01,5.80394e-07,9.99999e-01
5.422377613e-01,7.70735e-07,9.99999e-01,9.99999e-01,7.70735e-07,9.99999e-01
5.449489501e-01,1.01778e-06,9.99999e-01,9.99999e-01,1.01778e-06,9.99999e-01
5.476736949e-01,1.33665e-06,9.99999e-01,9.99999e-01,1.33665e-06,9.99999e-01
5.504120634e-01,1.74600e-06,9.99999e-01,9.99999e-01,1.74600e-06,9.99999e-01
5.531641237e-01,2.26870e-06,9.99999e-01,9.99999e-01,2.26870e-06,9.99999e-01
5.559299443e-01,2.93268e-06,9.99999e-01,9.99999e-01,2.93268e-06,9.99999e-01
5.587095940e-01,3.77181e-06,9.99999e-01,9.99999e-01,3.77181e-06,9.99999e-01
5.615031420e-01,4.82699e-06,9.99999e-01,9.99999e-01,4.82699e-06,9.99999e-01
5.643106577e-01,6.14734e-06,9.99999e-01,9.99999e-01,6.14734e-06,9.99999e-01
5.671322110e-01,7.79154e-06,9.99999e-01,9.99999e-01,7.79154e-06,9.99999e-01
5.699678720e-01,9.82939e-06,9.99999e-01,9.99999e-01,9.82939e-06,9.99999e-01
5.728177114e-01,1.23434e-05,9.99999e-01,9.99999e-01,1.23434e-05,9.99999e-01
5.756818000e-01,1.54310e-05,9.99999e-01,9.99999e-01,1.54310e-05,9.99999e-01
5.785602090e-01,1.92059e-05,9.99999e-01,9.99999e-01,1.92059e-05,9.99999e-01
5.814530100e-01,2.38011e-05,9.99999e-01,9.99999e-01,2.38011e-05,9.99999e-01
5.843602750e-01,2.93712e-05,9.99999e-01,9.99999e-01,2.93712e-05,9.99999e-01
5.872820764e-01,3.60945e-05,9.99999e-01,9.99999e-01,3.60945e-05,9.99999e-01
5.902184868e-01,4.41766e-05,9.99999e-01,9.99999e-01,4.41766e-05,9.99999e-01
5.931695792e-01,5.38531e-05,9.99999e-01,9.99999e-01,5.38531e-05,9.99999e-01
5.961354271e-01,6.53928e-05,9.99999e-01,9.99999e-01,6.53928e-05,9.99999e-01
5.991161043e-01,7.91013e-05,9.99999e-01,9.99999e-01,7.91013e-05,9.99999e-01
6.021116848e-01,9.53245e-05,9.99999e-01,9.99999e-01,9.53245e-05,9.99999e-01
6.051222432e-01,1.14453e-04,9.99999e-01,9.99999e-01,1.14453e-04,9.99999e-01
6.081478544e-01,1.36923e-04,9.99999e-01,9.99999e-01,1.36923e-04,9.99999e-01
6.111885937e-01,1.63227e-04,9.99999e-01,9.99999e-01,1.63227e-04,9.99999e-01
6.142445367e-01,1.93909e-04,9.99999e-01,9.99999e-01,1.93909e-04,9.99999e-01
6.173157594e-01,2.29576e-04,9.99999e-01,9.99999e-01,2.29576e-04,9.99999e-01
6.204023382e-01,2.70899e-04,9.99999e-01,9.99999e-01,2.70899e-04,9.99999e-01
6.235043498e-01,3.18617e-04,9.99999e-01,9.99999e-01,3.18617e-04,9.99999e-01
6.266218716e-01,3.73541e-04,9.99999e-01,9.99999e-01,3.73541e-04,9.99999e-01
6.297549810e-01,4.36559e-04,9.99999e-01,9.99999e-01,4.36559e-04,9.99999e-01
6.329037559e-01,5.08640e-04,9.99999e-01,9.99999e-01,5.08640e-04,9.99999e-01
6.360682746e-01,5.90836e-04,9.99999e-01,9.99999e-01,5.90836e-04,9.99999e-01
6.392486160e-01,6.84287e-04,9.99999e-01,9.99999e-01,6.84287e-04,9.99999e-01
6.424448591e-01,7.90224e-04,9.99999e-01,9.99999e-01,7.90224e-04,9.99999e-01
6.456570834e-01,9.09971e-04,9.99999e-01,9.99999e-01,9.09971e-04,9.99999e-01
6.488853688e-01,1.04495e-03,9.99999e-01,9.99999e-01,1.04495e-03,9.99999e-01
6.521297956e-01,1.19667e-03,9.99999e-01,9.99999e-01,1.19667e-03,9.99999e-01
6.553904446e-01,1.36676e-03,9.99999e-01,9.99999e-01,1.36676e-03,9.99999e-01
6.586673968e-01,1.55693e-03,9.99999e-01,9.99999e-01,1.55693e-03,9.99999e-01
6.619607338e-01,1.76900e-03,9.99999e-01,9.99999e-01,1.76900e-03,9.99999e-01
6.652705375e-01,2.00490e-03,9.99999e-01,9.99999e-01,2.00490e-03,9.99999e-01
6.685968902e-01,2.26664e-03,9.99999e-01,9.99999e-01,2.26664e-03,9.99999e-01
6.719398746e-01,2.55635e-03,9.99999e-01,9.99999e-01,2.55635e-03,9.99999e-01
6.752995740e-01,2.87625e-03,9.99999e-01,9.99999e-01,2.87625e-03,9.99999e-01
6.786760719e-01,3.22865e-03,9.99999e-01,9.99999e-01,3.22865e-03,9.99999e-01
6.820694522e-01,3.61596e-03,9.99999e-01,9.99999e-01,3.61596e-03,9.99999e-01
6.854797995e-01,4.04069e-03,9.99999e-01,9.99999e-01,4.04069e-03,9.99999e-01
6.889071985e-01,4.50540e-03,9.99999e-01,9.99999e-01,4.50540e-03,9.99999e-01
6.923517345e-01,5.01277e-03,9.99999e-01,9.99999e-01,5.01277e-03,9.99999e-01
6.958134932e-01,5.56554e-03,9.99999e-01,9.99999e-01,5.56554e-03,9.99999e-01
6.992925606e-01,6.16651e-03,9.99999e-01,9.99999e-01,6.16651e-03,9.99999e-01
7.027890234e-01,6.81854e-03,9.99999e-01,9.99999e-01,6.81854e-03,9.99999e-01
7.063029686e-01,7.52456e-03,9.99999e-01,9.99999e-01,7.52456e-03,9.99999e-01
7.098344834e-01,8.28755e-03,9.99999e-01,9.99999e-01,8.28755e-03,9.99999e-01
7.133836558e-01,9.11050e-03,9.99999e-01,9.99999e-01,9.11050e-03,9.99999e-01
7.169505741e-01,9.99646e-03,9.99999e-01,9.99999e-01,9.99646e-03,9.99999e-01
7.205353270e-01,1.09485e-02,9.99999e-01,9.99999e-01,1.09485e-02,9.99999e-01
7.241380036e-01,1.19697e-02,9.99999e-01,9.99999e-01,1.19697e-02,9.99999e-01
7.277586936e-01,1.30630e-02,9.99999e-01,9.99999e-01,1.30630e-02,9.99999e-01
7.313974871e-01,1.42317e-02,9.99999e-01,9.99999e-01,1.42317e-02,9.99999e-01
7.350544745e-01,1.54787e-02,9.99999e-01,9.99999e-01,1.54787e-02,9.99999e-01
7.387297469e-01,1.68071e-02,9.99999e-01,9.99999e-01,1.68071e-02,9.99999e-01
7.424233956e-01,1.82198e-02,9.99999e-01,9.99999e-01,1.82198e-02,9.99999e-01
7.461355126e-01,1.97198e-02,9.99999e-01,9.99999e-01,1.97198e-02,9.99999e-01
7.498661902e-01,2.13099e-02,9.99999e-01,9.99999e-01,2.13099e-02,9.99999e-01
7.536155211e-01,2.29930e-02,9.99999e-01,9.99999e-01,2.29930e-02,9.99999e-01
7.573835987e-01,2.47719e-02,9.99999e-01,9.99999e-01,2.47719e-02,9.99999e-01
7.611705167e-01,2.66491e-02,9.99999e-01,9.99999e-01,2.66491e-02,9.99999e-01
7.649763693e-01,2.86272e-02,9.99999e-01,9.99999e-01,2.86272e-02,9.99999e-01
7.688012511e-01,3.07087e-02,9.99999e-01,9.99999e-01,3.07087e-02,9.99999e-01
7.726452574e-01,3.28959e-02,9.99999e-01,9.99999e-01,3.28959e-02,9.99999e-01
7.765084837e-01,3.51910e-02,9.99999e-01,9.99999e-01,3.51910e-02,9.99999e-01
7.803910261e-01,3.32170e-02,9.99999e-01,8.83521e-01,3.75961e-02,9.99999e-01
7.842929812e-01,2.12836e-02,9.99999e-01,5.30588e-01,4.01132e-02,9.99999e-01
7.882144461e-01,2.19716e-02,9.99999e-01,5.14027e-01,4.27441e-02,9.99999e-01
7.921555184e-01,2.98588e-02,9.99999e-01,6.56375e-01,4.54904e-02,9.99999e-01
7.961162960e-01,3.63232e-02,9.99999e-01,7.51197e-01,4.83536e-02,9.99999e-01
8.000968774e-01,4.39377e-02,9.99999e-01,8.55898e-01,5.13352e-02,9.99999e-01
8.040973618e-01,5.02172e-02,9.99999e-01,9.22496e-01,5.44362e-02,9.99999e-01
8.081178486e-01,5.55531e-02,9.99999e-01,9.63498e-01,5.76576e-02,9.99999e-01
8.121584379e-01,6.03077e-02,9.99999e-01,9.88643e-01,6.10004e-02,9.99999e-01
8.162192301e-01,6.43028e-02,9.99999e-01,9.97480e-01,6.44652e-02,9.99999e-01
8.203003262e-01,6.80501e-02,9.99999e-01,9.99964e-01,6.80525e-02,9.99999e-01
8.244018279e-01,7.17627e-02,9.99999e-01,9.99999e-01,7.17627e-02,9.99999e-01
8.285238370e-01,7.55958e-02,9.99999e-01,9.99999e-01,7.55958e-02,9.99999e-01
8.326664562e-01,7.95518e-02,9.99999e-01,9.99999e-01,7.95518e-02,9.99999e-01
8.368297885e-01,8.36305e-02,9.99999e-01,9.99999e-01,8.36305e-02,9.99999e-01
8.410139374e-01,8.78316e-02,9.99999e-01,9.99999e-01,8.78316e-02,9.99999e-01
8.452190071e-01,9.21544e-02,9.99999e-01,9.99999e-01,9.21544e-02,9.99999e-01
8.494451021e-01,9.65983e-02,9.99999e-01,9.99999e-01,9.65983e-02,9.99999e-01
8.536923276e-01,1.01162e-01,9.99999e-01,9.99999e-01,1.01162e-01,9.99999e-01
8.579607893e-01,1.05845e-01,9.99999e-01,9.99999e-01,1.05845e-01,9.99999e-01
8.622505932e-01,1.10646e-01,9.99999e-01,9.99999e-01,1.10646e-01,9.99999e-01
8.665618462e-01,9.75615e-02,9.99999e-01,8.44221e-01,1.15564e-01,9.99999e-01
8.708946554e-01,2.59152e-02,9.99999e-01,2.14892e-01,1.20596e-01,9.99999e-01
8.752491287e-01,3.40455e-02,9.99999e-01,2.70757e-01,1.25742e-01,9.99999e-01
8.796253743e-01,6.25064e-02,9.99999e-01,4.77152e-01,1.30999e-01,9.99999e-01
8.840235012e-01,9.18754e-02,9.99999e-01,6.73745e-01,1.36365e-01,9.99999e-01
8.884436187e-01,1.21214e-01,9.99999e-01,8.54592e-01,1.41839e-01,9.99999e-01
8.928858368e-01,1.38279e-01,9.99999e-01,9.38007e-01,1.47418e-01,9.99999e-01
8.973502660e-01,1.50744e-01,9.99999e-01,9.84615e-01,1.53099e-01,9.99999e-01
9.018370173e-01,1.58610e-01,9.99999e-01,9.98294e-01,1.58881e-01,9.99999e-01
9.063462024e-01,1.57781e-01,9.99999e-01,9.57641e-01,1.64760e-01,9.99999e-01
9.108779334e-01,1.54364e-01,9.99999e-01,9.04119e-01,1.70734e-01,9.99999e-01
9.154323231e-01,1.72686e-01,9.99999e-01,9.76722e-01,1.76801e-01,9.99999e-01
9.200094847e-01,1.38313e-01,9.99999e-01,7.55988e-01,1.82957e-01,9.99999e-01
9.246095321e-01,1.16050e-01,9.99999e-01,6.13376e-01,1.89199e-01,9.99999e-01
9.292325798e-01,1.34478e-01,9.99999e-01,6.87777e-01,1.95525e-01,9.99999e-01
9.338787427e-01,1.39915e-01,9.99999e-01,6.92887e-01,2.01931e-01,9.99999e-01
9.385481364e-01,1.58608e-01,9.99999e-01,7.61025e-01,2.08414e-01,9.99999e-01
9.432408771e-01,1.81640e-01,9.99999e-01,8.44953e-01,2.14971e-01,9.99999e-01
9.479570815e-01,2.03196e-01,9.99999e-01,9.16957e-01,2.21598e-01,9.99999e-01
9.526968669e-01,2.18972e-01,9.99999e-01,9.59168e-01,2.28293e-01,9.99999e-01
9.574603512e-01,2.30894e-01,9.99999e-01,9.82310e-01,2.35052e-01,9.99999e-01
9.622476530e-01,2.40529e-01,9.99999e-01,9.94449e-01,2.41872e-01,9.99999e-01
9.670588912e-01,2.48335e-01,9.99999e-01,9.98335e-01,2.48749e-01,9.99999e-01
9.718941857e-01,2.55650e-01,9.99999e-01,9.99883e-01,2.55680e-01,9.99999e-01
9.767536566e-01,2.62661e-01,9.99999e-01,9.99999e-01,2.62661e-01,9.99999e-01
9.816374249e-01,2.69689e-01,9.99999e-01,9.99999e-01,2.69689e-01,9.99999e-01
9.865456120e-01,2.76762e-01,9.99999e-01,9.99999e-01,2.76762e-01,9.99999e-01
9.914783401e-01,2.83874e-01,9.99999e-01,9.99999e-01,2.83874e-01,9.99999e-01
9.964357318e-01,2.91023e-01,9.99999e-01,9.99999e-01,2.91023e-01,9.99999e-01
1.001417910e+00,2.98206e-01,9.99999e-01,9.99999e-01,2.98206e-01,9.99999e-01
1.006425000e+00,3.05419e-01,9.99999e-01,9.99999e-01,3.05419e-01,9.99999e-01
1.011457125e+00,3.12659e-01,9.99999e-01,9.99999e-01,3.12659e-01,9.99999e-01
1.016514411e+00,3.19922e-01,9.99999e-01,9.99999e-01,3.19922e-01,9.99999e-01
1.021596983e+00,3.27123e-01,9.99999e-01,9.99745e-01,3.27206e-01,9.99999e-01
1.026704968e+00,3.28773e-01,9.99999e-01,9.82858e-01,3.34506e-01,9.99999e-01
1.031838492e+00,2.99613e-01,9.99999e-01,8.76520e-01,3.41821e-01,9.99999e-01
1.036997685e+00,1.10110e-02,9.99999e-01,3.15370e-02,3.49146e-01,9.99999e-01
1.042182673e+00,2.01158e-04,9.99999e-01,5.64292e-04,3.56479e-01,9.99999e-01
1.047393587e+00,5.87901e-04,9.99999e-01,1.61593e-03,3.63816e-01,9.99999e-01
1.052630555e+00,2.60073e-09,9.99999e-01,7.00710e-09,3.71156e-01,9.99999e-01
1.057893707e+00,9.81228e-09,9.99999e-01,2.59246e-08,3.78493e-01,9.99999e-01
1.063183176e+00,1.19912e-06,9.99999e-01,3.10793e-06,3.85827e-01,9.99999e-01
1.068499092e+00,2.20173e-05,9.99999e-01,5.60017e-05,3.93154e-01,9.99999e-01
1.073841587e+00,6.64753e-04,9.99999e-01,1.65993e-03,4.00471e-01,9.99999e-01
1.079210795e+00,7.58587e-03,9.99999e-01,1.86030e-02,4.07775e-01,9.99999e-01
1.084606849e+00,4.17382e-02,9.99999e-01,1.00558e-01,4.15065e-01,9.99999e-01
1.090029883e+00,1.26023e-01,9.99999e-01,2.98393e-01,4.22337e-01,9.99999e-01
1.095480033e+00,2.35862e-01,9.99999e-01,5.49041e-01,4.29589e-01,9.99999e-01
1.100957433e+00,3.26373e-01,9.99999e-01,7.47157e-01,4.36819e-01,9.99999e-01
1.106462220e+00,3.93501e-01,9.99999e-01,8.86215e-01,4.44024e-01,9.99999e-01
1.111994531e+00,4.31403e-01,9.99999e-01,9.56118e-01,4.51202e-01,9.99999e-01
1.117554504e+00,4.53371e-01,9.99999e-01,9.89135e-01,4.58351e-01,9.99999e-01
1.123142276e+00,4.65136e-01,9.99999e-01,9.99285e-01,4.65468e-01,9.99999e-01
1.128757988e+00,4.72553e-01,9.99999e-01,9.99999e-01,4.72553e-01,9.99999e-01
1.134401778e+00,4.79602e-01,9.99999e-01,9.99999e-01,4.79602e-01,9.99999e-01
1.140073787e+00,4.86613e-01,9.99999e-01,9.99999e-01,4.86613e-01,9.99999e-01
1.145774156e+00,4.93586e-01,9.99999e-01,9.99999e-01,4.93586e-01,9.99999e-01
1.151503026e+00,5.00518e-01,9.99999e-01,9.99999e-01,5.00518e-01,9.99999e-01
1.157260541e+00,5.07408e-01,9.99999e-01,9.99999e-01,5.07408e-01,9.99999e-01
1.163046844e+00,5.14253e-01,9.99999e-01,9.99999e-01,5.14253e-01,9.99999e-01
1.168862078e+00,5.21053e-01,9.99999e-01,9.99999e-01,5.21053e-01,9.99999e-01
1.174706389e+00,5.27806e-01,9.99999e-01,9.99999e-01,5.27806e-01,9.99999e-01
1.180579921e+00,5.34510e-01,9.99999e-01,9.99999e-01,5.34510e-01,9.99999e-01
1.186482820e+00,5.41145e-01,9.99999e-01,9.99963e-01,5.41165e-01,9.99999e-01
1.192415234e+00,5.16653e-01,9.99999e-01,9.43195e-01,5.47768e-01,9.99999e-01
1.198377311e+00,2.71198e-01,9.99999e-01,4.89245e-01,5.54320e-01,9.99999e-01
1.204369197e+00,1.87830e-43,9.99999e-01,3.34921e-43,5.60818e-01,9.99999e-01
1.210391043e+00,2.72542e-179,9.99999e-01,4.80453e-179,5.67261e-01,9.99999e-01
1.216442998e+00,5.33878e-155,9.99999e-01,9.30669e-155,5.73649e-01,9.99999e-01
1.222525213e+00,1.17199e-152,9.99999e-01,2.02073e-152,5.79981e-01,9.99999e-01
1.228637839e+00,1.55496e-117,9.99999e-01,2.65235e-117,5.86255e-01,9.99999e-01
1.234781029e+00,1.08085e-72,9.99999e-01,1.82431e-72,5.92472e-01,9.99999e-01
1.240954934e+00,6.28249e-48,9.99999e-01,1.04948e-47,5.98629e-01,9.99999e-01
1.247159708e+00,1.73155e-22,9.99999e-01,2.86335e-22,6.04728e-01,9.99999e-01
1.253395507e+00,2.51838e-15,9.99999e-01,4.12331e-15,6.10765e-01,9.99999e-01
1.259662485e+00,6.87182e-09,9.99999e-01,1.11421e-08,6.16743e-01,9.99999e-01
1.265960797e+00,3.37169e-05,9.99999e-01,5.41499e-05,6.22658e-01,9.99999e-01
1.272290601e+00,5.09739e-03,9.99999e-01,8.11024e-03,6.28513e-01,9.99999e-01
1.278652054e+00,5.20678e-03,9.99999e-01,8.20864e-03,6.34304e-01,9.99999e-01
1.285045314e+00,8.09119e-07,9.99999e-01,1.26418e-06,6.40034e-01,9.99999e-01
1.291470541e+00,1.74574e-20,9.99999e-01,2.70364e-20,6.45700e-01,9.99999e-01
1.297927893e+00,9.85412e-07,9.99999e-01,1.51298e-06,6.51303e-01,9.99999e-01
1.304417533e+00,8.86707e-05,9.99999e-01,1.34995e-04,6.56843e-01,9.99999e-01
1.310939621e+00,1.94099e-05,9.99999e-01,2.93059e-05,6.62319e-01,9.99999e-01
1.317494319e+00,2.61277e-61,9.99999e-01,3.91290e-61,6.67731e-01,9.99999e-01
1.324081790e+00,3.57436e-39,9.99999e-01,5.31046e-39,6.73079e-01,9.99999e-01
1.330702199e+00,2.63879e-23,9.99999e-01,3.88993e-23,6.78363e-01,9.99999e-01
1.337355710e+00,4.75622e-21,9.99999e-01,6.95778e-21,6.83583e-01,9.99999e-01
1.344042489e+00,3.00542e-21,9.99999e-01,4.36365e-21,6.88738e-01,9.99999e-01
1.350762701e+00,1.20423e-23,9.99999e-01,1.73563e-23,6.93830e-01,9.99999e-01
1.357516515e+00,5.63086e-14,9.99999e-01,8.05723e-14,6.98858e-01,9.99999e-01
1.364304097e+00,2.13053e-10,9.99999e-01,3.02708e-10,7.03821e-01,9.99999e-01
1.371125618e+00,1.04674e-05,9.99999e-01,1.47694e-05,7.08721e-01,9.99999e-01
1.377981246e+00,4.33470e-05,9.99999e-01,6.07477e-05,7.13557e-01,9.99999e-01
1.384871152e+00,2.38982e-03,9.99999e-01,3.32690e-03,7.18330e-01,9.99999e-01
1.391795508e+00,3.95883e-03,9.99999e-01,5.47525e-03,7.23040e-01,9.99999e-01
1.398754485e+00,2.55646e-02,9.99999e-01,3.51313e-02,7.27686e-01,9.99999e-01
1.405748258e+00,6.52612e-02,9.99999e-01,8.91218e-02,7.32269e-01,9.99999e-01
1.412776999e+00,1.56879e-01,9.99999e-01,2.12921e-01,7.36790e-01,9.99999e-01
1.419840884e+00,1.57357e-01,9.99999e-01,2.12286e-01,7.41249e-01,9.99999e-01
1.426940089e+00,4.36754e-03,9.99999e-01,5.85738e-03,7.45646e-01,9.99999e-01
1.434074789e+00,0.00000e+00,9.99999e-01,0.00000e+00,7.49981e-01,9.99999e-01
1.441245163e+00,0.00000e+00,9.99999e-01,0.00000e+00,7.54256e-01,9.99999e-01
1.448451389e+00,0.00000e+00,9.99999e-01,0.00000e+00,7.58469e-01,9.99999e-01
1.455693646e+00,0.00000e+00,9.99999e-01,0.00000e+00,7.62622e-01,9.99999e-01
1.462972114e+00,0.00000e+00,9.99999e-01,0.00000e+00,7.66715e-01,9.99999e-01
1.470286975e+00,6.88314e-298,9.99999e-01,8.93045e-298,7.70749e-01,9.99999e-01
