#,Wave/freq,Total,O2,CO2,Rayleigh,CIA
4.000000000e-01,8.54984e-04,9.99999e-01,9.99999e-01,8.54984e-04,9.99999e-01
4.020000000e-01,9.83158e-04,9.99999e-01,9.99999e-01,9.83158e-04,9.99999e-01
4.040100000e-01,1.12727e-03,9.99999e-01,9.99999e-01,1.12727e-03,9.99999e-01
4.060300500e-01,1.28901e-03,9.99999e-01,9.99999e-01,1.28901e-03,9.99999e-01
4.080602003e-01,1.47006e-03,9.99999e-01,9.99999e-01,1.47006e-03,9.99999e-01
4.101005013e-01,1.67220e-03,9.99999e-01,9.99999e-01,1.67220e-03,9.99999e-01
4.121510038e-01,1.89730e-03,9.99999e-01,9.99999e-01,1.89730e-03,9.99999e-01
4.142117588e-01,2.14733e-03,9.99999e-01,9.99999e-01,2.14733e-03,9.99999e-01
4.162828176e-01,2.42438e-03,9.99999e-01,9.99999e-01,2.42438e-03,9.99999e-01
4.183642317e-01,2.73062e-03,9.99999e-01,9.99999e-01,2.73062e-03,9.99999e-01
4.204560528e-01,3.06832e-03,9.99999e-01,9.99999e-01,3.06832e-03,9.99999e-01
4.225583331e-01,3.43986e-03,9.99999e-01,9.99999e-01,3.43986e-03,9.99999e-01
4.246711247e-01,3.84769e-03,9.99999e-01,9.99999e-01,3.84769e-03,9.99999e-01
4.267944804e-01,4.29436e-03,9.99999e-01,9.99999e-01,4.29436e-03,9.99999e-01
4.289284528e-01,4.78250e-03,9.99999e-01,9.99999e-01,4.78250e-03,9.99999e-01
4.310730950e-01,5.31480e-03,9.99999e-01,9.99999e-01,5.31480e-03,9.99999e-01
4.332284605e-01,5.89406e-03,9.99999e-01,9.99999e-01,5.89406e-03,9.99999e-01
4.353946028e-01,6.52311e-03,9.99999e-01,9.99999e-01,6.52311e-03,9.99999e-01
4.375715758e-01,7.20484e-03,9.99999e-01,9.99999e-01,7.20484e-03,9.99999e-01
4.397594337e-01,7.94221e-03,9.99999e-01,9.99999e-01,7.94221e-03,9.99999e-01
4.419582309e-01,8.73822e-03,9.99999e-01,9.99999e-01,8.73822e-03,9.99999e-01
4.441680220e-01,9.59588e-03,9.99999e-01,9.99999e-01,9.59588e-03,9.99999e-01
4.463888621e-01,1.05183e-02,9.99999e-01,9.99999e-01,1.05183e-02,9.99999e-01
4.486208064e-01,1.15084e-02,9.99999e-01,9.99999e-01,1.15084e-02,9.99999e-01
4.508639105e-01,1.25694e-02,9.99999e-01,9.99999e-01,1.25694e-02,9.99999e-01
4.531182300e-01,1.37043e-02,9.99999e-01,9.99999e-01,1.37043e-02,9.99999e-01
4.553838212e-01,1.49163e-02,9.99999e-01,9.99999e-01,1.49163e-02,9.99999e-01
4.576607403e-01,1.62082e-02,9.99999e-01,9.99999e-01,1.62082e-02,9.99999e-01
4.599490440e-01,1.75832e-02,9.99999e-01,9.99999e-01,1.75832e-02,9.99999e-01
4.622487892e-01,1.90441e-02,9.99999e-01,9.99999e-01,1.90441e-02,9.99999e-01
4.645600332e-01,2.05939e-02,9.99999e-01,9.99999e-01,2.05939e-02,9.99999e-01
4.668828333e-01,2.22355e-02,9.99999e-01,9.99999e-01,2.22355e-02,9.99999e-01
4.692172475e-01,2.39716e-02,9.99999e-01,9.99999e-01,2.39716e-02,9.99999e-01
4.715633337e-01,2.58049e-02,9.99999e-01,9.99999e-01,2.58049e-02,9.99999e-01
4.739211504e-01,2.77380e-02,9.99999e-01,9.99999e-01,2.77380e-02,9.99999e-01
4.762907561e-01,2.97734e-02,9.99999e-01,9.99999e-01,2.97734e-02,9.99999e-01
4.786722099e-01,3.19134e-02,9.99999e-01,9.99999e-01,3.19134e-02,9.99999e-01
4.810655710e-01,3.41605e-02,9.99999e-01,9.99999e-01,3.41605e-02,9.99999e-01
4.834708988e-01,3.65166e-02,9.99999e-01,9.99999e-01,3.65166e-02,9.99999e-01
4.858882533e-01,3.89839e-02,9.99999e-01,9.99999e-01,3.89839e-02,9.99999e-01
4.883176946e-01,4.15641e-02,9.99999e-01,9.99999e-01,4.15641e-02,9.99999e-01
4.907592831e-01,4.42590e-02,9.99999e-01,9.99999e-01,4.42590e-02,9.99999e-01
4.932130795e-01,4.70703e-02,9.99999e-01,9.99999e-01,4.70703e-02,9.99999e-01
4.956791449e-01,4.99992e-02,9.99999e-01,9.99999e-01,4.99992e-02,9.99999e-01
4.981575406e-01,5.30472e-02,9.99999e-01,9.99999e-01,5.30472e-02,9.99999e-01
5.006483283e-01,5.62151e-02,9.99999e-01,9.99999e-01,5.62151e-02,9.99999e-01
5.031515699e-01,5.95041e-02,9.99999e-01,9.99999e-01,5.95041e-02,9.99999e-01
5.056673278e-01,6.29147e-02,9.99999e-01,9.99999e-01,6.29147e-02,9.99999e-01
5.081956644e-01,6.64477e-02,9.99999e-01,9.99999e-01,6.64477e-02,9.99999e-01
5.107366428e-01,7.01034e-02,9.99999e-01,9.99999e-01,7.01034e-02,9.99999e-01
5.132903260e-01,7.38820e-02,9.99999e-01,9.99999e-01,7.38820e-02,9.99999e-01
5.158567776e-01,7.77835e-02,9.99999e-01,9.99999e-01,7.77835e-02,9.99999e-01
5.184360615e-01,8.18079e-02,9.99999e-01,9.99999e-01,8.18079e-02,9.99999e-01
5.210282418e-01,8.59548e-02,9.99999e-01,9.99999e-01,8.59548e-02,9.99999e-01
5.236333830e-01,9.02238e-02,9.99999e-01,9.99999e-01,9.02238e-02,9.99999e-01
5.262515499e-01,9.46141e-02,9.99999e-01,9.99999e-01,9.46141e-02,9.99999e-01
5.288828077e-01,9.91251e-02,9.99999e-01,9.99999e-01,9.91251e-02,9.99999e-01
5.315272217e-01,1.03756e-01,9.99999e-01,9.99999e-01,1.03756e-01,9.99999e-01
5.341848578e-01,1.08504e-01,9.99999e-01,9.99999e-01,1.08504e-01,9.99999e-01
5.368557821e-01,1.13370e-01,9.99999e-01,9.99999e-01,1.13370e-01,9.99999e-01
5.395400610e-01,1.18352e-01,9.99999e-01,9.99999e-01,1.18352e-01,9.99999e-01
5.422377613e-01,1.23448e-01,9.99999e-01,9.99999e-01,1.23448e-01,9.99999e-01
5.449489501e-01,1.28655e-01,9.99999e-01,9.99999e-01,1.28655e-01,9.99999e-01
5.476736949e-01,1.33974e-01,9.99999e-01,9.99999e-01,1.33974e-01,9.99999e-01
5.504120634e-01,1.39400e-01,9.99999e-01,9.99999e-01,1.39400e-01,9.99999e-01
5.531641237e-01,1.44932e-01,9.99999e-01,9.99999e-01,1.44932e-01,9.99999e-01
5.559299443e-01,1.50569e-01,9.99999e-01,9.99999e-01,1.50569e-01,9.99999e-01
5.587095940e-01,1.56306e-01,9.99999e-01,9.99999e-01,1.56306e-01,9.99999e-01
5.615031420e-01,1.62143e-01,9.99999e-01,9.99999e-01,1.62143e-01,9.99999e-01
5.643106577e-01,1.68075e-01,9.99999e-01,9.99999e-01,1.68075e-01,9.99999e-01
5.671322110e-01,1.74101e-01,9.99999e-01,9.99999e-01,1.74101e-01,9.99999e-01
5.699678720e-01,1.80218e-01,9.99999e-01,9.99999e-01,1.80218e-01,9.99999e-01
5.728177114e-01,1.86422e-01,9.99999e-01,9.99999e-01,1.86422e-01,9.99999e-01
5.756818000e-01,1.92711e-01,9.99999e-01,9.99999e-01,1.92711e-01,9.99999e-01
5.785602090e-01,1.99082e-01,9.99999e-01,9.99999e-01,1.99082e-01,9.99999e-01
5.814530100e-01,2.05531e-01,9.99999e-01,9.99999e-01,2.05531e-01,9.99999e-01
5.843602750e-01,2.12056e-01,9.99999e-01,9.99999e-01,2.12056e-01,9.99999e-01
5.872820764e-01,2.18653e-01,9.99999e-01,9.99999e-01,2.18653e-01,9.99999e-01
5.902184868e-01,2.25318e-01,9.99999e-01,9.99999e-01,2.25318e-01,9.99999e-01
5.931695792e-01,2.32049e-01,9.99999e-01,9.99999e-01,2.32049e-01,9.99999e-01
5.961354271e-01,2.38842e-01,9.99999e-01,9.99999e-01,2.38842e-01,9.99999e-01
5.991161043e-01,2.45694e-01,9.99999e-01,9.99999e-01,2.45694e-01,9.99999e-01
6.021116848e-01,2.52602e-01,9.99999e-01,9.99999e-01,2.52602e-01,9.99999e-01
6.051222432e-01,2.59561e-01,9.99999e-01,9.99999e-01,2.59561e-01,9.99999e-01
6.081478544e-01,2.66569e-01,9.99999e-01,9.99999e-01,2.66569e-01,9.99999e-01
6.111885937e-01,2.73622e-01,9.99999e-01,9.99999e-01,2.73622e-01,9.99999e-01
6.142445367e-01,2.80717e-01,9.99999e-01,9.99999e-01,2.80717e-01,9.99999e-01
6.173157594e-01,2.87851e-01,9.99999e-01,9.99999e-01,2.87851e-01,9.99999e-01
6.204023382e-01,2.95019e-01,9.99999e-01,9.99999e-01,2.95019e-01,9.99999e-01
6.235043498e-01,3.02219e-01,9.99999e-01,9.99999e-01,3.02219e-01,9.99999e-01
6.266218716e-01,3.09447e-01,9.99999e-01,9.99999e-01,3.09447e-01,9.99999e-01
6.297549810e-01,3.16701e-01,9.99999e-01,9.99999e-01,3.16701e-01,9.99999e-01
6.329037559e-01,3.23976e-01,9.99999e-01,9.99999e-01,3.23976e-01,9.99999e-01
6.360682746e-01,3.31269e-01,9.99999e-01,9.99999e-01,3.31269e-01,9.99999e-01
6.392486160e-01,3.38578e-01,9.99999e-01,9.99999e-01,3.38578e-01,9.99999e-01
6.424448591e-01,3.45899e-01,9.99999e-01,9.99999e-01,3.45899e-01,9.99999e-01
6.456570834e-01,3.53229e-01,9.99999e-01,9.99999e-01,3.53229e-01,9.99999e-01
6.488853688e-01,3.60564e-01,9.99999e-01,9.99999e-01,3.60564e-01,9.99999e-01
6.521297956e-01,3.67903e-01,9.99999e-01,9.99999e-01,3.67903e-01,9.99999e-01
6.553904446e-01,3.75242e-01,9.99999e-01,9.99999e-01,3.75242e-01,9.99999e-01
6.586673968e-01,3.82578e-01,9.99999e-01,9.99999e-01,3.82578e-01,9.99999e-01
6.619607338e-01,3.89908e-01,9.99999e-01,9.99999e-01,3.89908e-01,9.99999e-01
6.652705375e-01,3.97230e-01,9.99999e-01,9.99999e-01,3.97230e-01,9.99999e-01
6.685968902e-01,4.04540e-01,9.99999e-01,9.99999e-01,4.04540e-01,9.99999e-01
6.719398746e-01,4.11837e-01,9.99999e-01,9.99999e-01,4.11837e-01,9.99999e-01
6.752995740e-01,4.19117e-01,9.99999e-01,9.99999e-01,4.19117e-01,9.99999e-01
6.786760719e-01,4.26378e-01,9.99999e-01,9.99999e-01,4.26378e-01,9.99999e-01
6.820694522e-01,4.33618e-01,9.99999e-01,9.99999e-01,4.33618e-01,9.99999e-01
6.854797995e-01,4.40834e-01,9.99999e-01,9.99999e-01,4.40834e-01,9.99999e-01
6.889071985e-01,4.48025e-01,9.99999e-01,9.99999e-01,4.48025e-01,9.99999e-01
6.923517345e-01,4.55187e-01,9.99999e-01,9.99999e-01,4.55187e-01,9.99999e-01
6.958134932e-01,4.62318e-01,9.99999e-01,9.99999e-01,4.62318e-01,9.99999e-01
6.992925606e-01,4.69418e-01,9.99999e-01,9.99999e-01,4.69418e-01,9.99999e-01
7.027890234e-01,4.76482e-01,9.99999e-01,9.99999e-01,4.76482e-01,9.99999e-01
7.063029686e-01,4.83511e-01,9.99999e-01,9.99999e-01,4.83511e-01,9.99999e-01
7.098344834e-01,4.90501e-01,9.99999e-01,9.99999e-01,4.90501e-01,9.99999e-01
7.133836558e-01,4.97451e-01,9.99999e-01,9.99999e-01,4.97451e-01,9.99999e-01
7.169505741e-01,5.04360e-01,9.99999e-01,9.99999e-01,5.04360e-01,9.99999e-01
7.205353270e-01,5.11225e-01,9.99999e-01,9.99999e-01,5.11225e-01,9.99999e-01
7.241380036e-01,5.18045e-01,9.99999e-01,9.99999e-01,5.18045e-01,9.99999e-01
7.277586936e-01,5.24819e-01,9.99999e-01,9.99999e-01,5.24819e-01,9.99999e-01
7.313974871e-01,5.31545e-01,9.99999e-01,9.99999e-01,5.31545e-01,9.99999e-01
7.350544745e-01,5.38222e-01,9.99999e-01,9.99999e-01,5.38222e-01,9.99999e-01
7.387297469e-01,5.44848e-01,9.99999e-01,9.99999e-01,5.44848e-01,9.99999e-01
7.424233956e-01,5.51423e-01,9.99999e-01,9.99999e-01,5.51423e-01,9.99999e-01
7.461355126e-01,5.57945e-01,9.99999e-01,9.99999e-01,5.57945e-01,9.99999e-01
7.498661902e-01,5.64412e-01,9.99999e-01,9.99999e-01,5.64412e-01,9.99999e-01
7.536155211e-01,5.70825e-01,9.99999e-01,9.99999e-01,5.70825e-01,9.99999e-01
7.573835987e-01,5.77182e-01,9.99999e-01,9.99999e-01,5.77182e-01,9.99999e-01
7.611705167e-01,5.83482e-01,9.99999e-01,9.99999e-01,5.83482e-01,9.99999e-01
7.649763693e-01,5.89724e-01,9.99999e-01,9.99999e-01,5.89724e-01,9.99999e-01
7.688012511e-01,5.95908e-01,9.99999e-01,9.99999e-01,5.95908e-01,9.99999e-01
7.726452574e-01,6.02033e-01,9.99999e-01,9.99999e-01,6.02033e-01,9.99999e-01
7.765084837e-01,6.08097e-01,9.99999e-01,9.99999e-01,6.08097e-01,9.99999e-01
7.803910261e-01,6.00120e-01,9.99999e-01,9.77231e-01,6.14101e-01,9.99999e-01
7.842929812e-01,5.58418e-01,9.99999e-01,9.00609e-01,6.20044e-01,9.99999e-01
7.882144461e-01,5.59846e-01,9.99999e-01,8.94427e-01,6.25926e-01,9.99999e-01
7.921555184e-01,5.92343e-01,9.99999e-01,9.37629e-01,6.31746e-01,9.99999e-01
7.961162960e-01,6.10442e-01,9.99999e-01,9.57551e-01,6.37503e-01,9.99999e-01
8.000968774e-01,6.28283e-01,9.99999e-01,9.76812e-01,6.43197e-01,9.99999e-01
8.040973618e-01,6.40961e-01,9.99999e-01,9.87873e-01,6.48828e-01,9.99999e-01
8.081178486e-01,6.50759e-01,9.99999e-01,9.94442e-01,6.54396e-01,9.99999e-01
8.121584379e-01,6.58755e-01,9.99999e-01,9.98265e-01,6.59900e-01,9.99999e-01
8.162192301e-01,6.65085e-01,9.99999e-01,9.99616e-01,6.65340e-01,9.99999e-01
8.203003262e-01,6.70712e-01,9.99999e-01,9.99993e-01,6.70717e-01,9.99999e-01
8.244018279e-01,6.76029e-01,9.99999e-01,9.99999e-01,6.76029e-01,9.99999e-01
8.285238370e-01,6.81277e-01,9.99999e-01,9.99999e-01,6.81277e-01,9.99999e-01
8.326664562e-01,6.86462e-01,9.99999e-01,9.99999e-01,6.86462e-01,9.99999e-01
8.368297885e-01,6.91582e-01,9.99999e-01,9.99999e-01,6.91582e-01,9.99999e-01
8.410139374e-01,6.96638e-01,9.99999e-01,9.99999e-01,6.96638e-01,9.99999e-01
8.452190071e-01,7.01630e-01,9.99999e-01,9.99999e-01,7.01630e-01,9.99999e-01
8.494451021e-01,7.06558e-01,9.99999e-01,9.99999e-01,7.06558e-01,9.99999e-01
8.536923276e-01,7.11422e-01,9.99999e-01,9.99999e-01,7.11422e-01,9.99999e-01
8.579607893e-01,7.16223e-01,9.99999e-01,9.99999e-01,7.16223e-01,9.99999e-01
8.622505932e-01,7.20960e-01,9.99999e-01,9.99999e-01,7.20960e-01,9.99999e-01
8.665618462e-01,6.84786e-01,9.99999e-01,9.43705e-01,7.25635e-01,9.99999e-01
8.708946554e-01,5.59201e-01,9.99999e-01,7.65771e-01,7.30246e-01,9.99999e-01
8.752491287e-01,5.93098e-01,9.99999e-01,8.07160e-01,7.34795e-01,9.99999e-01
8.796253743e-01,6.57607e-01,9.99999e-01,8.89521e-01,7.39281e-01,9.99999e-01
8.840235012e-01,7.00066e-01,9.99999e-01,9.41321e-01,7.43705e-01,9.99999e-01
8.884436187e-01,7.30393e-01,9.99999e-01,9.76371e-01,7.48068e-01,9.99999e-01
8.928858368e-01,7.45144e-01,9.99999e-01,9.90396e-01,7.52369e-01,9.99999e-01
8.973502660e-01,7.54827e-01,9.99999e-01,9.97643e-01,7.56609e-01,9.99999e-01
9.018370173e-01,7.60591e-01,9.99999e-01,9.99739e-01,7.60789e-01,9.99999e-01
9.063462024e-01,7.59974e-01,9.99999e-01,9.93548e-01,7.64909e-01,9.99999e-01
9.108779334e-01,7.57366e-01,9.99999e-01,9.84911e-01,7.68969e-01,9.99999e-01
9.154323231e-01,7.70189e-01,9.99999e-01,9.96403e-01,7.72969e-01,9.99999e-01
9.200094847e-01,7.37461e-01,9.99999e-01,9.49221e-01,7.76911e-01,9.99999e-01
9.246095321e-01,7.24798e-01,9.99999e-01,9.28282e-01,7.80794e-01,9.99999e-01
9.292325798e-01,7.40513e-01,9.99999e-01,9.43785e-01,7.84620e-01,9.99999e-01
9.338787427e-01,7.45148e-01,9.99999e-01,9.45153e-01,7.88388e-01,9.99999e-01
9.385481364e-01,7.59996e-01,9.99999e-01,9.59470e-01,7.92099e-01,9.99999e-01
9.432408771e-01,7.75799e-01,9.99999e-01,9.74922e-01,7.95754e-01,9.99999e-01
9.479570815e-01,7.89042e-01,9.99999e-01,9.87099e-01,7.99354e-01,9.99999e-01
9.526968669e-01,7.97877e-01,9.99999e-01,9.93747e-01,8.02897e-01,9.99999e-01
9.574603512e-01,8.04226e-01,9.99999e-01,9.97320e-01,8.06386e-01,9.99999e-01
9.622476530e-01,8.09144e-01,9.99999e-01,9.99162e-01,8.09821e-01,9.99999e-01
9.670588912e-01,8.12998e-01,9.99999e-01,9.99748e-01,8.13203e-01,9.99999e-01
9.718941857e-01,8.16516e-01,9.99999e-01,9.99981e-01,8.16531e-01,9.99999e-01
9.767536566e-01,8.19806e-01,9.99999e-01,9.99999e-01,8.19806e-01,9.99999e-01
9.816374249e-01,8.23030e-01,9.99999e-01,9.99999e-01,8.23030e-01,9.99999e-01
9.865456120e-01,8.26202e-01,9.99999e-01,9.99999e-01,8.26202e-01,9.99999e-01
9.914783401e-01,8.29324e-01,9.99999e-01,9.99999e-01,8.29324e-01,9.99999e-01
9.964357318e-01,8.32395e-01,9.99999e-01,9.99999e-01,8.32395e-01,9.99999e-01
1.001417910e+00,8.35417e-01,9.99999e-01,9.99999e-01,8.35417e-01,9.99999e-01
1.006425000e+00,8.38390e-01,9.99999e-01,9.99999e-01,8.38390e-01,9.99999e-01
1.011457125e+00,8.41314e-01,9.99999e-01,9.99999e-01,8.41314e-01,9.99999e-01
1.016514411e+00,8.44190e-01,9.99999e-01,9.99999e-01,8.44190e-01,9.99999e-01
1.021596983e+00,8.46993e-01,9.99999e-01,9.99968e-01,8.47019e-01,9.99999e-01
1.026704968e+00,8.47672e-01,9.99999e-01,9.97494e-01,8.49801e-01,9.99999e-01
1.031838492e+00,8.25928e-01,9.99999e-01,9.68787e-01,8.52538e-01,9.99999e-01
1.036997685e+00,1.85750e-01,9.99999e-01,2.17193e-01,8.55229e-01,9.99999e-01
1.042182673e+00,1.92837e-01,9.99999e-01,2.24785e-01,8.57874e-01,9.99999e-01
1.047393587e+00,1.99103e-01,9.99999e-01,2.31387e-01,8.60476e-01,9.99999e-01
1.052630555e+00,1.50765e-02,9.99999e-01,1.74692e-02,8.63034e-01,9.99999e-01
1.057893707e+00,3.19341e-02,9.99999e-01,3.68946e-02,8.65549e-01,9.99999e-01
1.063183176e+00,7.81399e-02,9.99999e-01,9.00207e-02,8.68021e-01,9.99999e-01
1.068499092e+00,1.70258e-01,9.99999e-01,1.95597e-01,8.70451e-01,9.99999e-01
1.073841587e+00,3.10683e-01,9.99999e-01,3.55945e-01,8.72840e-01,9.99999e-01
1.079210795e+00,4.55733e-01,9.99999e-01,5.20726e-01,8.75188e-01,9.99999e-01
1.084606849e+00,6.13479e-01,9.99999e-01,6.99124e-01,8.77495e-01,9.99999e-01
1.090029883e+00,7.30972e-01,9.99999e-01,8.30872e-01,8.79763e-01,9.99999e-01
1.095480033e+00,8.04977e-01,9.99999e-01,9.12679e-01,8.81992e-01,9.99999e-01
1.100957433e+00,8.46149e-01,9.99999e-01,9.56983e-01,8.84183e-01,9.99999e-01
1.106462220e+00,8.70351e-01,9.99999e-01,9.81965e-01,8.86335e-01,9.99999e-01
1.111994531e+00,8.82480e-01,9.99999e-01,9.93279e-01,8.88450e-01,9.99999e-01
1.117554504e+00,8.89057e-01,9.99999e-01,9.98347e-01,8.90528e-01,9.99999e-01
1.123142276e+00,8.92472e-01,9.99999e-01,9.99890e-01,8.92570e-01,9.99999e-01
1.128757988e+00,8.94576e-01,9.99999e-01,9.99999e-01,8.94576e-01,9.99999e-01
1.134401778e+00,8.96546e-01,9.99999e-01,9.99999e-01,8.96546e-01,9.99999e-01
1.140073787e+00,8.98482e-01,9.99999e-01,9.99999e-01,8.98482e-01,9.99999e-01
1.145774156e+00,9.00384e-01,9.99999e-01,9.99999e-01,9.00384e-01,9.99999e-01
1.151503026e+00,9.02252e-01,9.99999e-01,9.99999e-01,9.02252e-01,9.99999e-01
1.157260541e+00,9.04087e-01,9.99999e-01,9.99999e-01,9.04087e-01,9.99999e-01
1.163046844e+00,9.05890e-01,9.99999e-01,9.99999e-01,9.05890e-01,9.99999e-01
1.168862078e+00,9.07660e-01,9.99999e-01,9.99999e-01,9.07660e-01,9.99999e-01
1.174706389e+00,9.09399e-01,9.99999e-01,9.99999e-01,9.09399e-01,9.99999e-01
1.180579921e+00,9.11106e-01,9.99999e-01,9.99999e-01,9.11106e-01,9.99999e-01
1.186482820e+00,9.12780e-01,9.99999e-01,9.99996e-01,9.12783e-01,9.99999e-01
1.192415234e+00,9.06286e-01,9.99999e-01,9.91093e-01,9.14430e-01,9.99999e-01
1.198377311e+00,5.25359e-01,9.99999e-01,5.73506e-01,9.16047e-01,9.99999e-01
1.204369197e+00,2.25060e-08,9.99999e-01,2.45260e-08,9.17635e-01,9.99999e-01
1.210391043e+00,1.45804e-28,9.99999e-01,1.58621e-28,9.19194e-01,9.99999e-01
1.216442998e+00,5.94245e-25,9.99999e-01,6.45409e-25,9.20725e-01,9.99999e-01
1.222525213e+00,1.33693e-24,9.99999e-01,1.44967e-24,9.22229e-01,9.99999e-01
1.228637839e+00,5.20390e-19,9.99999e-01,5.63372e-19,9.23705e-01,9.99999e-01
1.234781029e+00,1.02243e-12,9.99999e-01,1.10514e-12,9.25154e-01,9.99999e-01
1.240954934e+00,1.18955e-08,9.99999e-01,1.28381e-08,9.26576e-01,9.99999e-01
1.247159708e+00,4.28167e-05,9.99999e-01,4.61399e-05,9.27973e-01,9.99999e-01
1.253395507e+00,3.12748e-03,9.99999e-01,3.36525e-03,9.29344e-01,9.99999e-01
1.259662485e+00,2.78013e-02,9.99999e-01,2.98717e-02,9.30690e-01,9.99999e-01
1.265960797e+00,1.40405e-01,9.99999e-01,1.50647e-01,9.32012e-01,9.99999e-01
1.272290601e+00,4.00235e-01,9.99999e-01,4.28834e-01,9.33309e-01,9.99999e-01
1.278652054e+00,3.74670e-01,9.99999e-01,4.00896e-01,9.34582e-01,9.99999e-01
1.285045314e+00,1.90198e-02,9.99999e-01,2.03240e-02,9.35832e-01,9.99999e-01
1.291470541e+00,4.68886e-04,9.99999e-01,5.00380e-04,9.37059e-01,9.99999e-01
1.297927893e+00,1.63559e-02,9.99999e-01,1.74321e-02,9.38263e-01,9.99999e-01
1.304417533e+00,2.26331e-01,9.99999e-01,2.40920e-01,9.39444e-01,9.99999e-01
1.310939621e+00,6.11742e-02,9.99999e-01,6.50371e-02,9.40604e-01,9.99999e-01
1.317494319e+00,2.73603e-10,9.99999e-01,2.90528e-10,9.41743e-01,9.99999e-01
1.324081790e+00,2.25167e-07,9.99999e-01,2.38813e-07,9.42860e-01,9.99999e-01
1.330702199e+00,2.36614e-04,9.99999e-01,2.50662e-04,9.43956e-01,9.99999e-01
1.337355710e+00,2.03804e-04,9.99999e-01,2.15658e-04,9.45032e-01,9.99999e-01
1.344042489e+00,6.35382e-05,9.99999e-01,6.71588e-05,9.46088e-01,9.99999e-01
1.350762701e+00,1.62209e-04,9.99999e-01,1.71265e-04,9.47124e-01,9.99999e-01
1.357516515e+00,3.29878e-03,9.99999e-01,3.47921e-03,9.48141e-01,9.99999e-01
1.364304097e+00,2.63394e-02,9.99999e-01,2.77508e-02,9.49139e-01,9.99999e-01
1.371125618e+00,1.43774e-01,9.99999e-01,1.51322e-01,9.50118e-01,9.99999e-01
1.377981246e+00,2.07947e-01,9.99999e-01,2.18643e-01,9.51079e-01,9.99999e-01
1.384871152e+00,3.92634e-01,9.99999e-01,4.12421e-01,9.52022e-01,9.99999e-01
1.391795508e+00,4.20382e-01,9.99999e-01,4.41139e-01,9.52947e-01,9.99999e-01
1.398754485e+00,5.76441e-01,9.99999e-01,6.04328e-01,9.53854e-01,9.99999e-01
1.405748258e+00,6.58284e-01,9.99999e-01,6.89486e-01,9.54745e-01,9.99999e-01
1.412776999e+00,7.55708e-01,9.99999e-01,7.90805e-01,9.55618e-01,9.99999e-01
1.419840884e+00,6.94208e-01,9.99999e-01,7.25797e-01,9.56476e-01,9.99999e-01
1.426940089e+00,8.10212e-02,9.99999e-01,8.46335e-02,9.57317e-01,9.99999e-01
1.434074789e+00,0.00000e+00,9.99999e-01,0.00000e+00,9.58142e-01,9.99999e-01
1.441245163e+00,0.00000e+00,9.99999e-01,0.00000e+00,9.58952e-01,9.99999e-01
1.448451389e+00,0.00000e+00,9.99999e-01,0.00000e+00,9.59746e-01,9.99999e-01
1.455693646e+00,2.57329e-224,9.99999e-01,2.67904e-224,9.60525e-01,9.99999e-01
1.462972114e+00,4.68390e-109,9.99999e-01,4.87252e-109,9.61289e-01,9.99999e-01
1.470286975e+00,3.37767e-46,9.99999e-01,3.51094e-46,9.62039e-01,9.99999e-01
