#,Wave/freq,Total,O2,CO2,Rayleigh,CIA
4.000000000e-01,1.54991e-02,9.99999e-01,9.99999e-01,1.54991e-02,9.99999e-01
4.020000000e-01,1.68302e-02,9.99999e-01,9.99999e-01,1.68302e-02,9.99999e-01
4.040100000e-01,1.82444e-02,9.99999e-01,9.99999e-01,1.82444e-02,9.99999e-01
4.060300500e-01,1.97459e-02,9.99999e-01,9.99999e-01,1.97459e-02,9.99999e-01
4.080602003e-01,2.13376e-02,9.99999e-01,9.99999e-01,2.13376e-02,9.99999e-01
4.101005013e-01,2.30223e-02,9.99999e-01,9.99999e-01,2.30223e-02,9.99999e-01
4.121510038e-01,2.48028e-02,9.99999e-01,9.99999e-01,2.48028e-02,9.99999e-01
4.142117588e-01,2.66817e-02,9.99999e-01,9.99999e-01,2.66817e-02,9.99999e-01
4.162828176e-01,2.86615e-02,9.99999e-01,9.99999e-01,2.86615e-02,9.99999e-01
4.183642317e-01,3.07448e-02,9.99999e-01,9.99999e-01,3.07448e-02,9.99999e-01
4.204560528e-01,3.29338e-02,9.99999e-01,9.99999e-01,3.29338e-02,9.99999e-01
4.225583331e-01,3.52307e-02,9.99999e-01,9.99999e-01,3.52307e-02,9.99999e-01
4.246711247e-01,3.76377e-02,9.99999e-01,9.99999e-01,3.76377e-02,9.99999e-01
4.267944804e-01,4.01567e-02,9.99999e-01,9.99999e-01,4.01567e-02,9.99999e-01
4.289284528e-01,4.27895e-02,9.99999e-01,9.99999e-01,4.27895e-02,9.99999e-01
4.310730950e-01,4.55378e-02,9.99999e-01,9.99999e-01,4.55378e-02,9.99999e-01
4.332284605e-01,4.84030e-02,9.99999e-01,9.99999e-01,4.84030e-02,9.99999e-01
4.353946028e-01,5.13866e-02,9.99999e-01,9.99999e-01,5.13866e-02,9.99999e-01
4.375715758e-01,5.44896e-02,9.99999e-01,9.99999e-01,5.44896e-02,9.99999e-01
4.397594337e-01,5.77131e-02,9.99999e-01,9.99999e-01,5.77131e-02,9.99999e-01
4.419582309e-01,6.10580e-02,9.99999e-01,9.99999e-01,6.10580e-02,9.99999e-01
4.441680220e-01,6.45248e-02,9.99999e-01,9.99999e-01,6.45248e-02,9.99999e-01
4.463888621e-01,6.81142e-02,9.99999e-01,9.99999e-01,6.81142e-02,9.99999e-01
4.486208064e-01,7.18264e-02,9.99999e-01,9.99999e-01,7.18264e-02,9.99999e-01
4.508639105e-01,7.56616e-02,9.99999e-01,9.99999e-01,7.56616e-02,9.99999e-01
4.531182300e-01,7.96197e-02,9.99999e-01,9.99999e-01,7.96197e-02,9.99999e-01
4.553838212e-01,8.37005e-02,9.99999e-01,9.99999e-01,8.37005e-02,9.99999e-01
4.576607403e-01,8.79036e-02,9.99999e-01,9.99999e-01,8.79036e-02,9.99999e-01
4.599490440e-01,9.22285e-02,9.99999e-01,9.99999e-01,9.22285e-02,9.99999e-01
4.622487892e-01,9.66745e-02,9.99999e-01,9.99999e-01,9.66745e-02,9.99999e-01
4.645600332e-01,1.01241e-01,9.99999e-01,9.99999e-01,1.01241e-01,9.99999e-01
4.668828333e-01,1.05926e-01,9.99999e-01,9.99999e-01,1.05926e-01,9.99999e-01
4.692172475e-01,1.10729e-01,9.99999e-01,9.99999e-01,1.10729e-01,9.99999e-01
4.715633337e-01,1.15648e-01,9.99999e-01,9.99999e-01,1.15648e-01,9.99999e-01
4.739211504e-01,1.20682e-01,9.99999e-01,9.99999e-01,1.20682e-01,9.99999e-01
4.762907561e-01,1.25830e-01,9.99999e-01,9.99999e-01,1.25830e-01,9.99999e-01
4.786722099e-01,1.31088e-01,9.99999e-01,9.99999e-01,1.31088e-01,9.99999e-01
4.810655710e-01,1.36457e-01,9.99999e-01,9.99999e-01,1.36457e-01,9.99999e-01
4.834708988e-01,1.41932e-01,9.99999e-01,9.99999e-01,1.41932e-01,9.99999e-01
4.858882533e-01,1.47513e-01,9.99999e-01,9.99999e-01,1.47513e-01,9.99999e-01
4.883176946e-01,1.53196e-01,9.99999e-01,9.99999e-01,1.53196e-01,9.99999e-01
4.907592831e-01,1.58979e-01,9.99999e-01,9.99999e-01,1.58979e-01,9.99999e-01
4.932130795e-01,1.64860e-01,9.99999e-01,9.99999e-01,1.64860e-01,9.99999e-01
4.956791449e-01,1.70836e-01,9.99999e-01,9.99999e-01,1.70836e-01,9.99999e-01
4.981575406e-01,1.76904e-01,9.99999e-01,9.99999e-01,1.76904e-01,9.99999e-01
5.006483283e-01,1.83062e-01,9.99999e-01,9.99999e-01,1.83062e-01,9.99999e-01
5.031515699e-01,1.89305e-01,9.99999e-01,9.99999e-01,1.89305e-01,9.99999e-01
5.056673278e-01,1.95632e-01,9.99999e-01,9.99999e-01,1.95632e-01,9.99999e-01
5.081956644e-01,2.02040e-01,9.99999e-01,9.99999e-01,2.02040e-01,9.99999e-01
5.107366428e-01,2.08524e-01,9.99999e-01,9.99999e-01,2.08524e-01,9.99999e-01
5.132903260e-01,2.15082e-01,9.99999e-01,9.99999e-01,2.15082e-01,9.99999e-01
5.158567776e-01,2.21711e-01,9.99999e-01,9.99999e-01,2.21711e-01,9.99999e-01
5.184360615e-01,2.28407e-01,9.99999e-01,9.99999e-01,2.28407e-01,9.99999e-01
5.210282418e-01,2.35167e-01,9.99999e-01,9.99999e-01,2.35167e-01,9.99999e-01
5.236333830e-01,2.41988e-01,9.99999e-01,9.99999e-01,2.41988e-01,9.99999e-01
5.262515499e-01,2.48865e-01,9.99999e-01,9.99999e-01,2.48865e-01,9.99999e-01
5.288828077e-01,2.55797e-01,9.99999e-01,9.99999e-01,2.55797e-01,9.99999e-01
5.315272217e-01,2.62779e-01,9.99999e-01,9.99999e-01,2.62779e-01,9.99999e-01
5.341848578e-01,2.69809e-01,9.99999e-01,9.99999e-01,2.69809e-01,9.99999e-01
5.368557821e-01,2.76881e-01,9.99999e-01,9.99999e-01,2.76881e-01,9.99999e-01
5.395400610e-01,2.83995e-01,9.99999e-01,9.99999e-01,2.83995e-01,9.99999e-01
5.422377613e-01,2.91144e-01,9.99999e-01,9.99999e-01,2.91144e-01,9.99999e-01
5.449489501e-01,2.98328e-01,9.99999e-01,9.99999e-01,2.98328e-01,9.99999e-01
5.476736949e-01,3.05541e-01,9.99999e-01,9.99999e-01,3.05541e-01,9.99999e-01
5.504120634e-01,3.12781e-01,9.99999e-01,9.99999e-01,3.12781e-01,9.99999e-01
5.531641237e-01,3.20045e-01,9.99999e-01,9.99999e-01,3.20045e-01,9.99999e-01
5.559299443e-01,3.27329e-01,9.99999e-01,9.99999e-01,3.27329e-01,9.99999e-01
5.587095940e-01,3.34630e-01,9.99999e-01,9.99999e-01,3.34630e-01,9.99999e-01
5.615031420e-01,3.41945e-01,9.99999e-01,9.99999e-01,3.41945e-01,9.99999e-01
5.643106577e-01,3.49270e-01,9.99999e-01,9.99999e-01,3.49270e-01,9.99999e-01
5.671322110e-01,3.56603e-01,9.99999e-01,9.99999e-01,3.56603e-01,9.99999e-01
5.699678720e-01,3.63940e-01,9.99999e-01,9.99999e-01,3.63940e-01,9.99999e-01
5.728177114e-01,3.71280e-01,9.99999e-01,9.99999e-01,3.71280e-01,9.99999e-01
5.756818000e-01,3.78617e-01,9.99999e-01,9.99999e-01,3.78617e-01,9.99999e-01
5.785602090e-01,3.85951e-01,9.99999e-01,9.99999e-01,3.85951e-01,9.99999e-01
5.814530100e-01,3.93278e-01,9.99999e-01,9.99999e-01,3.93278e-01,9.99999e-01
5.843602750e-01,4.00594e-01,9.99999e-01,9.99999e-01,4.00594e-01,9.99999e-01
5.872820764e-01,4.07899e-01,9.99999e-01,9.99999e-01,4.07899e-01,9.99999e-01
5.902184868e-01,4.15188e-01,9.99999e-01,9.99999e-01,4.15188e-01,9.99999e-01
5.931695792e-01,4.22460e-01,9.99999e-01,9.99999e-01,4.22460e-01,9.99999e-01
5.961354271e-01,4.29712e-01,9.99999e-01,9.99999e-01,4.29712e-01,9.99999e-01
5.991161043e-01,4.36941e-01,9.99999e-01,9.99999e-01,4.36941e-01,9.99999e-01
6.021116848e-01,4.44146e-01,9.99999e-01,9.99999e-01,4.44146e-01,9.99999e-01
6.051222432e-01,4.51323e-01,9.99999e-01,9.99999e-01,4.51323e-01,9.99999e-01
6.081478544e-01,4.58471e-01,9.99999e-01,9.99999e-01,4.58471e-01,9.99999e-01
6.111885937e-01,4.65588e-01,9.99999e-01,9.99999e-01,4.65588e-01,9.99999e-01
6.142445367e-01,4.72672e-01,9.99999e-01,9.99999e-01,4.72672e-01,9.99999e-01
6.173157594e-01,4.79720e-01,9.99999e-01,9.99999e-01,4.79720e-01,9.99999e-01
6.204023382e-01,4.86732e-01,9.99999e-01,9.99999e-01,4.86732e-01,9.99999e-01
6.235043498e-01,4.93704e-01,9.99999e-01,9.99999e-01,4.93704e-01,9.99999e-01
6.266218716e-01,5.00635e-01,9.99999e-01,9.99999e-01,5.00635e-01,9.99999e-01
6.297549810e-01,5.07524e-01,9.99999e-01,9.99999e-01,5.07524e-01,9.99999e-01
6.329037559e-01,5.14368e-01,9.99999e-01,9.99999e-01,5.14368e-01,9.99999e-01
6.360682746e-01,5.21167e-01,9.99999e-01,9.99999e-01,5.21167e-01,9.99999e-01
6.392486160e-01,5.27919e-01,9.99999e-01,9.99999e-01,5.27919e-01,9.99999e-01
6.424448591e-01,5.34623e-01,9.99999e-01,9.99999e-01,5.34623e-01,9.99999e-01
6.456570834e-01,5.41277e-01,9.99999e-01,9.99999e-01,5.41277e-01,9.99999e-01
6.488853688e-01,5.47879e-01,9.99999e-01,9.99999e-01,5.47879e-01,9.99999e-01
6.521297956e-01,5.54430e-01,9.99999e-01,9.99999e-01,5.54430e-01,9.99999e-01
6.553904446e-01,5.60927e-01,9.99999e-01,9.99999e-01,5.60927e-01,9.99999e-01
6.586673968e-01,5.67369e-01,9.99999e-01,9.99999e-01,5.67369e-01,9.99999e-01
6.619607338e-01,5.73757e-01,9.99999e-01,9.99999e-01,5.73757e-01,9.99999e-01
6.652705375e-01,5.80087e-01,9.99999e-01,9.99999e-01,5.80087e-01,9.99999e-01
6.685968902e-01,5.86361e-01,9.99999e-01,9.99999e-01,5.86361e-01,9.99999e-01
6.719398746e-01,5.92576e-01,9.99999e-01,9.99999e-01,5.92576e-01,9.99999e-01
6.752995740e-01,5.98733e-01,9.99999e-01,9.99999e-01,5.98733e-01,9.99999e-01
6.786760719e-01,6.04830e-01,9.99999e-01,9.99999e-01,6.04830e-01,9.99999e-01
6.820694522e-01,6.10867e-01,9.99999e-01,9.99999e-01,6.10867e-01,9.99999e-01
6.854797995e-01,6.16843e-01,9.99999e-01,9.99999e-01,6.16843e-01,9.99999e-01
6.889071985e-01,6.22758e-01,9.99999e-01,9.99999e-01,6.22758e-01,9.99999e-01
6.923517345e-01,6.28611e-01,9.99999e-01,9.99999e-01,6.28611e-01,9.99999e-01
6.958134932e-01,6.34402e-01,9.99999e-01,9.99999e-01,6.34402e-01,9.99999e-01
6.992925606e-01,6.40130e-01,9.99999e-01,9.99999e-01,6.40130e-01,9.99999e-01
7.027890234e-01,6.45795e-01,9.99999e-01,9.99999e-01,6.45795e-01,9.99999e-01
7.063029686e-01,6.51397e-01,9.99999e-01,9.99999e-01,6.51397e-01,9.99999e-01
7.098344834e-01,6.56936e-01,9.99999e-01,9.99999e-01,6.56936e-01,9.99999e-01
7.133836558e-01,6.62411e-01,9.99999e-01,9.99999e-01,6.62411e-01,9.99999e-01
7.169505741e-01,6.67822e-01,9.99999e-01,9.99999e-01,6.67822e-01,9.99999e-01
7.205353270e-01,6.73169e-01,9.99999e-01,9.99999e-01,6.73169e-01,9.99999e-01
7.241380036e-01,6.78452e-01,9.99999e-01,9.99999e-01,6.78452e-01,9.99999e-01
7.277586936e-01,6.83670e-01,9.99999e-01,9.99999e-01,6.83670e-01,9.99999e-01
7.313974871e-01,6.88825e-01,9.99999e-01,9.99999e-01,6.88825e-01,9.99999e-01
7.350544745e-01,6.93916e-01,9.99999e-01,9.99999e-01,6.93916e-01,9.99999e-01
7.387297469e-01,6.98942e-01,9.99999e-01,9.99999e-01,6.98942e-01,9.99999e-01
7.424233956e-01,7.03905e-01,9.99999e-01,9.99999e-01,7.03905e-01,9.99999e-01
7.461355126e-01,7.08804e-01,9.99999e-01,9.99999e-01,7.08804e-01,9.99999e-01
7.498661902e-01,7.13639e-01,9.99999e-01,9.99999e-01,7.13639e-01,9.99999e-01
7.536155211e-01,7.18410e-01,9.99999e-01,9.99999e-01,7.18410e-01,9.99999e-01
7.573835987e-01,7.23119e-01,9.99999e-01,9.99999e-01,7.23119e-01,9.99999e-01
7.611705167e-01,7.27764e-01,9.99999e-01,9.99999e-01,7.27764e-01,9.99999e-01
7.649763693e-01,7.32346e-01,9.99999e-01,9.99999e-01,7.32346e-01,9.99999e-01
7.688012511e-01,7.36866e-01,9.99999e-01,9.99999e-01,7.36866e-01,9.99999e-01
7.726452574e-01,7.41324e-01,9.99999e-01,9.99999e-01,7.41324e-01,9.99999e-01
7.765084837e-01,7.45720e-01,9.99999e-01,9.99999e-01,7.45720e-01,9.99999e-01
7.803910261e-01,7.39108e-01,9.99999e-01,9.85405e-01,7.50054e-01,9.99999e-01
7.842929812e-01,7.09041e-01,9.99999e-01,9.39964e-01,7.54327e-01,9.99999e-01
7.882144461e-01,7.09623e-01,9.99999e-01,9.35511e-01,7.58540e-01,9.99999e-01
7.921555184e-01,7.34126e-01,9.99999e-01,9.62545e-01,7.62692e-01,9.99999e-01
7.961162960e-01,7.47533e-01,9.99999e-01,9.74893e-01,7.66784e-01,9.99999e-01
8.000968774e-01,7.60269e-01,9.99999e-01,9.86315e-01,7.70816e-01,9.99999e-01
8.040973618e-01,7.69288e-01,9.99999e-01,9.92898e-01,7.74790e-01,9.99999e-01
8.081178486e-01,7.76161e-01,9.99999e-01,9.96732e-01,7.78705e-01,9.99999e-01
8.121584379e-01,7.81773e-01,9.99999e-01,9.98991e-01,7.82561e-01,9.99999e-01
8.162192301e-01,7.86186e-01,9.99999e-01,9.99777e-01,7.86361e-01,9.99999e-01
8.203003262e-01,7.90100e-01,9.99999e-01,9.99996e-01,7.90103e-01,9.99999e-01
8.244018279e-01,7.93788e-01,9.99999e-01,9.99999e-01,7.93788e-01,9.99999e-01
8.285238370e-01,7.97417e-01,9.99999e-01,9.99999e-01,7.97417e-01,9.99999e-01
8.326664562e-01,8.00991e-01,9.99999e-01,9.99999e-01,8.00991e-01,9.99999e-01
8.368297885e-01,8.04509e-01,9.99999e-01,9.99999e-01,8.04509e-01,9.99999e-01
8.410139374e-01,8.07973e-01,9.99999e-01,9.99999e-01,8.07973e-01,9.99999e-01
8.452190071e-01,8.11384e-01,9.99999e-01,9.99999e-01,8.11384e-01,9.99999e-01
8.494451021e-01,8.14740e-01,9.99999e-01,9.99999e-01,8.14740e-01,9.99999e-01
8.536923276e-01,8.18044e-01,9.99999e-01,9.99999e-01,8.18044e-01,9.99999e-01
8.579607893e-01,8.21296e-01,9.99999e-01,9.99999e-01,8.21296e-01,9.99999e-01
8.622505932e-01,8.24496e-01,9.99999e-01,9.99999e-01,8.24496e-01,9.99999e-01
8.665618462e-01,7.94565e-01,9.99999e-01,9.60031e-01,8.27645e-01,9.99999e-01
8.708946554e-01,7.07687e-01,9.99999e-01,8.51871e-01,8.30743e-01,9.99999e-01
8.752491287e-01,7.34291e-01,9.99999e-01,8.80664e-01,8.33791e-01,9.99999e-01
8.796253743e-01,7.81069e-01,9.99999e-01,9.33410e-01,8.36790e-01,9.99999e-01
8.840235012e-01,8.10437e-01,9.99999e-01,9.65103e-01,8.39741e-01,9.99999e-01
8.884436187e-01,8.30964e-01,9.99999e-01,9.86139e-01,8.42643e-01,9.99999e-01
8.928858368e-01,8.40734e-01,9.99999e-01,9.94365e-01,8.45497e-01,9.99999e-01
8.973502660e-01,8.47144e-01,9.99999e-01,9.98631e-01,8.48305e-01,9.99999e-01
9.018370173e-01,8.50938e-01,9.99999e-01,9.99848e-01,8.51066e-01,9.99999e-01
9.063462024e-01,8.50441e-01,9.99999e-01,9.96086e-01,8.53781e-01,9.99999e-01
9.108779334e-01,8.48844e-01,9.99999e-01,9.91116e-01,8.56451e-01,9.99999e-01
9.154323231e-01,8.57284e-01,9.99999e-01,9.97912e-01,8.59077e-01,9.99999e-01
9.200094847e-01,8.34682e-01,9.99999e-01,9.68692e-01,8.61658e-01,9.99999e-01
9.246095321e-01,8.27186e-01,9.99999e-01,9.57173e-01,8.64196e-01,9.99999e-01
9.292325798e-01,8.37240e-01,9.99999e-01,9.66018e-01,8.66691e-01,9.99999e-01
9.338787427e-01,8.40740e-01,9.99999e-01,9.67319e-01,8.69144e-01,9.99999e-01
9.385481364e-01,8.50589e-01,9.99999e-01,9.75943e-01,8.71555e-01,9.99999e-01
9.432408771e-01,8.61024e-01,9.99999e-01,9.85237e-01,8.73925e-01,9.99999e-01
9.479570815e-01,8.69594e-01,9.99999e-01,9.92398e-01,8.76254e-01,9.99999e-01
9.526968669e-01,8.75319e-01,9.99999e-01,9.96328e-01,8.78544e-01,9.99999e-01
9.574603512e-01,8.79411e-01,9.99999e-01,9.98429e-01,8.80793e-01,9.99999e-01
9.622476530e-01,8.82572e-01,9.99999e-01,9.99509e-01,8.83005e-01,9.99999e-01
9.670588912e-01,8.85048e-01,9.99999e-01,9.99852e-01,8.85177e-01,9.99999e-01
9.718941857e-01,8.87303e-01,9.99999e-01,9.99989e-01,8.87312e-01,9.99999e-01
9.767536566e-01,8.89410e-01,9.99999e-01,9.99999e-01,8.89410e-01,9.99999e-01
9.816374249e-01,8.91472e-01,9.99999e-01,9.99999e-01,8.91472e-01,9.99999e-01
9.865456120e-01,8.93497e-01,9.99999e-01,9.99999e-01,8.93497e-01,9.99999e-01
9.914783401e-01,8.95487e-01,9.99999e-01,9.99999e-01,8.95487e-01,9.99999e-01
9.964357318e-01,8.97441e-01,9.99999e-01,9.99999e-01,8.97441e-01,9.99999e-01
1.001417910e+00,8.99361e-01,9.99999e-01,9.99999e-01,8.99361e-01,9.99999e-01
1.006425000e+00,9.01248e-01,9.99999e-01,9.99999e-01,9.01248e-01,9.99999e-01
1.011457125e+00,9.03100e-01,9.99999e-01,9.99999e-01,9.03100e-01,9.99999e-01
1.016514411e+00,9.04920e-01,9.99999e-01,9.99999e-01,9.04920e-01,9.99999e-01
1.021596983e+00,9.06689e-01,9.99999e-01,9.99978e-01,9.06708e-01,9.99999e-01
1.026704968e+00,9.07082e-01,9.99999e-01,9.98478e-01,9.08464e-01,9.99999e-01
1.031838492e+00,8.88459e-01,9.99999e-01,9.76126e-01,9.10188e-01,9.99999e-01
1.036997685e+00,3.01634e-01,9.99999e-01,3.30782e-01,9.11881e-01,9.99999e-01
1.042182673e+00,3.71209e-01,9.99999e-01,4.06339e-01,9.13544e-01,9.99999e-01
1.047393587e+00,3.33951e-01,9.99999e-01,3.64903e-01,9.15177e-01,9.99999e-01
1.052630555e+00,6.72862e-02,9.99999e-01,7.33938e-02,9.16781e-01,9.99999e-01
1.057893707e+00,1.19384e-01,9.99999e-01,1.29998e-01,9.18356e-01,9.99999e-01
1.063183176e+00,2.10917e-01,9.99999e-01,2.29282e-01,9.19902e-01,9.99999e-01
1.068499092e+00,3.47336e-01,9.99999e-01,3.76957e-01,9.21420e-01,9.99999e-01
1.073841587e+00,4.99174e-01,9.99999e-01,5.40868e-01,9.22911e-01,9.99999e-01
1.079210795e+00,6.27640e-01,9.99999e-01,6.78988e-01,9.24375e-01,9.99999e-01
1.084606849e+00,7.49767e-01,9.99999e-01,8.09848e-01,9.25812e-01,9.99999e-01
1.090029883e+00,8.31351e-01,9.99999e-01,8.96602e-01,9.27222e-01,9.99999e-01
1.095480033e+00,8.80059e-01,9.99999e-01,9.47718e-01,9.28607e-01,9.99999e-01
1.100957433e+00,9.06256e-01,9.99999e-01,9.74502e-01,9.29967e-01,9.99999e-01
1.106462220e+00,9.21416e-01,9.99999e-01,9.89385e-01,9.31301e-01,9.99999e-01
1.111994531e+00,9.28932e-01,9.99999e-01,9.96054e-01,9.32612e-01,9.99999e-01
1.117554504e+00,9.32998e-01,9.99999e-01,9.99036e-01,9.33898e-01,9.99999e-01
1.123142276e+00,9.35101e-01,9.99999e-01,9.99936e-01,9.35160e-01,9.99999e-01
1.128757988e+00,9.36399e-01,9.99999e-01,9.99999e-01,9.36399e-01,9.99999e-01
1.134401778e+00,9.37615e-01,9.99999e-01,9.99999e-01,9.37615e-01,9.99999e-01
1.140073787e+00,9.38809e-01,9.99999e-01,9.99999e-01,9.38809e-01,9.99999e-01
1.145774156e+00,9.39981e-01,9.99999e-01,9.99999e-01,9.39981e-01,9.99999e-01
1.151503026e+00,9.41131e-01,9.99999e-01,9.99999e-01,9.41131e-01,9.99999e-01
1.157260541e+00,9.42259e-01,9.99999e-01,9.99999e-01,9.42259e-01,9.99999e-01
1.163046844e+00,9.43367e-01,9.99999e-01,9.99999e-01,9.43367e-01,9.99999e-01
1.168862078e+00,9.44454e-01,9.99999e-01,9.99999e-01,9.44454e-01,9.99999e-01
1.174706389e+00,9.45520e-01,9.99999e-01,9.99999e-01,9.45520e-01,9.99999e-01
1.180579921e+00,9.46567e-01,9.99999e-01,9.99999e-01,9.46567e-01,9.99999e-01
1.186482820e+00,9.47592e-01,9.99999e-01,9.99996e-01,9.47594e-01,9.99999e-01
1.192415234e+00,9.43404e-01,9.99999e-01,9.94519e-01,9.48603e-01,9.99999e-01
1.198377311e+00,5.65118e-01,9.99999e-01,5.95116e-01,9.49592e-01,9.99999e-01
1.204369197e+00,7.38203e-06,9.99999e-01,7.76595e-06,9.50562e-01,9.99999e-01
1.210391043e+00,8.96180e-18,9.99999e-01,9.41845e-18,9.51515e-01,9.99999e-01
1.216442998e+00,1.24775e-15,9.99999e-01,1.31004e-15,9.52449e-01,9.99999e-01
1.222525213e+00,2.16958e-15,9.99999e-01,2.27570e-15,9.53366e-01,9.99999e-01
1.228637839e+00,8.41199e-12,9.99999e-01,8.81513e-12,9.54266e-01,9.99999e-01
1.234781029e+00,2.23906e-08,9.99999e-01,2.34420e-08,9.55149e-01,9.99999e-01
1.240954934e+00,1.08319e-05,9.99999e-01,1.13303e-05,9.56015e-01,9.99999e-01
1.247159708e+00,1.62096e-03,9.99999e-01,1.69403e-03,9.56865e-01,9.99999e-01
1.253395507e+00,2.95740e-02,9.99999e-01,3.08802e-02,9.57698e-01,9.99999e-01
1.259662485e+00,1.34086e-01,9.99999e-01,1.39889e-01,9.58516e-01,9.99999e-01
1.265960797e+00,3.07157e-01,9.99999e-01,3.20182e-01,9.59319e-01,9.99999e-01
1.272290601e+00,6.03305e-01,9.99999e-01,6.28372e-01,9.60106e-01,9.99999e-01
1.278652054e+00,5.40112e-01,9.99999e-01,5.62102e-01,9.60878e-01,9.99999e-01
1.285045314e+00,4.30439e-02,9.99999e-01,4.47611e-02,9.61636e-01,9.99999e-01
1.291470541e+00,9.32062e-03,9.99999e-01,9.68497e-03,9.62380e-01,9.99999e-01
1.297927893e+00,6.75080e-02,9.99999e-01,7.00938e-02,9.63109e-01,9.99999e-01
1.304417533e+00,4.15894e-01,9.99999e-01,4.31504e-01,9.63824e-01,9.99999e-01
1.310939621e+00,1.23450e-01,9.99999e-01,1.27990e-01,9.64526e-01,9.99999e-01
1.317494319e+00,1.61759e-06,9.99999e-01,1.67589e-06,9.65214e-01,9.99999e-01
1.324081790e+00,6.40211e-05,9.99999e-01,6.62820e-05,9.65889e-01,9.99999e-01
1.330702199e+00,6.40735e-03,9.99999e-01,6.62908e-03,9.66552e-01,9.99999e-01
1.337355710e+00,4.32540e-03,9.99999e-01,4.47207e-03,9.67201e-01,9.99999e-01
1.344042489e+00,1.67552e-03,9.99999e-01,1.73120e-03,9.67839e-01,9.99999e-01
1.350762701e+00,5.19481e-03,9.99999e-01,5.36396e-03,9.68464e-01,9.99999e-01
1.357516515e+00,3.04877e-02,9.99999e-01,3.14605e-02,9.69077e-01,9.99999e-01
1.364304097e+00,1.14838e-01,9.99999e-01,1.18429e-01,9.69678e-01,9.99999e-01
1.371125618e+00,3.13074e-01,9.99999e-01,3.22667e-01,9.70268e-01,9.99999e-01
1.377981246e+00,3.95370e-01,9.99999e-01,4.07242e-01,9.70847e-01,9.99999e-01
1.384871152e+00,5.75788e-01,9.99999e-01,5.92731e-01,9.71414e-01,9.99999e-01
1.391795508e+00,5.99788e-01,9.99999e-01,6.17083e-01,9.71971e-01,9.99999e-01
1.398754485e+00,7.23010e-01,9.99999e-01,7.43441e-01,9.72517e-01,9.99999e-01
1.405748258e+00,7.81716e-01,9.99999e-01,8.03364e-01,9.73052e-01,9.99999e-01
1.412776999e+00,8.48141e-01,9.99999e-01,8.71159e-01,9.73578e-01,9.99999e-01
1.419840884e+00,7.92798e-01,9.99999e-01,8.13883e-01,9.74093e-01,9.99999e-01
1.426940089e+00,1.13309e-01,9.99999e-01,1.16262e-01,9.74598e-01,9.99999e-01
1.434074789e+00,3.61694e-245,9.99999e-01,3.70932e-245,9.75093e-01,9.99999e-01
1.441245163e+00,0.00000e+00,9.99999e-01,0.00000e+00,9.75579e-01,9.99999e-01
1.448451389e+00,3.47682e-297,9.99999e-01,3.56211e-297,9.76056e-01,9.99999e-01
1.455693646e+00,2.87365e-133,9.99999e-01,2.94273e-133,9.76523e-01,9.99999e-01
1.462972114e+00,2.89681e-65,9.99999e-01,2.96506e-65,9.76981e-01,9.99999e-01
1.470286975e+00,3.57895e-28,9.99999e-01,3.66159e-28,9.77431e-01,9.99999e-01
