#,Wave/freq,Total,O2,CO2,Rayleigh,CIA
4.000000000e-01,6.30915e-22,9.99999e-01,9.99999e-01,6.30915e-22,9.99999e-01
4.020000000e-01,1.65635e-21,9.99999e-01,9.99999e-01,1.65635e-21,9.99999e-01
4.040100000e-01,4.26211e-21,9.99999e-01,9.99999e-01,4.26211e-21,9.99999e-01
4.060300500e-01,1.07644e-20,9.99999e-01,9.99999e-01,1.07644e-20,9.99999e-01
4.080602003e-01,2.66936e-20,9.99999e-01,9.99999e-01,2.66936e-20,9.99999e-01
4.101005013e-01,6.50182e-20,9.99999e-01,9.99999e-01,6.50182e-20,9.99999e-01
4.121510038e-01,1.55605e-19,9.99999e-01,9.99999e-01,1.55605e-19,9.99999e-01
4.142117588e-01,3.66040e-19,9.99999e-01,9.99999e-01,3.66040e-19,9.99999e-01
4.162828176e-01,8.46633e-19,9.99999e-01,9.99999e-01,8.46633e-19,9.99999e-01
4.183642317e-01,1.92605e-18,9.99999e-01,9.99999e-01,1.92605e-18,9.99999e-01
4.204560528e-01,4.31111e-18,9.99999e-01,9.99999e-01,4.31111e-18,9.99999e-01
4.225583331e-01,9.49728e-18,9.99999e-01,9.99999e-01,9.49728e-18,9.99999e-01
4.246711247e-01,2.05984e-17,9.99999e-01,9.99999e-01,2.05984e-17,9.99999e-01
4.267944804e-01,4.39974e-17,9.99999e-01,9.99999e-01,4.39974e-17,9.99999e-01
4.289284528e-01,9.25785e-17,9.99999e-01,9.99999e-01,9.25785e-17,9.99999e-01
4.310730950e-01,1.91960e-16,9.99999e-01,9.99999e-01,1.91960e-16,9.99999e-01
4.332284605e-01,3.92335e-16,9.99999e-01,9.99999e-01,3.92335e-16,9.99999e-01
4.353946028e-01,7.90624e-16,9.99999e-01,9.99999e-01,7.90624e-16,9.99999e-01
4.375715758e-01,1.57135e-15,9.99999e-01,9.99999e-01,1.57135e-15,9.99999e-01
4.397594337e-01,3.08094e-15,9.99999e-01,9.99999e-01,3.08094e-15,9.99999e-01
4.419582309e-01,5.96098e-15,9.99999e-01,9.99999e-01,5.96098e-15,9.99999e-01
4.441680220e-01,1.13839e-14,9.99999e-01,9.99999e-01,1.13839e-14,9.99999e-01
4.463888621e-01,2.14641e-14,9.99999e-01,9.99999e-01,2.14641e-14,9.99999e-01
4.486208064e-01,3.99664e-14,9.99999e-01,9.99999e-01,3.99664e-14,9.99999e-01
4.508639105e-01,7.35098e-14,9.99999e-01,9.99999e-01,7.35098e-14,9.99999e-01
4.531182300e-01,1.33588e-13,9.99999e-01,9.99999e-01,1.33588e-13,9.99999e-01
4.553838212e-01,2.39919e-13,9.99999e-01,9.99999e-01,2.39919e-13,9.99999e-01
4.576607403e-01,4.25932e-13,9.99999e-01,9.99999e-01,4.25932e-13,9.99999e-01
4.599490440e-01,7.47638e-13,9.99999e-01,9.99999e-01,7.47638e-13,9.99999e-01
4.622487892e-01,1.29783e-12,9.99999e-01,9.99999e-01,1.29783e-12,9.99999e-01
4.645600332e-01,2.22848e-12,9.99999e-01,9.99999e-01,2.22848e-12,9.99999e-01
4.668828333e-01,3.78587e-12,9.99999e-01,9.99999e-01,3.78587e-12,9.99999e-01
4.692172475e-01,6.36465e-12,9.99999e-01,9.99999e-01,6.36465e-12,9.99999e-01
4.715633337e-01,1.05908e-11,9.99999e-01,9.99999e-01,1.05908e-11,9.99999e-01
4.739211504e-01,1.74467e-11,9.99999e-01,9.99999e-01,1.74467e-11,9.99999e-01
4.762907561e-01,2.84587e-11,9.99999e-01,9.99999e-01,2.84587e-11,9.99999e-01
4.786722099e-01,4.59749e-11,9.99999e-01,9.99999e-01,4.59749e-11,9.99999e-01
4.810655710e-01,7.35719e-11,9.99999e-01,9.99999e-01,7.35719e-11,9.99999e-01
4.834708988e-01,1.16646e-10,9.99999e-01,9.99999e-01,1.16646e-10,9.99999e-01
4.858882533e-01,1.83262e-10,9.99999e-01,9.99999e-01,1.83262e-10,9.99999e-01
4.883176946e-01,2.85366e-10,9.99999e-01,9.99999e-01,2.85366e-10,9.99999e-01
4.907592831e-01,4.40485e-10,9.99999e-01,9.99999e-01,4.40485e-10,9.99999e-01
4.932130795e-01,6.74119e-10,9.99999e-01,9.99999e-01,6.74119e-10,9.99999e-01
4.956791449e-01,1.02304e-09,9.99999e-01,9.99999e-01,1.02304e-09,9.99999e-01
4.981575406e-01,1.53982e-09,9.99999e-01,9.99999e-01,1.53982e-09,9.99999e-01
5.006483283e-01,2.29900e-09,9.99999e-01,9.99999e-01,2.29900e-09,9.99999e-01
5.031515699e-01,3.40541e-09,9.99999e-01,9.99999e-01,3.40541e-09,9.99999e-01
5.056673278e-01,5.00530e-09,9.99999e-01,9.99999e-01,5.00530e-09,9.99999e-01
5.081956644e-01,7.30107e-09,9.99999e-01,9.99999e-01,7.30107e-09,9.99999e-01
5.107366428e-01,1.05707e-08,9.99999e-01,9.99999e-01,1.05707e-08,9.99999e-01
5.132903260e-01,1.51932e-08,9.99999e-01,9.99999e-01,1.51932e-08,9.99999e-01
5.158567776e-01,2.16811e-08,9.99999e-01,9.99999e-01,2.16811e-08,9.99999e-01
5.184360615e-01,3.07229e-08,9.99999e-01,9.99999e-01,3.07229e-08,9.99999e-01
5.210282418e-01,4.32368e-08,9.99999e-01,9.99999e-01,4.32368e-08,9.99999e-01
5.236333830e-01,6.04384e-08,9.99999e-01,9.99999e-01,6.04384e-08,9.99999e-01
5.262515499e-01,8.39267e-08,9.99999e-01,9.99999e-01,8.39267e-08,9.99999e-01
5.288828077e-01,1.15790e-07,9.99999e-01,9.99999e-01,1.15790e-07,9.99999e-01
5.315272217e-01,1.58738e-07,9.99999e-01,9.99999e-01,1.58738e-07,9.99999e-01
5.341848578e-01,2.16264e-07,9.99999e-01,9.99999e-01,2.16264e-07,9.99999e-01
5.368557821e-01,2.92843e-07,9.99999e-01,9.99999e-01,2.92843e-07,9.99999e-01
5.395400610e-01,3.94171e-07,9.99999e-01,9.99999e-01,3.94171e-07,9.99999e-01
5.422377613e-01,5.27455e-07,9.99999e-01,9.99999e-01,5.27455e-07,9.99999e-01
5.449489501e-01,7.01759e-07,9.99999e-01,9.99999e-01,7.01759e-07,9.99999e-01
5.476736949e-01,9.28412e-07,9.99999e-01,9.99999e-01,9.28412e-07,9.99999e-01
5.504120634e-01,1.22150e-06,9.99999e-01,9.99999e-01,1.22150e-06,9.99999e-01
5.531641237e-01,1.59842e-06,9.99999e-01,9.99999e-01,1.59842e-06,9.99999e-01
5.559299443e-01,2.08057e-06,9.99999e-01,9.99999e-01,2.08057e-06,9.99999e-01
5.587095940e-01,2.69410e-06,9.99999e-01,9.99999e-01,2.69410e-06,9.99999e-01
5.615031420e-01,3.47077e-06,9.99999e-01,9.99999e-01,3.47077e-06,9.99999e-01
5.643106577e-01,4.44904e-06,9.99999e-01,9.99999e-01,4.44904e-06,9.99999e-01
5.671322110e-01,5.67513e-06,9.99999e-01,9.99999e-01,5.67513e-06,9.99999e-01
5.699678720e-01,7.20441e-06,9.99999e-01,9.99999e-01,7.20441e-06,9.99999e-01
5.728177114e-01,9.10276e-06,9.99999e-01,9.99999e-01,9.10276e-06,9.99999e-01
5.756818000e-01,1.14483e-05,9.99999e-01,9.99999e-01,1.14483e-05,9.99999e-01
5.785602090e-01,1.43332e-05,9.99999e-01,9.99999e-01,1.43332e-05,9.99999e-01
5.814530100e-01,1.78656e-05,9.99999e-01,9.99999e-01,1.78656e-05,9.99999e-01
5.843602750e-01,2.21719e-05,9.99999e-01,9.99999e-01,2.21719e-05,9.99999e-01
5.872820764e-01,2.73990e-05,9.99999e-01,9.99999e-01,2.73990e-05,9.99999e-01
5.902184868e-01,3.37171e-05,9.99999e-01,9.99999e-01,3.37171e-05,9.99999e-01
5.931695792e-01,4.13225e-05,9.99999e-01,9.99999e-01,4.13225e-05,9.99999e-01
5.961354271e-01,5.04403e-05,9.99999e-01,9.99999e-01,5.04403e-05,9.99999e-01
5.991161043e-01,6.13280e-05,9.99999e-01,9.99999e-01,6.13280e-05,9.99999e-01
6.021116848e-01,7.42785e-05,9.99999e-01,9.99999e-01,7.42785e-05,9.99999e-01
6.051222432e-01,8.96238e-05,9.99999e-01,9.99999e-01,8.96238e-05,9.99999e-01
6.081478544e-01,1.07739e-04,9.99999e-01,9.99999e-01,1.07739e-04,9.99999e-01
6.111885937e-01,1.29046e-04,9.99999e-01,9.99999e-01,1.29046e-04,9.99999e-01
6.142445367e-01,1.54016e-04,9.99999e-01,9.99999e-01,1.54016e-04,9.99999e-01
6.173157594e-01,1.83177e-04,9.99999e-01,9.99999e-01,1.83177e-04,9.99999e-01
6.204023382e-01,2.17114e-04,9.99999e-01,9.99999e-01,2.17114e-04,9.99999e-01
6.235043498e-01,2.56477e-04,9.99999e-01,9.99999e-01,2.56477e-04,9.99999e-01
6.266218716e-01,3.01980e-04,9.99999e-01,9.99999e-01,3.01980e-04,9.99999e-01
6.297549810e-01,3.54411e-04,9.99999e-01,9.99999e-01,3.54411e-04,9.99999e-01
6.329037559e-01,4.14632e-04,9.99999e-01,9.99999e-01,4.14632e-04,9.99999e-01
6.360682746e-01,4.83585e-04,9.99999e-01,9.99999e-01,4.83585e-04,9.99999e-01
6.392486160e-01,5.62293e-04,9.99999e-01,9.99999e-01,5.62293e-04,9.99999e-01
6.424448591e-01,6.51867e-04,9.99999e-01,9.99999e-01,6.51867e-04,9.99999e-01
6.456570834e-01,7.53507e-04,9.99999e-01,9.99999e-01,7.53507e-04,9.99999e-01
6.488853688e-01,8.68505e-04,9.99999e-01,9.99999e-01,8.68505e-04,9.99999e-01
6.521297956e-01,9.98250e-04,9.99999e-01,9.99999e-01,9.98250e-04,9.99999e-01
6.553904446e-01,1.14423e-03,9.99999e-01,9.99999e-01,1.14423e-03,9.99999e-01
6.586673968e-01,1.30802e-03,9.99999e-01,9.99999e-01,1.30802e-03,9.99999e-01
6.619607338e-01,1.49131e-03,9.99999e-01,9.99999e-01,1.49131e-03,9.99999e-01
6.652705375e-01,1.69589e-03,9.99999e-01,9.99999e-01,1.69589e-03,9.99999e-01
6.685968902e-01,1.92364e-03,9.99999e-01,9.99999e-01,1.92364e-03,9.99999e-01
6.719398746e-01,2.17655e-03,9.99999e-01,9.99999e-01,2.17655e-03,9.99999e-01
6.752995740e-01,2.45671e-03,9.99999e-01,9.99999e-01,2.45671e-03,9.99999e-01
6.786760719e-01,2.76631e-03,9.99999e-01,9.99999e-01,2.76631e-03,9.99999e-01
6.820694522e-01,3.10763e-03,9.99999e-01,9.99999e-01,3.10763e-03,9.99999e-01
6.854797995e-01,3.48305e-03,9.99999e-01,9.99999e-01,3.48305e-03,9.99999e-01
6.889071985e-01,3.89505e-03,9.99999e-01,9.99999e-01,3.89505e-03,9.99999e-01
6.923517345e-01,4.34616e-03,9.99999e-01,9.99999e-01,4.34616e-03,9.99999e-01
6.958134932e-01,4.83904e-03,9.99999e-01,9.99999e-01,4.83904e-03,9.99999e-01
6.992925606e-01,5.37639e-03,9.99999e-01,9.99999e-01,5.37639e-03,9.99999e-01
7.027890234e-01,5.96100e-03,9.99999e-01,9.99999e-01,5.96100e-03,9.99999e-01
7.063029686e-01,6.59572e-03,9.99999e-01,9.99999e-01,6.59572e-03,9.99999e-01
7.098344834e-01,7.28345e-03,9.99999e-01,9.99999e-01,7.28345e-03,9.99999e-01
7.133836558e-01,8.02715e-03,9.99999e-01,9.99999e-01,8.02715e-03,9.99999e-01
7.169505741e-01,8.82981e-03,9.99999e-01,9.99999e-01,8.82981e-03,9.99999e-01
7.205353270e-01,9.69447e-03,9.99999e-01,9.99999e-01,9.69447e-03,9.99999e-01
7.241380036e-01,1.06242e-02,9.99999e-01,9.99999e-01,1.06242e-02,9.99999e-01
7.277586936e-01,1.16220e-02,9.99999e-01,9.99999e-01,1.16220e-02,9.99999e-01
7.313974871e-01,1.26910e-02,9.99999e-01,9.99999e-01,1.26910e-02,9.99999e-01
7.350544745e-01,1.38343e-02,9.99999e-01,9.99999e-01,1.38343e-02,9.99999e-01
7.387297469e-01,1.50549e-02,9.99999e-01,9.99999e-01,1.50549e-02,9.99999e-01
7.424233956e-01,1.63558e-02,9.99999e-01,9.99999e-01,1.63558e-02,9.99999e-01
7.461355126e-01,1.77401e-02,9.99999e-01,9.99999e-01,1.77401e-02,9.99999e-01
7.498661902e-01,1.92108e-02,9.99999e-01,9.99999e-01,1.92108e-02,9.99999e-01
7.536155211e-01,2.07706e-02,9.99999e-01,9.99999e-01,2.07706e-02,9.99999e-01
7.573835987e-01,2.24225e-02,9.99999e-01,9.99999e-01,2.24225e-02,9.99999e-01
7.611705167e-01,2.41692e-02,9.99999e-01,9.99999e-01,2.41692e-02,9.99999e-01
7.649763693e-01,2.60133e-02,9.99999e-01,9.99999e-01,2.60133e-02,9.99999e-01
7.688012511e-01,2.79576e-02,9.99999e-01,9.99999e-01,2.79576e-02,9.99999e-01
7.726452574e-01,3.00044e-02,9.99999e-01,9.99999e-01,3.00044e-02,9.99999e-01
7.765084837e-01,3.21562e-02,9.99999e-01,9.99999e-01,3.21562e-02,9.99999e-01
7.803910261e-01,3.03602e-02,9.99999e-01,8.82173e-01,3.44152e-02,9.99999e-01
7.842929812e-01,1.92049e-02,9.99999e-01,5.22108e-01,3.67835e-02,9.99999e-01
7.882144461e-01,1.98685e-02,9.99999e-01,5.06034e-01,3.92631e-02,9.99999e-01
7.921555184e-01,2.71773e-02,9.99999e-01,6.49305e-01,4.18559e-02,9.99999e-01
7.961162960e-01,3.32122e-02,9.99999e-01,7.45276e-01,4.45636e-02,9.99999e-01
8.000968774e-01,4.03861e-02,9.99999e-01,8.52247e-01,4.73878e-02,9.99999e-01
8.040973618e-01,4.63228e-02,9.99999e-01,9.20384e-01,5.03298e-02,9.99999e-01
8.081178486e-01,5.13892e-02,9.99999e-01,9.62506e-01,5.33910e-02,9.99999e-01
8.121584379e-01,5.59109e-02,9.99999e-01,9.88308e-01,5.65722e-02,9.99999e-01
8.162192301e-01,5.97193e-02,9.99999e-01,9.97405e-01,5.98746e-02,9.99999e-01
8.203003262e-01,6.32964e-02,9.99999e-01,9.99962e-01,6.32987e-02,9.99999e-01
8.244018279e-01,6.68452e-02,9.99999e-01,9.99999e-01,6.68452e-02,9.99999e-01
8.285238370e-01,7.05145e-02,9.99999e-01,9.99999e-01,7.05145e-02,9.99999e-01
8.326664562e-01,7.43066e-02,9.99999e-01,9.99999e-01,7.43066e-02,9.99999e-01
8.368297885e-01,7.82217e-02,9.99999e-01,9.99999e-01,7.82217e-02,9.99999e-01
8.410139374e-01,8.22597e-02,9.99999e-01,9.99999e-01,8.22597e-02,9.99999e-01
8.452190071e-01,8.64201e-02,9.99999e-01,9.99999e-01,8.64201e-02,9.99999e-01
8.494451021e-01,9.07025e-02,9.99999e-01,9.99999e-01,9.07025e-02,9.99999e-01
8.536923276e-01,9.51062e-02,9.99999e-01,9.99999e-01,9.51062e-02,9.99999e-01
8.579607893e-01,9.96304e-02,9.99999e-01,9.99999e-01,9.96304e-02,9.99999e-01
8.622505932e-01,1.04274e-01,9.99999e-01,9.99999e-01,1.04274e-01,9.99999e-01
8.665618462e-01,9.19852e-02,9.99999e-01,8.43622e-01,1.09036e-01,9.99999e-01
8.708946554e-01,2.36310e-02,9.99999e-01,2.07445e-01,1.13915e-01,9.99999e-01
8.752491287e-01,3.11350e-02,9.99999e-01,2.61839e-01,1.18909e-01,9.99999e-01
8.796253743e-01,5.80299e-02,9.99999e-01,4.67918e-01,1.24017e-01,9.99999e-01
8.840235012e-01,8.61375e-02,9.99999e-01,6.66507e-01,1.29237e-01,9.99999e-01
8.884436187e-01,1.14486e-01,9.99999e-01,8.50768e-01,1.34567e-01,9.99999e-01
8.928858368e-01,1.31087e-01,9.99999e-01,9.36298e-01,1.40006e-01,9.99999e-01
8.973502660e-01,1.43245e-01,9.99999e-01,9.84165e-01,1.45550e-01,9.99999e-01
9.018370173e-01,1.50932e-01,9.99999e-01,9.98243e-01,1.51197e-01,9.99999e-01
9.063462024e-01,1.50155e-01,9.99999e-01,9.56728e-01,1.56946e-01,9.99999e-01
9.108779334e-01,1.46775e-01,9.99999e-01,9.01607e-01,1.62793e-01,9.99999e-01
9.154323231e-01,1.64693e-01,9.99999e-01,9.76037e-01,1.68736e-01,9.99999e-01
9.200094847e-01,1.31498e-01,9.99999e-01,7.52398e-01,1.74772e-01,9.99999e-01
9.246095321e-01,1.09504e-01,9.99999e-01,6.05331e-01,1.80899e-01,9.99999e-01
9.292325798e-01,1.27520e-01,9.99999e-01,6.81513e-01,1.87113e-01,9.99999e-01
9.338787427e-01,1.32709e-01,9.99999e-01,6.86151e-01,1.93411e-01,9.99999e-01
9.385481364e-01,1.50928e-01,9.99999e-01,7.55432e-01,1.99790e-01,9.99999e-01
9.432408771e-01,1.73454e-01,9.99999e-01,8.40994e-01,2.06248e-01,9.99999e-01
9.479570815e-01,1.94645e-01,9.99999e-01,9.14769e-01,2.12781e-01,9.99999e-01
9.526968669e-01,2.10183e-01,9.99999e-01,9.58052e-01,2.19385e-01,9.99999e-01
9.574603512e-01,2.21948e-01,9.99999e-01,9.81816e-01,2.26058e-01,9.99999e-01
9.622476530e-01,2.31468e-01,9.99999e-01,9.94292e-01,2.32796e-01,9.99999e-01
9.670588912e-01,2.39186e-01,9.99999e-01,9.98288e-01,2.39596e-01,9.99999e-01
9.718941857e-01,2.46425e-01,9.99999e-01,9.99879e-01,2.46454e-01,9.99999e-01
9.767536566e-01,2.53368e-01,9.99999e-01,9.99999e-01,2.53368e-01,9.99999e-01
9.816374249e-01,2.60333e-01,9.99999e-01,9.99999e-01,2.60333e-01,9.99999e-01
9.865456120e-01,2.67346e-01,9.99999e-01,9.99999e-01,2.67346e-01,9.99999e-01
9.914783401e-01,2.74404e-01,9.99999e-01,9.99999e-01,2.74404e-01,9.99999e-01
9.964357318e-01,2.81503e-01,9.99999e-01,9.99999e-01,2.81503e-01,9.99999e-01
1.001417910e+00,2.88640e-01,9.99999e-01,9.99999e-01,2.88640e-01,9.99999e-01
1.006425000e+00,2.95812e-01,9.99999e-01,9.99999e-01,2.95812e-01,9.99999e-01
1.011457125e+00,3.03016e-01,9.99999e-01,9.99999e-01,3.03016e-01,9.99999e-01
1.016514411e+00,3.10247e-01,9.99999e-01,9.99999e-01,3.10247e-01,9.99999e-01
1.021596983e+00,3.17423e-01,9.99999e-01,9.99747e-01,3.17503e-01,9.99999e-01
1.026704968e+00,3.19091e-01,9.99999e-01,9.82483e-01,3.24780e-01,9.99999e-01
1.031838492e+00,2.90691e-01,9.99999e-01,8.75375e-01,3.32075e-01,9.99999e-01
1.036997685e+00,1.03578e-02,9.99999e-01,3.05192e-02,3.39386e-01,9.99999e-01
1.042182673e+00,1.70170e-04,9.99999e-01,4.90818e-04,3.46708e-01,9.99999e-01
1.047393587e+00,4.98867e-04,9.99999e-01,1.40908e-03,3.54038e-01,9.99999e-01
1.052630555e+00,1.66734e-09,9.99999e-01,4.61387e-09,3.61375e-01,9.99999e-01
1.057893707e+00,6.26349e-09,9.99999e-01,1.69874e-08,3.68713e-01,9.99999e-01
1.063183176e+00,8.81546e-07,9.99999e-01,2.34421e-06,3.76052e-01,9.99999e-01
1.068499092e+00,1.69931e-05,9.99999e-01,4.43235e-05,3.83387e-01,9.99999e-01
1.073841587e+00,5.50891e-04,9.99999e-01,1.40995e-03,3.90717e-01,9.99999e-01
1.079210795e+00,6.70413e-03,9.99999e-01,1.68430e-02,3.98037e-01,9.99999e-01
1.084606849e+00,3.83546e-02,9.99999e-01,9.46218e-02,4.05346e-01,9.99999e-01
1.090029883e+00,1.19211e-01,9.99999e-01,2.88898e-01,4.12641e-01,9.99999e-01
1.095480033e+00,2.26818e-01,9.99999e-01,5.40146e-01,4.19919e-01,9.99999e-01
1.100957433e+00,3.16621e-01,9.99999e-01,7.41191e-01,4.27178e-01,9.99999e-01
1.106462220e+00,3.83690e-01,9.99999e-01,8.83231e-01,4.34416e-01,9.99999e-01
1.111994531e+00,4.21720e-01,9.99999e-01,9.54918e-01,4.41629e-01,9.99999e-01
1.117554504e+00,4.43800e-01,9.99999e-01,9.88822e-01,4.48817e-01,9.99999e-01
1.123142276e+00,4.55640e-01,9.99999e-01,9.99264e-01,4.55975e-01,9.99999e-01
1.128757988e+00,4.63104e-01,9.99999e-01,9.99999e-01,4.63104e-01,9.99999e-01
1.134401778e+00,4.70199e-01,9.99999e-01,9.99999e-01,4.70199e-01,9.99999e-01
1.140073787e+00,4.77260e-01,9.99999e-01,9.99999e-01,4.77260e-01,9.99999e-01
1.145774156e+00,4.84284e-01,9.99999e-01,9.99999e-01,4.84284e-01,9.99999e-01
1.151503026e+00,4.91270e-01,9.99999e-01,9.99999e-01,4.91270e-01,9.99999e-01
1.157260541e+00,4.98216e-01,9.99999e-01,9.99999e-01,4.98216e-01,9.99999e-01
1.163046844e+00,5.05120e-01,9.99999e-01,9.99999e-01,5.05120e-01,9.99999e-01
1.168862078e+00,5.11980e-01,9.99999e-01,9.99999e-01,5.11980e-01,9.99999e-01
1.174706389e+00,5.18795e-01,9.99999e-01,9.99999e-01,5.18795e-01,9.99999e-01
1.180579921e+00,5.25564e-01,9.99999e-01,9.99999e-01,5.25564e-01,9.99999e-01
1.186482820e+00,5.32266e-01,9.99999e-01,9.99964e-01,5.32285e-01,9.99999e-01
1.192415234e+00,5.07760e-01,9.99999e-01,9.42117e-01,5.38956e-01,9.99999e-01
1.198377311e+00,2.66040e-01,9.99999e-01,4.87630e-01,5.45577e-01,9.99999e-01
1.204369197e+00,1.45311e-44,9.99999e-01,2.63175e-44,5.52145e-01,9.99999e-01
1.210391043e+00,4.60681e-184,9.99999e-01,8.24615e-184,5.58661e-01,9.99999e-01
1.216442998e+00,4.07020e-159,9.99999e-01,7.20231e-159,5.65123e-01,9.99999e-01
1.222525213e+00,1.03409e-156,9.99999e-01,1.80933e-156,5.71530e-01,9.99999e-01
1.228637839e+00,1.21304e-120,9.99999e-01,2.09912e-120,5.77880e-01,9.99999e-01
1.234781029e+00,1.36345e-74,9.99999e-01,2.33397e-74,5.84174e-01,9.99999e-01
1.240954934e+00,3.65291e-49,9.99999e-01,6.18707e-49,5.90410e-01,9.99999e-01
1.247159708e+00,4.92646e-23,9.99999e-01,8.25773e-23,5.96587e-01,9.99999e-01
1.253395507e+00,1.06342e-15,9.99999e-01,1.76441e-15,6.02705e-01,9.99999e-01
1.259662485e+00,4.37047e-09,9.99999e-01,7.17925e-09,6.08763e-01,9.99999e-01
1.265960797e+00,2.64903e-05,9.99999e-01,4.30904e-05,6.14760e-01,9.99999e-01
1.272290601e+00,4.45012e-03,9.99999e-01,7.16955e-03,6.20697e-01,9.99999e-01
1.278652054e+00,4.61550e-03,9.99999e-01,7.36627e-03,6.26571e-01,9.99999e-01
1.285045314e+00,6.08866e-07,9.99999e-01,9.62810e-07,6.32384e-01,9.99999e-01
1.291470541e+00,5.49347e-21,9.99999e-01,8.60864e-21,6.38134e-01,9.99999e-01
1.297927893e+00,7.44250e-07,9.99999e-01,1.15599e-06,6.43822e-01,9.99999e-01
1.304417533e+00,6.98461e-05,9.99999e-01,1.07547e-04,6.49446e-01,9.99999e-01
1.310939621e+00,2.05141e-05,9.99999e-01,3.13189e-05,6.55006e-01,9.99999e-01
1.317494319e+00,7.75996e-62,9.99999e-01,1.17485e-61,6.60504e-01,9.99999e-01
1.324081790e+00,3.60887e-40,9.99999e-01,5.41924e-40,6.65937e-01,9.99999e-01
1.330702199e+00,6.77066e-24,9.99999e-01,1.00858e-23,6.71306e-01,9.99999e-01
1.337355710e+00,1.44439e-21,9.99999e-01,2.13474e-21,6.76612e-01,9.99999e-01
1.344042489e+00,9.24284e-22,9.99999e-01,1.35555e-21,6.81853e-01,9.99999e-01
1.350762701e+00,3.05458e-24,9.99999e-01,4.44605e-24,6.87030e-01,9.99999e-01
1.357516515e+00,2.67842e-14,9.99999e-01,3.86975e-14,6.92143e-01,9.99999e-01
1.364304097e+00,1.21069e-10,9.99999e-01,1.73652e-10,6.97192e-01,9.99999e-01
1.371125618e+00,7.81482e-06,9.99999e-01,1.11294e-05,7.02177e-01,9.99999e-01
1.377981246e+00,3.34959e-05,9.99999e-01,4.73709e-05,7.07098e-01,9.99999e-01
1.384871152e+00,2.04191e-03,9.99999e-01,2.86803e-03,7.11955e-01,9.99999e-01
1.391795508e+00,3.43198e-03,9.99999e-01,4.78826e-03,7.16749e-01,9.99999e-01
1.398754485e+00,2.31554e-02,9.99999e-01,3.20943e-02,7.21479e-01,9.99999e-01
1.405748258e+00,6.06553e-02,9.99999e-01,8.35302e-02,7.26147e-01,9.99999e-01
1.412776999e+00,1.49163e-01,9.99999e-01,2.04123e-01,7.30751e-01,9.99999e-01
1.419840884e+00,1.51045e-01,9.99999e-01,2.05422e-01,7.35293e-01,9.99999e-01
1.426940089e+00,4.11910e-03,9.99999e-01,5.56806e-03,7.39772e-01,9.99999e-01
1.434074789e+00,0.00000e+00,9.99999e-01,0.00000e+00,7.44190e-01,9.99999e-01
1.441245163e+00,0.00000e+00,9.99999e-01,0.00000e+00,7.48546e-01,9.99999e-01
1.448451389e+00,0.00000e+00,9.99999e-01,0.00000e+00,7.52840e-01,9.99999e-01
1.455693646e+00,0.00000e+00,9.99999e-01,0.00000e+00,7.57074e-01,9.99999e-01
1.462972114e+00,0.00000e+00,9.99999e-01,0.00000e+00,7.61247e-01,9.99999e-01
1.470286975e+00,7.28015e-306,9.99999e-01,9.51205e-306,7.65360e-01,9.99999e-01
