#,Wave/freq,Total,O2,CO2,Rayleigh,CIA
4.000000000e-01,7.58522e-09,9.99999e-01,9.99999e-01,7.58522e-09,9.99999e-01
4.020000000e-01,1.09781e-08,9.99999e-01,9.99999e-01,1.09781e-08,9.99999e-01
4.040100000e-01,1.57669e-08,9.99999e-01,9.99999e-01,1.57669e-08,9.99999e-01
4.060300500e-01,2.24833e-08,9.99999e-01,9.99999e-01,2.24833e-08,9.99999e-01
4.080602003e-01,3.18368e-08,9.99999e-01,9.99999e-01,3.18368e-08,9.99999e-01
4.101005013e-01,4.47729e-08,9.99999e-01,9.99999e-01,4.47729e-08,9.99999e-01
4.121510038e-01,6.25426e-08,9.99999e-01,9.99999e-01,6.25426e-08,9.99999e-01
4.142117588e-01,8.67900e-08,9.99999e-01,9.99999e-01,8.67900e-08,9.99999e-01
4.162828176e-01,1.19661e-07,9.99999e-01,9.99999e-01,1.19661e-07,9.99999e-01
4.183642317e-01,1.63938e-07,9.99999e-01,9.99999e-01,1.63938e-07,9.99999e-01
4.204560528e-01,2.23206e-07,9.99999e-01,9.99999e-01,2.23206e-07,9.99999e-01
4.225583331e-01,3.02055e-07,9.99999e-01,9.99999e-01,3.02055e-07,9.99999e-01
4.246711247e-01,4.06322e-07,9.99999e-01,9.99999e-01,4.06322e-07,9.99999e-01
4.267944804e-01,5.43390e-07,9.99999e-01,9.99999e-01,5.43390e-07,9.99999e-01
4.289284528e-01,7.22534e-07,9.99999e-01,9.99999e-01,7.22534e-07,9.99999e-01
4.310730950e-01,9.55347e-07,9.99999e-01,9.99999e-01,9.55347e-07,9.99999e-01
4.332284605e-01,1.25623e-06,9.99999e-01,9.99999e-01,1.25623e-06,9.99999e-01
4.353946028e-01,1.64296e-06,9.99999e-01,9.99999e-01,1.64296e-06,9.99999e-01
4.375715758e-01,2.13738e-06,9.99999e-01,9.99999e-01,2.13738e-06,9.99999e-01
4.397594337e-01,2.76618e-06,9.99999e-01,9.99999e-01,2.76618e-06,9.99999e-01
4.419582309e-01,3.56178e-06,9.99999e-01,9.99999e-01,3.56178e-06,9.99999e-01
4.441680220e-01,4.56336e-06,9.99999e-01,9.99999e-01,4.56336e-06,9.99999e-01
4.463888621e-01,5.81805e-06,9.99999e-01,9.99999e-01,5.81805e-06,9.99999e-01
4.486208064e-01,7.38220e-06,9.99999e-01,9.99999e-01,7.38220e-06,9.99999e-01
4.508639105e-01,9.32292e-06,9.99999e-01,9.99999e-01,9.32292e-06,9.99999e-01
4.531182300e-01,1.17197e-05,9.99999e-01,9.99999e-01,1.17197e-05,9.99999e-01
4.553838212e-01,1.46662e-05,9.99999e-01,9.99999e-01,1.46662e-05,9.99999e-01
4.576607403e-01,1.82723e-05,9.99999e-01,9.99999e-01,1.82723e-05,9.99999e-01
4.599490440e-01,2.26666e-05,9.99999e-01,9.99999e-01,2.26666e-05,9.99999e-01
4.622487892e-01,2.79981e-05,9.99999e-01,9.99999e-01,2.79981e-05,9.99999e-01
4.645600332e-01,3.44396e-05,9.99999e-01,9.99999e-01,3.44396e-05,9.99999e-01
4.668828333e-01,4.21903e-05,9.99999e-01,9.99999e-01,4.21903e-05,9.99999e-01
4.692172475e-01,5.14785e-05,9.99999e-01,9.99999e-01,5.14785e-05,9.99999e-01
4.715633337e-01,6.25650e-05,9.99999e-01,9.99999e-01,6.25650e-05,9.99999e-01
4.739211504e-01,7.57469e-05,9.99999e-01,9.99999e-01,7.57469e-05,9.99999e-01
4.762907561e-01,9.13603e-05,9.99999e-01,9.99999e-01,9.13603e-05,9.99999e-01
4.786722099e-01,1.09785e-04,9.99999e-01,9.99999e-01,1.09785e-04,9.99999e-01
4.810655710e-01,1.31447e-04,9.99999e-01,9.99999e-01,1.31447e-04,9.99999e-01
4.834708988e-01,1.56825e-04,9.99999e-01,9.99999e-01,1.56825e-04,9.99999e-01
4.858882533e-01,1.86451e-04,9.99999e-01,9.99999e-01,1.86451e-04,9.99999e-01
4.883176946e-01,2.20918e-04,9.99999e-01,9.99999e-01,2.20918e-04,9.99999e-01
4.907592831e-01,2.60881e-04,9.99999e-01,9.99999e-01,2.60881e-04,9.99999e-01
4.932130795e-01,3.07062e-04,9.99999e-01,9.99999e-01,3.07062e-04,9.99999e-01
4.956791449e-01,3.60257e-04,9.99999e-01,9.99999e-01,3.60257e-04,9.99999e-01
4.981575406e-01,4.21335e-04,9.99999e-01,9.99999e-01,4.21335e-04,9.99999e-01
5.006483283e-01,4.91246e-04,9.99999e-01,9.99999e-01,4.91246e-04,9.99999e-01
5.031515699e-01,5.71024e-04,9.99999e-01,9.99999e-01,5.71024e-04,9.99999e-01
5.056673278e-01,6.61787e-04,9.99999e-01,9.99999e-01,6.61787e-04,9.99999e-01
5.081956644e-01,7.64746e-04,9.99999e-01,9.99999e-01,7.64746e-04,9.99999e-01
5.107366428e-01,8.81202e-04,9.99999e-01,9.99999e-01,8.81202e-04,9.99999e-01
5.132903260e-01,1.01255e-03,9.99999e-01,9.99999e-01,1.01255e-03,9.99999e-01
5.158567776e-01,1.16029e-03,9.99999e-01,9.99999e-01,1.16029e-03,9.99999e-01
5.184360615e-01,1.32602e-03,9.99999e-01,9.99999e-01,1.32602e-03,9.99999e-01
5.210282418e-01,1.51143e-03,9.99999e-01,9.99999e-01,1.51143e-03,9.99999e-01
5.236333830e-01,1.71831e-03,9.99999e-01,9.99999e-01,1.71831e-03,9.99999e-01
5.262515499e-01,1.94856e-03,9.99999e-01,9.99999e-01,1.94856e-03,9.99999e-01
5.288828077e-01,2.20419e-03,9.99999e-01,9.99999e-01,2.20419e-03,9.99999e-01
5.315272217e-01,2.48729e-03,9.99999e-01,9.99999e-01,2.48729e-03,9.99999e-01
5.341848578e-01,2.80006e-03,9.99999e-01,9.99999e-01,2.80006e-03,9.99999e-01
5.368557821e-01,3.14480e-03,9.99999e-01,9.99999e-01,3.14480e-03,9.99999e-01
5.395400610e-01,3.52388e-03,9.99999e-01,9.99999e-01,3.52388e-03,9.99999e-01
5.422377613e-01,3.93979e-03,9.99999e-01,9.99999e-01,3.93979e-03,9.99999e-01
5.449489501e-01,4.39510e-03,9.99999e-01,9.99999e-01,4.39510e-03,9.99999e-01
5.476736949e-01,4.89245e-03,9.99999e-01,9.99999e-01,4.89245e-03,9.99999e-01
5.504120634e-01,5.43455e-03,9.99999e-01,9.99999e-01,5.43455e-03,9.99999e-01
5.531641237e-01,6.02421e-03,9.99999e-01,9.99999e-01,6.02421e-03,9.99999e-01
5.559299443e-01,6.66427e-03,9.99999e-01,9.99999e-01,6.66427e-03,9.99999e-01
5.587095940e-01,7.35764e-03,9.99999e-01,9.99999e-01,7.35764e-03,9.99999e-01
5.615031420e-01,8.10729e-03,9.99999e-01,9.99999e-01,8.10729e-03,9.99999e-01
5.643106577e-01,8.91622e-03,9.99999e-01,9.99999e-01,8.91622e-03,9.99999e-01
5.671322110e-01,9.78745e-03,9.99999e-01,9.99999e-01,9.78745e-03,9.99999e-01
5.699678720e-01,1.07241e-02,9.99999e-01,9.99999e-01,1.07241e-02,9.99999e-01
5.728177114e-01,1.17291e-02,9.99999e-01,9.99999e-01,1.17291e-02,9.99999e-01
5.756818000e-01,1.28056e-02,9.99999e-01,9.99999e-01,1.28056e-02,9.99999e-01
5.785602090e-01,1.39568e-02,9.99999e-01,9.99999e-01,1.39568e-02,9.99999e-01
5.814530100e-01,1.51855e-02,9.99999e-01,9.99999e-01,1.51855e-02,9.99999e-01
5.843602750e-01,1.64949e-02,9.99999e-01,9.99999e-01,1.64949e-02,9.99999e-01
5.872820764e-01,1.78880e-02,9.99999e-01,9.99999e-01,1.78880e-02,9.99999e-01
5.902184868e-01,1.93677e-02,9.99999e-01,9.99999e-01,1.93677e-02,9.99999e-01
5.931695792e-01,2.09369e-02,9.99999e-01,9.99999e-01,2.09369e-02,9.99999e-01
5.961354271e-01,2.25985e-02,9.99999e-01,9.99999e-01,2.25985e-02,9.99999e-01
5.991161043e-01,2.43551e-02,9.99999e-01,9.99999e-01,2.43551e-02,9.99999e-01
6.021116848e-01,2.62095e-02,9.99999e-01,9.99999e-01,2.62095e-02,9.99999e-01
6.051222432e-01,2.81643e-02,9.99999e-01,9.99999e-01,2.81643e-02,9.99999e-01
6.081478544e-01,3.02218e-02,9.99999e-01,9.99999e-01,3.02218e-02,9.99999e-01
6.111885937e-01,3.23846e-02,9.99999e-01,9.99999e-01,3.23846e-02,9.99999e-01
6.142445367e-01,3.46547e-02,9.99999e-01,9.99999e-01,3.46547e-02,9.99999e-01
6.173157594e-01,3.70345e-02,9.99999e-01,9.99999e-01,3.70345e-02,9.99999e-01
6.204023382e-01,3.95257e-02,9.99999e-01,9.99999e-01,3.95257e-02,9.99999e-01
6.235043498e-01,4.21303e-02,9.99999e-01,9.99999e-01,4.21303e-02,9.99999e-01
6.266218716e-01,4.48500e-02,9.99999e-01,9.99999e-01,4.48500e-02,9.99999e-01
6.297549810e-01,4.76863e-02,9.99999e-01,9.99999e-01,4.76863e-02,9.99999e-01
6.329037559e-01,5.06405e-02,9.99999e-01,9.99999e-01,5.06405e-02,9.99999e-01
6.360682746e-01,5.37140e-02,9.99999e-01,9.99999e-01,5.37140e-02,9.99999e-01
6.392486160e-01,5.69078e-02,9.99999e-01,9.99999e-01,5.69078e-02,9.99999e-01
6.424448591e-01,6.02227e-02,9.99999e-01,9.99999e-01,6.02227e-02,9.99999e-01
6.456570834e-01,6.36594e-02,9.99999e-01,9.99999e-01,6.36594e-02,9.99999e-01
6.488853688e-01,6.72186e-02,9.99999e-01,9.99999e-01,6.72186e-02,9.99999e-01
6.521297956e-01,7.09005e-02,9.99999e-01,9.99999e-01,7.09005e-02,9.99999e-01
6.553904446e-01,7.47054e-02,9.99999e-01,9.99999e-01,7.47054e-02,9.99999e-01
6.586673968e-01,7.86332e-02,9.99999e-01,9.99999e-01,7.86332e-02,9.99999e-01
6.619607338e-01,8.26838e-02,9.99999e-01,9.99999e-01,8.26838e-02,9.99999e-01
6.652705375e-01,8.68569e-02,9.99999e-01,9.99999e-01,8.68569e-02,9.99999e-01
6.685968902e-01,9.11518e-02,9.99999e-01,9.99999e-01,9.11518e-02,9.99999e-01
6.719398746e-01,9.55680e-02,9.99999e-01,9.99999e-01,9.55680e-02,9.99999e-01
6.752995740e-01,1.00105e-01,9.99999e-01,9.99999e-01,1.00105e-01,9.99999e-01
6.786760719e-01,1.04760e-01,9.99999e-01,9.99999e-01,1.04760e-01,9.99999e-01
6.820694522e-01,1.09535e-01,9.99999e-01,9.99999e-01,1.09535e-01,9.99999e-01
6.854797995e-01,1.14425e-01,9.99999e-01,9.99999e-01,1.14425e-01,9.99999e-01
6.889071985e-01,1.19431e-01,9.99999e-01,9.99999e-01,1.19431e-01,9.99999e-01
6.923517345e-01,1.24551e-01,9.99999e-01,9.99999e-01,1.24551e-01,9.99999e-01
6.958134932e-01,1.29783e-01,9.99999e-01,9.99999e-01,1.29783e-01,9.99999e-01
6.992925606e-01,1.35124e-01,9.99999e-01,9.99999e-01,1.35124e-01,9.99999e-01
7.027890234e-01,1.40573e-01,9.99999e-01,9.99999e-01,1.40573e-01,9.99999e-01
7.063029686e-01,1.46128e-01,9.99999e-01,9.99999e-01,1.46128e-01,9.99999e-01
7.098344834e-01,1.51786e-01,9.99999e-01,9.99999e-01,1.51786e-01,9.99999e-01
7.133836558e-01,1.57545e-01,9.99999e-01,9.99999e-01,1.57545e-01,9.99999e-01
7.169505741e-01,1.63403e-01,9.99999e-01,9.99999e-01,1.63403e-01,9.99999e-01
7.205353270e-01,1.69355e-01,9.99999e-01,9.99999e-01,1.69355e-01,9.99999e-01
7.241380036e-01,1.75401e-01,9.99999e-01,9.99999e-01,1.75401e-01,9.99999e-01
7.277586936e-01,1.81537e-01,9.99999e-01,9.99999e-01,1.81537e-01,9.99999e-01
7.313974871e-01,1.87759e-01,9.99999e-01,9.99999e-01,1.87759e-01,9.99999e-01
7.350544745e-01,1.94066e-01,9.99999e-01,9.99999e-01,1.94066e-01,9.99999e-01
7.387297469e-01,2.00454e-01,9.99999e-01,9.99999e-01,2.00454e-01,9.99999e-01
7.424233956e-01,2.06919e-01,9.99999e-01,9.99999e-01,2.06919e-01,9.99999e-01
7.461355126e-01,2.13460e-01,9.99999e-01,9.99999e-01,2.13460e-01,9.99999e-01
7.498661902e-01,2.20071e-01,9.99999e-01,9.99999e-01,2.20071e-01,9.99999e-01
7.536155211e-01,2.26751e-01,9.99999e-01,9.99999e-01,2.26751e-01,9.99999e-01
7.573835987e-01,2.33496e-01,9.99999e-01,9.99999e-01,2.33496e-01,9.99999e-01
7.611705167e-01,2.40302e-01,9.99999e-01,9.99999e-01,2.40302e-01,9.99999e-01
7.649763693e-01,2.47166e-01,9.99999e-01,9.99999e-01,2.47166e-01,9.99999e-01
7.688012511e-01,2.54085e-01,9.99999e-01,9.99999e-01,2.54085e-01,9.99999e-01
7.726452574e-01,2.61055e-01,9.99999e-01,9.99999e-01,2.61055e-01,9.99999e-01
7.765084837e-01,2.68073e-01,9.99999e-01,9.99999e-01,2.68073e-01,9.99999e-01
7.803910261e-01,2.60176e-01,9.99999e-01,9.45629e-01,2.75135e-01,9.99999e-01
7.842929812e-01,2.16003e-01,9.99999e-01,7.65320e-01,2.82239e-01,9.99999e-01
7.882144461e-01,2.17967e-01,9.99999e-01,7.53219e-01,2.89380e-01,9.99999e-01
7.921555184e-01,2.50469e-01,9.99999e-01,8.44594e-01,2.96555e-01,9.99999e-01
7.961162960e-01,2.70971e-01,9.99999e-01,8.92049e-01,3.03762e-01,9.99999e-01
8.000968774e-01,2.92334e-01,9.99999e-01,9.39993e-01,3.10995e-01,9.99999e-01
8.040973618e-01,3.08175e-01,9.99999e-01,9.68329e-01,3.18254e-01,9.99999e-01
8.081178486e-01,3.20774e-01,9.99999e-01,9.85381e-01,3.25533e-01,9.99999e-01
8.121584379e-01,3.31310e-01,9.99999e-01,9.95432e-01,3.32830e-01,9.99999e-01
8.162192301e-01,3.39798e-01,9.99999e-01,9.98989e-01,3.40141e-01,9.99999e-01
8.203003262e-01,3.47459e-01,9.99999e-01,9.99983e-01,3.47465e-01,9.99999e-01
8.244018279e-01,3.54796e-01,9.99999e-01,9.99999e-01,3.54796e-01,9.99999e-01
8.285238370e-01,3.62133e-01,9.99999e-01,9.99999e-01,3.62133e-01,9.99999e-01
8.326664562e-01,3.69472e-01,9.99999e-01,9.99999e-01,3.69472e-01,9.99999e-01
8.368297885e-01,3.76810e-01,9.99999e-01,9.99999e-01,3.76810e-01,9.99999e-01
8.410139374e-01,3.84145e-01,9.99999e-01,9.99999e-01,3.84145e-01,9.99999e-01
8.452190071e-01,3.91473e-01,9.99999e-01,9.99999e-01,3.91473e-01,9.99999e-01
8.494451021e-01,3.98793e-01,9.99999e-01,9.99999e-01,3.98793e-01,9.99999e-01
8.536923276e-01,4.06101e-01,9.99999e-01,9.99999e-01,4.06101e-01,9.99999e-01
8.579607893e-01,4.13394e-01,9.99999e-01,9.99999e-01,4.13394e-01,9.99999e-01
8.622505932e-01,4.20670e-01,9.99999e-01,9.99999e-01,4.20670e-01,9.99999e-01
8.665618462e-01,3.85200e-01,9.99999e-01,9.00151e-01,4.27927e-01,9.99999e-01
8.708946554e-01,2.23617e-01,9.99999e-01,5.13869e-01,4.35162e-01,9.99999e-01
8.752491287e-01,2.56188e-01,9.99999e-01,5.79121e-01,4.42373e-01,9.99999e-01
8.796253743e-01,3.31653e-01,9.99999e-01,7.37731e-01,4.49558e-01,9.99999e-01
8.840235012e-01,3.89632e-01,9.99999e-01,8.53120e-01,4.56713e-01,9.99999e-01
8.884436187e-01,4.35533e-01,9.99999e-01,9.38975e-01,4.63838e-01,9.99999e-01
8.928858368e-01,4.59086e-01,9.99999e-01,9.74848e-01,4.70930e-01,9.99999e-01
8.973502660e-01,4.75025e-01,9.99999e-01,9.93801e-01,4.77987e-01,9.99999e-01
9.018370173e-01,4.84675e-01,9.99999e-01,9.99313e-01,4.85008e-01,9.99999e-01
9.063462024e-01,4.83678e-01,9.99999e-01,9.83105e-01,4.91990e-01,9.99999e-01
9.108779334e-01,4.79319e-01,9.99999e-01,9.60691e-01,4.98931e-01,9.99999e-01
9.154323231e-01,5.01056e-01,9.99999e-01,9.90560e-01,5.05831e-01,9.99999e-01
9.200094847e-01,4.51041e-01,9.99999e-01,8.79758e-01,5.12686e-01,9.99999e-01
9.246095321e-01,4.27187e-01,9.99999e-01,8.22309e-01,5.19497e-01,9.99999e-01
9.292325798e-01,4.52500e-01,9.99999e-01,8.59839e-01,5.26261e-01,9.99999e-01
9.338787427e-01,4.59758e-01,9.99999e-01,8.62622e-01,5.32976e-01,9.99999e-01
9.385481364e-01,4.83942e-01,9.99999e-01,8.96781e-01,5.39642e-01,9.99999e-01
9.432408771e-01,5.10852e-01,9.99999e-01,9.35184e-01,5.46258e-01,9.99999e-01
9.479570815e-01,5.34175e-01,9.99999e-01,9.66269e-01,5.52821e-01,9.99999e-01
9.526968669e-01,5.50145e-01,9.99999e-01,9.83575e-01,5.59331e-01,9.99999e-01
9.574603512e-01,5.61793e-01,9.99999e-01,9.92938e-01,5.65787e-01,9.99999e-01
9.622476530e-01,5.70924e-01,9.99999e-01,9.97790e-01,5.72188e-01,9.99999e-01
9.670588912e-01,5.78149e-01,9.99999e-01,9.99336e-01,5.78533e-01,9.99999e-01
9.718941857e-01,5.84793e-01,9.99999e-01,9.99951e-01,5.84821e-01,9.99999e-01
9.767536566e-01,5.91051e-01,9.99999e-01,9.99999e-01,5.91051e-01,9.99999e-01
9.816374249e-01,5.97222e-01,9.99999e-01,9.99999e-01,5.97222e-01,9.99999e-01
9.865456120e-01,6.03334e-01,9.99999e-01,9.99999e-01,6.03334e-01,9.99999e-01
9.914783401e-01,6.09385e-01,9.99999e-01,9.99999e-01,6.09385e-01,9.99999e-01
9.964357318e-01,6.15377e-01,9.99999e-01,9.99999e-01,6.15377e-01,9.99999e-01
1.001417910e+00,6.21307e-01,9.99999e-01,9.99999e-01,6.21307e-01,9.99999e-01
1.006425000e+00,6.27175e-01,9.99999e-01,9.99999e-01,6.27175e-01,9.99999e-01
1.011457125e+00,6.32981e-01,9.99999e-01,9.99999e-01,6.32981e-01,9.99999e-01
1.016514411e+00,6.38725e-01,9.99999e-01,9.99999e-01,6.38725e-01,9.99999e-01
1.021596983e+00,6.44352e-01,9.99999e-01,9.99915e-01,6.44406e-01,9.99999e-01
1.026704968e+00,6.45712e-01,9.99999e-01,9.93366e-01,6.50023e-01,9.99999e-01
1.031838492e+00,6.14400e-01,9.99999e-01,9.37188e-01,6.55577e-01,9.99999e-01
1.036997685e+00,5.95091e-02,9.99999e-01,9.00196e-02,6.61068e-01,9.99999e-01
1.042182673e+00,1.81967e-02,9.99999e-01,2.73021e-02,6.66495e-01,9.99999e-01
1.047393587e+00,3.18525e-02,9.99999e-01,4.74096e-02,6.71857e-01,9.99999e-01
1.052630555e+00,9.29863e-05,9.99999e-01,1.37319e-04,6.77156e-01,9.99999e-01
1.057893707e+00,3.06182e-04,9.99999e-01,4.48690e-04,6.82391e-01,9.99999e-01
1.063183176e+00,2.20781e-03,9.99999e-01,3.21107e-03,6.87561e-01,9.99999e-01
1.068499092e+00,1.09619e-02,9.99999e-01,1.58257e-02,6.92668e-01,9.99999e-01
1.073841587e+00,4.96446e-02,9.99999e-01,7.11535e-02,6.97710e-01,9.99999e-01
1.079210795e+00,1.32038e-01,9.99999e-01,1.87904e-01,7.02688e-01,9.99999e-01
1.084606849e+00,2.78205e-01,9.99999e-01,3.93165e-01,7.07603e-01,9.99999e-01
1.090029883e+00,4.38102e-01,9.99999e-01,6.14919e-01,7.12453e-01,9.99999e-01
1.095480033e+00,5.64067e-01,9.99999e-01,7.86440e-01,7.17241e-01,9.99999e-01
1.100957433e+00,6.42910e-01,9.99999e-01,8.90500e-01,7.21965e-01,9.99999e-01
1.106462220e+00,6.92549e-01,9.99999e-01,9.53103e-01,7.26625e-01,9.99999e-01
1.111994531e+00,7.18315e-01,9.99999e-01,9.82347e-01,7.31223e-01,9.99999e-01
1.117554504e+00,7.32556e-01,9.99999e-01,9.95646e-01,7.35759e-01,9.99999e-01
1.123142276e+00,7.40019e-01,9.99999e-01,9.99711e-01,7.40232e-01,9.99999e-01
1.128757988e+00,7.44643e-01,9.99999e-01,9.99999e-01,7.44643e-01,9.99999e-01
1.134401778e+00,7.48992e-01,9.99999e-01,9.99999e-01,7.48992e-01,9.99999e-01
1.140073787e+00,7.53280e-01,9.99999e-01,9.99999e-01,7.53280e-01,9.99999e-01
1.145774156e+00,7.57508e-01,9.99999e-01,9.99999e-01,7.57508e-01,9.99999e-01
1.151503026e+00,7.61675e-01,9.99999e-01,9.99999e-01,7.61675e-01,9.99999e-01
1.157260541e+00,7.65781e-01,9.99999e-01,9.99999e-01,7.65781e-01,9.99999e-01
1.163046844e+00,7.69828e-01,9.99999e-01,9.99999e-01,7.69828e-01,9.99999e-01
1.168862078e+00,7.73816e-01,9.99999e-01,9.99999e-01,7.73816e-01,9.99999e-01
1.174706389e+00,7.77746e-01,9.99999e-01,9.99999e-01,7.77746e-01,9.99999e-01
1.180579921e+00,7.81617e-01,9.99999e-01,9.99999e-01,7.81617e-01,9.99999e-01
1.186482820e+00,7.85423e-01,9.99999e-01,9.99990e-01,7.85430e-01,9.99999e-01
1.192415234e+00,7.70970e-01,9.99999e-01,9.76917e-01,7.89186e-01,9.99999e-01
1.198377311e+00,4.31679e-01,9.99999e-01,5.44440e-01,7.92885e-01,9.99999e-01
1.204369197e+00,1.84644e-18,9.99999e-01,2.31810e-18,7.96528e-01,9.99999e-01
1.210391043e+00,6.81743e-72,9.99999e-01,8.52055e-72,8.00115e-01,9.99999e-01
1.216442998e+00,2.44236e-62,9.99999e-01,3.03909e-62,8.03648e-01,9.99999e-01
1.222525213e+00,2.04125e-61,9.99999e-01,2.52904e-61,8.07125e-01,9.99999e-01
1.228637839e+00,1.63493e-47,9.99999e-01,2.01707e-47,8.10548e-01,9.99999e-01
1.234781029e+00,5.82760e-30,9.99999e-01,7.15992e-30,8.13918e-01,9.99999e-01
1.240954934e+00,4.63097e-20,9.99999e-01,5.66662e-20,8.17235e-01,9.99999e-01
1.247159708e+00,3.27614e-10,9.99999e-01,3.99286e-10,8.20500e-01,9.99999e-01
1.253395507e+00,7.64686e-07,9.99999e-01,9.28341e-07,8.23712e-01,9.99999e-01
1.259662485e+00,1.74204e-04,9.99999e-01,2.10678e-04,8.26874e-01,9.99999e-01
1.265960797e+00,8.90938e-03,9.99999e-01,1.07344e-02,8.29984e-01,9.99999e-01
1.272290601e+00,9.64268e-02,9.99999e-01,1.15752e-01,8.33045e-01,9.99999e-01
1.278652054e+00,9.78210e-02,9.99999e-01,1.17003e-01,8.36056e-01,9.99999e-01
1.285045314e+00,7.59994e-04,9.99999e-01,9.05812e-04,8.39018e-01,9.99999e-01
1.291470541e+00,5.87187e-09,9.99999e-01,6.97427e-09,8.41932e-01,9.99999e-01
1.297927893e+00,2.21705e-04,9.99999e-01,2.62435e-04,8.44799e-01,9.99999e-01
1.304417533e+00,2.15828e-02,9.99999e-01,2.54628e-02,8.47618e-01,9.99999e-01
1.310939621e+00,5.26785e-03,9.99999e-01,6.19463e-03,8.50390e-01,9.99999e-01
1.317494319e+00,6.11997e-25,9.99999e-01,7.17366e-25,8.53117e-01,9.99999e-01
1.324081790e+00,1.07871e-16,9.99999e-01,1.26048e-16,8.55798e-01,9.99999e-01
1.330702199e+00,6.61527e-10,9.99999e-01,7.70620e-10,8.58434e-01,9.99999e-01
1.337355710e+00,2.53060e-09,9.99999e-01,2.93905e-09,8.61026e-01,9.99999e-01
1.344042489e+00,1.01459e-09,9.99999e-01,1.17487e-09,8.63575e-01,9.99999e-01
1.350762701e+00,3.56003e-10,9.99999e-01,4.11050e-10,8.66080e-01,9.99999e-01
1.357516515e+00,1.41019e-06,9.99999e-01,1.62362e-06,8.68544e-01,9.99999e-01
1.364304097e+00,9.40319e-05,9.99999e-01,1.07963e-04,8.70965e-01,9.99999e-01
1.371125618e+00,7.95972e-03,9.99999e-01,9.11405e-03,8.73345e-01,9.99999e-01
1.377981246e+00,1.65758e-02,9.99999e-01,1.89289e-02,8.75684e-01,9.99999e-01
1.384871152e+00,8.72251e-02,9.99999e-01,9.93470e-02,8.77983e-01,9.99999e-01
1.391795508e+00,1.04000e-01,9.99999e-01,1.18149e-01,8.80243e-01,9.99999e-01
1.398754485e+00,2.33768e-01,9.99999e-01,2.64904e-01,8.82463e-01,9.99999e-01
1.405748258e+00,3.33903e-01,9.99999e-01,3.77442e-01,8.84646e-01,9.99999e-01
1.412776999e+00,4.77977e-01,9.99999e-01,5.38997e-01,8.86790e-01,9.99999e-01
1.419840884e+00,4.34717e-01,9.99999e-01,4.89052e-01,8.88897e-01,9.99999e-01
1.426940089e+00,2.52981e-02,9.99999e-01,2.83940e-02,8.90967e-01,9.99999e-01
1.434074789e+00,0.00000e+00,9.99999e-01,0.00000e+00,8.93001e-01,9.99999e-01
1.441245163e+00,0.00000e+00,9.99999e-01,0.00000e+00,8.95000e-01,9.99999e-01
1.448451389e+00,0.00000e+00,9.99999e-01,0.00000e+00,8.96963e-01,9.99999e-01
1.455693646e+00,0.00000e+00,9.99999e-01,0.00000e+00,8.98892e-01,9.99999e-01
1.462972114e+00,6.26340e-285,9.99999e-01,6.95325e-285,9.00786e-01,9.99999e-01
1.470286975e+00,1.44683e-118,9.99999e-01,1.60287e-118,9.02647e-01,9.99999e-01
