#,Wave/freq,Total,O2,CO2,Rayleigh,CIA
4.000000000e-01,1.30458e-16,9.99999e-01,9.99999e-01,1.30458e-16,9.99999e-01
4.020000000e-01,2.68876e-16,9.99999e-01,9.99999e-01,2.68876e-16,9.99999e-01
4.040100000e-01,5.45892e-16,9.99999e-01,9.99999e-01,5.45892e-16,9.99999e-01
4.060300500e-01,1.09292e-15,9.99999e-01,9.99999e-01,1.09292e-15,9.99999e-01
4.080602003e-01,2.15830e-15,9.99999e-01,9.99999e-01,2.15830e-15,9.99999e-01
4.101005013e-01,4.20532e-15,9.99999e-01,9.99999e-01,4.20532e-15,9.99999e-01
4.121510038e-01,8.08658e-15,9.99999e-01,9.99999e-01,8.08658e-15,9.99999e-01
4.142117588e-01,1.53505e-14,9.99999e-01,9.99999e-01,1.53505e-14,9.99999e-01
4.162828176e-01,2.87726e-14,9.99999e-01,9.99999e-01,2.87726e-14,9.99999e-01
4.183642317e-01,5.32658e-14,9.99999e-01,9.99999e-01,5.32658e-14,9.99999e-01
4.204560528e-01,9.74168e-14,9.99999e-01,9.99999e-01,9.74168e-14,9.99999e-01
4.225583331e-01,1.76052e-13,9.99999e-01,9.99999e-01,1.76052e-13,9.99999e-01
4.246711247e-01,3.14464e-13,9.99999e-01,9.99999e-01,3.14464e-13,9.99999e-01
4.267944804e-01,5.55296e-13,9.99999e-01,9.99999e-01,5.55296e-13,9.99999e-01
4.289284528e-01,9.69618e-13,9.99999e-01,9.99999e-01,9.69618e-13,9.99999e-01
4.310730950e-01,1.67454e-12,9.99999e-01,9.99999e-01,1.67454e-12,9.99999e-01
4.332284605e-01,2.86090e-12,9.99999e-01,9.99999e-01,2.86090e-12,9.99999e-01
4.353946028e-01,4.83632e-12,9.99999e-01,9.99999e-01,4.83632e-12,9.99999e-01
4.375715758e-01,8.09141e-12,9.99999e-01,9.99999e-01,8.09141e-12,9.99999e-01
4.397594337e-01,1.34004e-11,9.99999e-01,9.99999e-01,1.34004e-11,9.99999e-01
4.419582309e-01,2.19727e-11,9.99999e-01,9.99999e-01,2.19727e-11,9.99999e-01
4.441680220e-01,3.56787e-11,9.99999e-01,9.99999e-01,3.56787e-11,9.99999e-01
4.463888621e-01,5.73818e-11,9.99999e-01,9.99999e-01,5.73818e-11,9.99999e-01
4.486208064e-01,9.14248e-11,9.99999e-01,9.99999e-01,9.14248e-11,9.99999e-01
4.508639105e-01,1.44330e-10,9.99999e-01,9.99999e-01,1.44330e-10,9.99999e-01
4.531182300e-01,2.25806e-10,9.99999e-01,9.99999e-01,2.25806e-10,9.99999e-01
4.553838212e-01,3.50165e-10,9.99999e-01,9.99999e-01,3.50165e-10,9.99999e-01
4.576607403e-01,5.38327e-10,9.99999e-01,9.99999e-01,5.38327e-10,9.99999e-01
4.599490440e-01,8.20600e-10,9.99999e-01,9.99999e-01,8.20600e-10,9.99999e-01
4.622487892e-01,1.24051e-09,9.99999e-01,9.99999e-01,1.24051e-09,9.99999e-01
4.645600332e-01,1.86004e-09,9.99999e-01,9.99999e-01,1.86004e-09,9.99999e-01
4.668828333e-01,2.76676e-09,9.99999e-01,9.99999e-01,2.76676e-09,9.99999e-01
4.692172475e-01,4.08333e-09,9.99999e-01,9.99999e-01,4.08333e-09,9.99999e-01
4.715633337e-01,5.98022e-09,9.99999e-01,9.99999e-01,5.98022e-09,9.99999e-01
4.739211504e-01,8.69256e-09,9.99999e-01,9.99999e-01,8.69256e-09,9.99999e-01
4.762907561e-01,1.25421e-08,9.99999e-01,9.99999e-01,1.25421e-08,9.99999e-01
4.786722099e-01,1.79658e-08,9.99999e-01,9.99999e-01,1.79658e-08,9.99999e-01
4.810655710e-01,2.55529e-08,9.99999e-01,9.99999e-01,2.55529e-08,9.99999e-01
4.834708988e-01,3.60921e-08,9.99999e-01,9.99999e-01,3.60921e-08,9.99999e-01
4.858882533e-01,5.06316e-08,9.99999e-01,9.99999e-01,5.06316e-08,9.99999e-01
4.883176946e-01,7.05549e-08,9.99999e-01,9.99999e-01,7.05549e-08,9.99999e-01
4.907592831e-01,9.76757e-08,9.99999e-01,9.99999e-01,9.76757e-08,9.99999e-01
4.932130795e-01,1.34356e-07,9.99999e-01,9.99999e-01,1.34356e-07,9.99999e-01
4.956791449e-01,1.83649e-07,9.99999e-01,9.99999e-01,1.83649e-07,9.99999e-01
4.981575406e-01,2.49484e-07,9.99999e-01,9.99999e-01,2.49484e-07,9.99999e-01
5.006483283e-01,3.36874e-07,9.99999e-01,9.99999e-01,3.36874e-07,9.99999e-01
5.031515699e-01,4.52185e-07,9.99999e-01,9.99999e-01,4.52185e-07,9.99999e-01
5.056673278e-01,6.03447e-07,9.99999e-01,9.99999e-01,6.03447e-07,9.99999e-01
5.081956644e-01,8.00731e-07,9.99999e-01,9.99999e-01,8.00731e-07,9.99999e-01
5.107366428e-01,1.05659e-06,9.99999e-01,9.99999e-01,1.05659e-06,9.99999e-01
5.132903260e-01,1.38660e-06,9.99999e-01,9.99999e-01,1.38660e-06,9.99999e-01
5.158567776e-01,1.80993e-06,9.99999e-01,9.99999e-01,1.80993e-06,9.99999e-01
5.184360615e-01,2.35010e-06,9.99999e-01,9.99999e-01,2.35010e-06,9.99999e-01
5.210282418e-01,3.03579e-06,9.99999e-01,9.99999e-01,3.03579e-06,9.99999e-01
5.236333830e-01,3.90176e-06,9.99999e-01,9.99999e-01,3.90176e-06,9.99999e-01
5.262515499e-01,4.98996e-06,9.99999e-01,9.99999e-01,4.98996e-06,9.99999e-01
5.288828077e-01,6.35071e-06,9.99999e-01,9.99999e-01,6.35071e-06,9.99999e-01
5.315272217e-01,8.04414e-06,9.99999e-01,9.99999e-01,8.04414e-06,9.99999e-01
5.341848578e-01,1.01417e-05,9.99999e-01,9.99999e-01,1.01417e-05,9.99999e-01
5.368557821e-01,1.27277e-05,9.99999e-01,9.99999e-01,1.27277e-05,9.99999e-01
5.395400610e-01,1.59017e-05,9.99999e-01,9.99999e-01,1.59017e-05,9.99999e-01
5.422377613e-01,1.97800e-05,9.99999e-01,9.99999e-01,1.97800e-05,9.99999e-01
5.449489501e-01,2.44984e-05,9.99999e-01,9.99999e-01,2.44984e-05,9.99999e-01
5.476736949e-01,3.02144e-05,9.99999e-01,9.99999e-01,3.02144e-05,9.99999e-01
5.504120634e-01,3.71100e-05,9.99999e-01,9.99999e-01,3.71100e-05,9.99999e-01
5.531641237e-01,4.53947e-05,9.99999e-01,9.99999e-01,4.53947e-05,9.99999e-01
5.559299443e-01,5.53082e-05,9.99999e-01,9.99999e-01,5.53082e-05,9.99999e-01
5.587095940e-01,6.71244e-05,9.99999e-01,9.99999e-01,6.71244e-05,9.99999e-01
5.615031420e-01,8.11540e-05,9.99999e-01,9.99999e-01,8.11540e-05,9.99999e-01
5.643106577e-01,9.77487e-05,9.99999e-01,9.99999e-01,9.77487e-05,9.99999e-01
5.671322110e-01,1.17305e-04,9.99999e-01,9.99999e-01,1.17305e-04,9.99999e-01
5.699678720e-01,1.40267e-04,9.99999e-01,9.99999e-01,1.40267e-04,9.99999e-01
5.728177114e-01,1.67134e-04,9.99999e-01,9.99999e-01,1.67134e-04,9.99999e-01
5.756818000e-01,1.98458e-04,9.99999e-01,9.99999e-01,1.98458e-04,9.99999e-01
5.785602090e-01,2.34854e-04,9.99999e-01,9.99999e-01,2.34854e-04,9.99999e-01
5.814530100e-01,2.77003e-04,9.99999e-01,9.99999e-01,2.77003e-04,9.99999e-01
5.843602750e-01,3.25652e-04,9.99999e-01,9.99999e-01,3.25652e-04,9.99999e-01
5.872820764e-01,3.81624e-04,9.99999e-01,9.99999e-01,3.81624e-04,9.99999e-01
5.902184868e-01,4.45817e-04,9.99999e-01,9.99999e-01,4.45817e-04,9.99999e-01
5.931695792e-01,5.19211e-04,9.99999e-01,9.99999e-01,5.19211e-04,9.99999e-01
5.961354271e-01,6.02871e-04,9.99999e-01,9.99999e-01,6.02871e-04,9.99999e-01
5.991161043e-01,6.97947e-04,9.99999e-01,9.99999e-01,6.97947e-04,9.99999e-01
6.021116848e-01,8.05684e-04,9.99999e-01,9.99999e-01,8.05684e-04,9.99999e-01
6.051222432e-01,9.27419e-04,9.99999e-01,9.99999e-01,9.27419e-04,9.99999e-01
6.081478544e-01,1.06458e-03,9.99999e-01,9.99999e-01,1.06458e-03,9.99999e-01
6.111885937e-01,1.21871e-03,9.99999e-01,9.99999e-01,1.21871e-03,9.99999e-01
6.142445367e-01,1.39143e-03,9.99999e-01,9.99999e-01,1.39143e-03,9.99999e-01
6.173157594e-01,1.58447e-03,9.99999e-01,9.99999e-01,1.58447e-03,9.99999e-01
6.204023382e-01,1.79967e-03,9.99999e-01,9.99999e-01,1.79967e-03,9.99999e-01
6.235043498e-01,2.03897e-03,9.99999e-01,9.99999e-01,2.03897e-03,9.99999e-01
6.266218716e-01,2.30439e-03,9.99999e-01,9.99999e-01,2.30439e-03,9.99999e-01
6.297549810e-01,2.59808e-03,9.99999e-01,9.99999e-01,2.59808e-03,9.99999e-01
6.329037559e-01,2.92226e-03,9.99999e-01,9.99999e-01,2.92226e-03,9.99999e-01
6.360682746e-01,3.27927e-03,9.99999e-01,9.99999e-01,3.27927e-03,9.99999e-01
6.392486160e-01,3.67153e-03,9.99999e-01,9.99999e-01,3.67153e-03,9.99999e-01
6.424448591e-01,4.10155e-03,9.99999e-01,9.99999e-01,4.10155e-03,9.99999e-01
6.456570834e-01,4.57191e-03,9.99999e-01,9.99999e-01,4.57191e-03,9.99999e-01
6.488853688e-01,5.08530e-03,9.99999e-01,9.99999e-01,5.08530e-03,9.99999e-01
6.521297956e-01,5.64446e-03,9.99999e-01,9.99999e-01,5.64446e-03,9.99999e-01
6.553904446e-01,6.25221e-03,9.99999e-01,9.99999e-01,6.25221e-03,9.99999e-01
6.586673968e-01,6.91142e-03,9.99999e-01,9.99999e-01,6.91142e-03,9.99999e-01
6.619607338e-01,7.62502e-03,9.99999e-01,9.99999e-01,7.62502e-03,9.99999e-01
6.652705375e-01,8.39600e-03,9.99999e-01,9.99999e-01,8.39600e-03,9.99999e-01
6.685968902e-01,9.22735e-03,9.99999e-01,9.99999e-01,9.22735e-03,9.99999e-01
6.719398746e-01,1.01221e-02,9.99999e-01,9.99999e-01,1.01221e-02,9.99999e-01
6.752995740e-01,1.10834e-02,9.99999e-01,9.99999e-01,1.10834e-02,9.99999e-01
6.786760719e-01,1.21142e-02,9.99999e-01,9.99999e-01,1.21142e-02,9.99999e-01
6.820694522e-01,1.32177e-02,9.99999e-01,9.99999e-01,1.32177e-02,9.99999e-01
6.854797995e-01,1.43968e-02,9.99999e-01,9.99999e-01,1.43968e-02,9.99999e-01
6.889071985e-01,1.56547e-02,9.99999e-01,9.99999e-01,1.56547e-02,9.99999e-01
6.923517345e-01,1.69944e-02,9.99999e-01,9.99999e-01,1.69944e-02,9.99999e-01
6.958134932e-01,1.84188e-02,9.99999e-01,9.99999e-01,1.84188e-02,9.99999e-01
6.992925606e-01,1.99309e-02,9.99999e-01,9.99999e-01,1.99309e-02,9.99999e-01
7.027890234e-01,2.15335e-02,9.99999e-01,9.99999e-01,2.15335e-02,9.99999e-01
7.063029686e-01,2.32295e-02,9.99999e-01,9.99999e-01,2.32295e-02,9.99999e-01
7.098344834e-01,2.50216e-02,9.99999e-01,9.99999e-01,2.50216e-02,9.99999e-01
7.133836558e-01,2.69124e-02,9.99999e-01,9.99999e-01,2.69124e-02,9.99999e-01
7.169505741e-01,2.89045e-02,9.99999e-01,9.99999e-01,2.89045e-02,9.99999e-01
7.205353270e-01,3.10002e-02,9.99999e-01,9.99999e-01,3.10002e-02,9.99999e-01
7.241380036e-01,3.32020e-02,9.99999e-01,9.99999e-01,3.32020e-02,9.99999e-01
7.277586936e-01,3.55119e-02,9.99999e-01,9.99999e-01,3.55119e-02,9.99999e-01
7.313974871e-01,3.79322e-02,9.99999e-01,9.99999e-01,3.79322e-02,9.99999e-01
7.350544745e-01,4.04647e-02,9.99999e-01,9.99999e-01,4.04647e-02,9.99999e-01
7.387297469e-01,4.31112e-02,9.99999e-01,9.99999e-01,4.31112e-02,9.99999e-01
7.424233956e-01,4.58733e-02,9.99999e-01,9.99999e-01,4.58733e-02,9.99999e-01
7.461355126e-01,4.87526e-02,9.99999e-01,9.99999e-01,4.87526e-02,9.99999e-01
7.498661902e-01,5.17503e-02,9.99999e-01,9.99999e-01,5.17503e-02,9.99999e-01
7.536155211e-01,5.48676e-02,9.99999e-01,9.99999e-01,5.48676e-02,9.99999e-01
7.573835987e-01,5.81056e-02,9.99999e-01,9.99999e-01,5.81056e-02,9.99999e-01
7.611705167e-01,6.14650e-02,9.99999e-01,9.99999e-01,6.14650e-02,9.99999e-01
7.649763693e-01,6.49464e-02,9.99999e-01,9.99999e-01,6.49464e-02,9.99999e-01
7.688012511e-01,6.85504e-02,9.99999e-01,9.99999e-01,6.85504e-02,9.99999e-01
7.726452574e-01,7.22773e-02,9.99999e-01,9.99999e-01,7.22773e-02,9.99999e-01
7.765084837e-01,7.61271e-02,9.99999e-01,9.99999e-01,7.61271e-02,9.99999e-01
7.803910261e-01,7.24742e-02,9.99999e-01,9.04797e-01,8.00999e-02,9.99999e-01
7.842929812e-01,5.11007e-02,9.99999e-01,6.06930e-01,8.41953e-02,9.99999e-01
7.882144461e-01,5.22410e-02,9.99999e-01,5.90874e-01,8.84130e-02,9.99999e-01
7.921555184e-01,6.69260e-02,9.99999e-01,7.21555e-01,9.27524e-02,9.99999e-01
7.961162960e-01,7.79160e-02,9.99999e-01,8.01499e-01,9.72127e-02,9.99999e-01
8.000968774e-01,9.02652e-02,9.99999e-01,8.86752e-01,1.01793e-01,9.99999e-01
8.040973618e-01,1.00053e-01,9.99999e-01,9.39535e-01,1.06492e-01,9.99999e-01
8.081178486e-01,1.08162e-01,9.99999e-01,9.71727e-01,1.11309e-01,9.99999e-01
8.121584379e-01,1.15219e-01,9.99999e-01,9.91192e-01,1.16242e-01,9.99999e-01
8.162192301e-01,1.21053e-01,9.99999e-01,9.98048e-01,1.21290e-01,9.99999e-01
8.203003262e-01,1.26447e-01,9.99999e-01,9.99970e-01,1.26451e-01,9.99999e-01
8.244018279e-01,1.31723e-01,9.99999e-01,9.99999e-01,1.31723e-01,9.99999e-01
8.285238370e-01,1.37104e-01,9.99999e-01,9.99999e-01,1.37104e-01,9.99999e-01
8.326664562e-01,1.42592e-01,9.99999e-01,9.99999e-01,1.42592e-01,9.99999e-01
8.368297885e-01,1.48185e-01,9.99999e-01,9.99999e-01,1.48185e-01,9.99999e-01
8.410139374e-01,1.53880e-01,9.99999e-01,9.99999e-01,1.53880e-01,9.99999e-01
8.452190071e-01,1.59675e-01,9.99999e-01,9.99999e-01,1.59675e-01,9.99999e-01
8.494451021e-01,1.65568e-01,9.99999e-01,9.99999e-01,1.65568e-01,9.99999e-01
8.536923276e-01,1.71555e-01,9.99999e-01,9.99999e-01,1.71555e-01,9.99999e-01
8.579607893e-01,1.77634e-01,9.99999e-01,9.99999e-01,1.77634e-01,9.99999e-01
8.622505932e-01,1.83802e-01,9.99999e-01,9.99999e-01,1.83802e-01,9.99999e-01
8.665618462e-01,1.63741e-01,9.99999e-01,8.61542e-01,1.90055e-01,9.99999e-01
8.708946554e-01,5.78524e-02,9.99999e-01,2.94576e-01,1.96392e-01,9.99999e-01
8.752491287e-01,7.27983e-02,9.99999e-01,3.58950e-01,2.02809e-01,9.99999e-01
8.796253743e-01,1.17392e-01,9.99999e-01,5.60872e-01,2.09302e-01,9.99999e-01
8.840235012e-01,1.58900e-01,9.99999e-01,7.36093e-01,2.15869e-01,9.99999e-01
8.884436187e-01,1.97011e-01,9.99999e-01,8.85419e-01,2.22506e-01,9.99999e-01
8.928858368e-01,2.18148e-01,9.99999e-01,9.51739e-01,2.29210e-01,9.99999e-01
8.973502660e-01,2.33161e-01,9.99999e-01,9.88064e-01,2.35977e-01,9.99999e-01
9.018370173e-01,2.42484e-01,9.99999e-01,9.98677e-01,2.42805e-01,9.99999e-01
9.063462024e-01,2.41498e-01,9.99999e-01,9.67193e-01,2.49689e-01,9.99999e-01
9.108779334e-01,2.37402e-01,9.99999e-01,9.25084e-01,2.56627e-01,9.99999e-01
9.154323231e-01,2.58842e-01,9.99999e-01,9.81893e-01,2.63615e-01,9.99999e-01
9.200094847e-01,2.15592e-01,9.99999e-01,7.96572e-01,2.70650e-01,9.99999e-01
9.246095321e-01,1.90228e-01,9.99999e-01,6.84943e-01,2.77728e-01,9.99999e-01
9.292325798e-01,2.12985e-01,9.99999e-01,7.47723e-01,2.84845e-01,9.99999e-01
9.338787427e-01,2.19661e-01,9.99999e-01,7.52265e-01,2.91999e-01,9.99999e-01
9.385481364e-01,2.42225e-01,9.99999e-01,8.09610e-01,2.99186e-01,9.99999e-01
9.432408771e-01,2.69021e-01,9.99999e-01,8.77997e-01,3.06403e-01,9.99999e-01
9.479570815e-01,2.93364e-01,9.99999e-01,9.35333e-01,3.13646e-01,9.99999e-01
9.526968669e-01,3.10747e-01,9.99999e-01,9.68323e-01,3.20913e-01,9.99999e-01
9.574603512e-01,3.23708e-01,9.99999e-01,9.86316e-01,3.28199e-01,9.99999e-01
9.622476530e-01,3.34063e-01,9.99999e-01,9.95711e-01,3.35501e-01,9.99999e-01
9.670588912e-01,3.42377e-01,9.99999e-01,9.98713e-01,3.42818e-01,9.99999e-01
9.718941857e-01,3.50112e-01,9.99999e-01,9.99909e-01,3.50144e-01,9.99999e-01
9.767536566e-01,3.57478e-01,9.99999e-01,9.99999e-01,3.57478e-01,9.99999e-01
9.816374249e-01,3.64816e-01,9.99999e-01,9.99999e-01,3.64816e-01,9.99999e-01
9.865456120e-01,3.72155e-01,9.99999e-01,9.99999e-01,3.72155e-01,9.99999e-01
9.914783401e-01,3.79492e-01,9.99999e-01,9.99999e-01,3.79492e-01,9.99999e-01
9.964357318e-01,3.86825e-01,9.99999e-01,9.99999e-01,3.86825e-01,9.99999e-01
1.001417910e+00,3.94151e-01,9.99999e-01,9.99999e-01,3.94151e-01,9.99999e-01
1.006425000e+00,4.01466e-01,9.99999e-01,9.99999e-01,4.01466e-01,9.99999e-01
1.011457125e+00,4.08769e-01,9.99999e-01,9.99999e-01,4.08769e-01,9.99999e-01
1.016514411e+00,4.16056e-01,9.99999e-01,9.99999e-01,4.16056e-01,9.99999e-01
1.021596983e+00,4.23249e-01,9.99999e-01,9.99818e-01,4.23326e-01,9.99999e-01
1.026704968e+00,4.24924e-01,9.99999e-01,9.86874e-01,4.30575e-01,9.99999e-01
1.031838492e+00,3.92731e-01,9.99999e-01,8.97053e-01,4.37801e-01,9.99999e-01
1.036997685e+00,1.97377e-02,9.99999e-01,4.43542e-02,4.45003e-01,9.99999e-01
1.042182673e+00,9.17176e-04,9.99999e-01,2.02835e-03,4.52177e-01,9.99999e-01
1.047393587e+00,2.53999e-03,9.99999e-01,5.52986e-03,4.59322e-01,9.99999e-01
1.052630555e+00,1.21247e-07,9.99999e-01,2.59943e-07,4.66435e-01,9.99999e-01
1.057893707e+00,4.58245e-07,9.99999e-01,9.67751e-07,4.73515e-01,9.99999e-01
1.063183176e+00,1.78246e-05,9.99999e-01,3.70914e-05,4.80558e-01,9.99999e-01
1.068499092e+00,2.13365e-04,9.99999e-01,4.37614e-04,4.87565e-01,9.99999e-01
1.073841587e+00,3.31931e-03,9.99999e-01,6.71201e-03,4.94532e-01,9.99999e-01
1.079210795e+00,2.18544e-02,9.99999e-01,4.35816e-02,5.01459e-01,9.99999e-01
1.084606849e+00,8.50685e-02,9.99999e-01,1.67345e-01,5.08342e-01,9.99999e-01
1.090029883e+00,2.01640e-01,9.99999e-01,3.91396e-01,5.15182e-01,9.99999e-01
1.095480033e+00,3.28063e-01,9.99999e-01,6.28503e-01,5.21975e-01,9.99999e-01
1.100957433e+00,4.22109e-01,9.99999e-01,7.98358e-01,5.28721e-01,9.99999e-01
1.106462220e+00,4.87721e-01,9.99999e-01,9.10914e-01,5.35419e-01,9.99999e-01
1.111994531e+00,5.23612e-01,9.99999e-01,9.65954e-01,5.42067e-01,9.99999e-01
1.117554504e+00,5.44047e-01,9.99999e-01,9.91585e-01,5.48663e-01,9.99999e-01
1.123142276e+00,5.54900e-01,9.99999e-01,9.99445e-01,5.55207e-01,9.99999e-01
1.128757988e+00,5.61698e-01,9.99999e-01,9.99999e-01,5.61698e-01,9.99999e-01
1.134401778e+00,5.68134e-01,9.99999e-01,9.99999e-01,5.68134e-01,9.99999e-01
1.140073787e+00,5.74515e-01,9.99999e-01,9.99999e-01,5.74515e-01,9.99999e-01
1.145774156e+00,5.80839e-01,9.99999e-01,9.99999e-01,5.80839e-01,9.99999e-01
1.151503026e+00,5.87105e-01,9.99999e-01,9.99999e-01,5.87105e-01,9.99999e-01
1.157260541e+00,5.93314e-01,9.99999e-01,9.99999e-01,5.93314e-01,9.99999e-01
1.163046844e+00,5.99463e-01,9.99999e-01,9.99999e-01,5.99463e-01,9.99999e-01
1.168862078e+00,6.05553e-01,9.99999e-01,9.99999e-01,6.05553e-01,9.99999e-01
1.174706389e+00,6.11583e-01,9.99999e-01,9.99999e-01,6.11583e-01,9.99999e-01
1.180579921e+00,6.17552e-01,9.99999e-01,9.99999e-01,6.17552e-01,9.99999e-01
1.186482820e+00,6.23444e-01,9.99999e-01,9.99974e-01,6.23459e-01,9.99999e-01
1.192415234e+00,6.01408e-01,9.99999e-01,9.55670e-01,6.29305e-01,9.99999e-01
1.198377311e+00,3.23548e-01,9.99999e-01,5.09454e-01,6.35088e-01,9.99999e-01
1.204369197e+00,5.87690e-34,9.99999e-01,9.17105e-34,6.40809e-01,9.99999e-01
1.210391043e+00,1.75195e-138,9.99999e-01,2.71003e-138,6.46467e-01,9.99999e-01
1.216442998e+00,8.60813e-120,9.99999e-01,1.32014e-119,6.52061e-01,9.99999e-01
1.222525213e+00,5.46371e-118,9.99999e-01,8.30865e-118,6.57592e-01,9.99999e-01
1.228637839e+00,5.92340e-91,9.99999e-01,8.93343e-91,6.63059e-01,9.99999e-01
1.234781029e+00,1.86243e-56,9.99999e-01,2.78614e-56,6.68463e-01,9.99999e-01
1.240954934e+00,2.28058e-37,9.99999e-01,3.38464e-37,6.73802e-01,9.99999e-01
1.247159708e+00,7.99056e-18,9.99999e-01,1.17668e-17,6.79077e-01,9.99999e-01
1.253395507e+00,3.89350e-12,9.99999e-01,5.68985e-12,6.84288e-01,9.99999e-01
1.259662485e+00,3.41130e-07,9.99999e-01,4.94796e-07,6.89435e-01,9.99999e-01
1.265960797e+00,2.51397e-04,9.99999e-01,3.61973e-04,6.94518e-01,9.99999e-01
1.272290601e+00,1.60805e-02,9.99999e-01,2.29874e-02,6.99537e-01,9.99999e-01
1.278652054e+00,1.52523e-02,9.99999e-01,2.16500e-02,7.04492e-01,9.99999e-01
1.285045314e+00,9.30913e-06,9.99999e-01,1.31228e-05,7.09383e-01,9.99999e-01
1.291470541e+00,3.66685e-16,9.99999e-01,5.13412e-16,7.14211e-01,9.99999e-01
1.297927893e+00,7.18788e-07,9.99999e-01,9.99738e-07,7.18975e-01,9.99999e-01
1.304417533e+00,6.87161e-04,9.99999e-01,9.49542e-04,7.23676e-01,9.99999e-01
1.310939621e+00,1.83484e-04,9.99999e-01,2.51930e-04,7.28314e-01,9.99999e-01
1.317494319e+00,6.92365e-47,9.99999e-01,9.44706e-47,7.32889e-01,9.99999e-01
1.324081790e+00,1.17827e-30,9.99999e-01,1.59787e-30,7.37401e-01,9.99999e-01
1.330702199e+00,3.03307e-18,9.99999e-01,4.08850e-18,7.41851e-01,9.99999e-01
1.337355710e+00,1.27125e-16,9.99999e-01,1.70354e-16,7.46240e-01,9.99999e-01
1.344042489e+00,7.19888e-17,9.99999e-01,9.59124e-17,7.50567e-01,9.99999e-01
1.350762701e+00,1.47270e-18,9.99999e-01,1.95103e-18,7.54833e-01,9.99999e-01
1.357516515e+00,3.23173e-11,9.99999e-01,4.25766e-11,7.59038e-01,9.99999e-01
1.364304097e+00,2.67943e-08,9.99999e-01,3.51085e-08,7.63183e-01,9.99999e-01
1.371125618e+00,1.24714e-04,9.99999e-01,1.62542e-04,7.67268e-01,9.99999e-01
1.377981246e+00,3.94080e-04,9.99999e-01,5.10934e-04,7.71293e-01,9.99999e-01
1.384871152e+00,9.21423e-03,9.99999e-01,1.18853e-02,7.75260e-01,9.99999e-01
1.391795508e+00,1.32695e-02,9.99999e-01,1.70303e-02,7.79168e-01,9.99999e-01
1.398754485e+00,5.90979e-02,9.99999e-01,7.54745e-02,7.83018e-01,9.99999e-01
1.405748258e+00,1.20501e-01,9.99999e-01,1.53151e-01,7.86810e-01,9.99999e-01
1.412776999e+00,2.38812e-01,9.99999e-01,3.02085e-01,7.90545e-01,9.99999e-01
1.419840884e+00,2.29298e-01,9.99999e-01,2.88707e-01,7.94224e-01,9.99999e-01
1.426940089e+00,7.57587e-03,9.99999e-01,9.49540e-03,7.97846e-01,9.99999e-01
1.434074789e+00,0.00000e+00,9.99999e-01,0.00000e+00,8.01413e-01,9.99999e-01
1.441245163e+00,0.00000e+00,9.99999e-01,0.00000e+00,8.04925e-01,9.99999e-01
1.448451389e+00,0.00000e+00,9.99999e-01,0.00000e+00,8.08383e-01,9.99999e-01
1.455693646e+00,0.00000e+00,9.99999e-01,0.00000e+00,8.11787e-01,9.99999e-01
1.462972114e+00,0.00000e+00,9.99999e-01,0.00000e+00,8.15137e-01,9.99999e-01
1.470286975e+00,9.25945e-230,9.99999e-01,1.13136e-229,8.18435e-01,9.99999e-01
