#,Wave/freq,Total,O2,CO2,Rayleigh,CIA
4.000000000e-01,4.44490e-04,9.99999e-01,9.99999e-01,4.44490e-04,9.99999e-01
4.020000000e-01,5.17777e-04,9.99999e-01,9.99999e-01,5.17777e-04,9.99999e-01
4.040100000e-01,6.01238e-04,9.99999e-01,9.99999e-01,6.01238e-04,9.99999e-01
4.060300500e-01,6.96095e-04,9.99999e-01,9.99999e-01,6.96095e-04,9.99999e-01
4.080602003e-01,8.03588e-04,9.99999e-01,9.99999e-01,8.03588e-04,9.99999e-01
4.101005013e-01,9.25053e-04,9.99999e-01,9.99999e-01,9.25053e-04,9.99999e-01
4.121510038e-01,1.06192e-03,9.99999e-01,9.99999e-01,1.06192e-03,9.99999e-01
4.142117588e-01,1.21572e-03,9.99999e-01,9.99999e-01,1.21572e-03,9.99999e-01
4.162828176e-01,1.38809e-03,9.99999e-01,9.99999e-01,1.38809e-03,9.99999e-01
4.183642317e-01,1.58074e-03,9.99999e-01,9.99999e-01,1.58074e-03,9.99999e-01
4.204560528e-01,1.79552e-03,9.99999e-01,9.99999e-01,1.79552e-03,9.99999e-01
4.225583331e-01,2.03435e-03,9.99999e-01,9.99999e-01,2.03435e-03,9.99999e-01
4.246711247e-01,2.29928e-03,9.99999e-01,9.99999e-01,2.29928e-03,9.99999e-01
4.267944804e-01,2.59243e-03,9.99999e-01,9.99999e-01,2.59243e-03,9.99999e-01
4.289284528e-01,2.91603e-03,9.99999e-01,9.99999e-01,2.91603e-03,9.99999e-01
4.310730950e-01,3.27242e-03,9.99999e-01,9.99999e-01,3.27242e-03,9.99999e-01
4.332284605e-01,3.66401e-03,9.99999e-01,9.99999e-01,3.66401e-03,9.99999e-01
4.353946028e-01,4.09331e-03,9.99999e-01,9.99999e-01,4.09331e-03,9.99999e-01
4.375715758e-01,4.56291e-03,9.99999e-01,9.99999e-01,4.56291e-03,9.99999e-01
4.397594337e-01,5.07549e-03,9.99999e-01,9.99999e-01,5.07549e-03,9.99999e-01
4.419582309e-01,5.63379e-03,9.99999e-01,9.99999e-01,5.63379e-03,9.99999e-01
4.441680220e-01,6.24062e-03,9.99999e-01,9.99999e-01,6.24062e-03,9.99999e-01
4.463888621e-01,6.89886e-03,9.99999e-01,9.99999e-01,6.89886e-03,9.99999e-01
4.486208064e-01,7.61144e-03,9.99999e-01,9.99999e-01,7.61144e-03,9.99999e-01
4.508639105e-01,8.38133e-03,9.99999e-01,9.99999e-01,8.38133e-03,9.99999e-01
4.531182300e-01,9.21155e-03,9.99999e-01,9.99999e-01,9.21155e-03,9.99999e-01
4.553838212e-01,1.01051e-02,9.99999e-01,9.99999e-01,1.01051e-02,9.99999e-01
4.576607403e-01,1.10652e-02,9.99999e-01,9.99999e-01,1.10652e-02,9.99999e-01
4.599490440e-01,1.20947e-02,9.99999e-01,9.99999e-01,1.20947e-02,9.99999e-01
4.622487892e-01,1.31968e-02,9.99999e-01,9.99999e-01,1.31968e-02,9.99999e-01
4.645600332e-01,1.43745e-02,9.99999e-01,9.99999e-01,1.43745e-02,9.99999e-01
4.668828333e-01,1.56309e-02,9.99999e-01,9.99999e-01,1.56309e-02,9.99999e-01
4.692172475e-01,1.69691e-02,9.99999e-01,9.99999e-01,1.69691e-02,9.99999e-01
4.715633337e-01,1.83919e-02,9.99999e-01,9.99999e-01,1.83919e-02,9.99999e-01
4.739211504e-01,1.99024e-02,9.99999e-01,9.99999e-01,1.99024e-02,9.99999e-01
4.762907561e-01,2.15033e-02,9.99999e-01,9.99999e-01,2.15033e-02,9.99999e-01
4.786722099e-01,2.31976e-02,9.99999e-01,9.99999e-01,2.31976e-02,9.99999e-01
4.810655710e-01,2.49879e-02,9.99999e-01,9.99999e-01,2.49879e-02,9.99999e-01
4.834708988e-01,2.68768e-02,9.99999e-01,9.99999e-01,2.68768e-02,9.99999e-01
4.858882533e-01,2.88670e-02,9.99999e-01,9.99999e-01,2.88670e-02,9.99999e-01
4.883176946e-01,3.09608e-02,9.99999e-01,9.99999e-01,3.09608e-02,9.99999e-01
4.907592831e-01,3.31606e-02,9.99999e-01,9.99999e-01,3.31606e-02,9.99999e-01
4.932130795e-01,3.54686e-02,9.99999e-01,9.99999e-01,3.54686e-02,9.99999e-01
4.956791449e-01,3.78869e-02,9.99999e-01,9.99999e-01,3.78869e-02,9.99999e-01
4.981575406e-01,4.04173e-02,9.99999e-01,9.99999e-01,4.04173e-02,9.99999e-01
5.006483283e-01,4.30616e-02,9.99999e-01,9.99999e-01,4.30616e-02,9.99999e-01
5.031515699e-01,4.58216e-02,9.99999e-01,9.99999e-01,4.58216e-02,9.99999e-01
5.056673278e-01,4.86988e-02,9.99999e-01,9.99999e-01,4.86988e-02,9.99999e-01
5.081956644e-01,5.16943e-02,9.99999e-01,9.99999e-01,5.16943e-02,9.99999e-01
5.107366428e-01,5.48094e-02,9.99999e-01,9.99999e-01,5.48094e-02,9.99999e-01
5.132903260e-01,5.80452e-02,9.99999e-01,9.99999e-01,5.80452e-02,9.99999e-01
5.158567776e-01,6.14023e-02,9.99999e-01,9.99999e-01,6.14023e-02,9.99999e-01
5.184360615e-01,6.48815e-02,9.99999e-01,9.99999e-01,6.48815e-02,9.99999e-01
5.210282418e-01,6.84833e-02,9.99999e-01,9.99999e-01,6.84833e-02,9.99999e-01
5.236333830e-01,7.22079e-02,9.99999e-01,9.99999e-01,7.22079e-02,9.99999e-01
5.262515499e-01,7.60555e-02,9.99999e-01,9.99999e-01,7.60555e-02,9.99999e-01
5.288828077e-01,8.00260e-02,9.99999e-01,9.99999e-01,8.00260e-02,9.99999e-01
5.315272217e-01,8.41191e-02,9.99999e-01,9.99999e-01,8.41191e-02,9.99999e-01
5.341848578e-01,8.83346e-02,9.99999e-01,9.99999e-01,8.83346e-02,9.99999e-01
5.368557821e-01,9.26717e-02,9.99999e-01,9.99999e-01,9.26717e-02,9.99999e-01
5.395400610e-01,9.71298e-02,9.99999e-01,9.99999e-01,9.71298e-02,9.99999e-01
5.422377613e-01,1.01708e-01,9.99999e-01,9.99999e-01,1.01708e-01,9.99999e-01
5.449489501e-01,1.06405e-01,9.99999e-01,9.99999e-01,1.06405e-01,9.99999e-01
5.476736949e-01,1.11220e-01,9.99999e-01,9.99999e-01,1.11220e-01,9.99999e-01
5.504120634e-01,1.16151e-01,9.99999e-01,9.99999e-01,1.16151e-01,9.99999e-01
5.531641237e-01,1.21197e-01,9.99999e-01,9.99999e-01,1.21197e-01,9.99999e-01
5.559299443e-01,1.26355e-01,9.99999e-01,9.99999e-01,1.26355e-01,9.99999e-01
5.587095940e-01,1.31625e-01,9.99999e-01,9.99999e-01,1.31625e-01,9.99999e-01
5.615031420e-01,1.37004e-01,9.99999e-01,9.99999e-01,1.37004e-01,9.99999e-01
5.643106577e-01,1.42491e-01,9.99999e-01,9.99999e-01,1.42491e-01,9.99999e-01
5.671322110e-01,1.48082e-01,9.99999e-01,9.99999e-01,1.48082e-01,9.99999e-01
5.699678720e-01,1.53775e-01,9.99999e-01,9.99999e-01,1.53775e-01,9.99999e-01
5.728177114e-01,1.59568e-01,9.99999e-01,9.99999e-01,1.59568e-01,9.99999e-01
5.756818000e-01,1.65459e-01,9.99999e-01,9.99999e-01,1.65459e-01,9.99999e-01
5.785602090e-01,1.71444e-01,9.99999e-01,9.99999e-01,1.71444e-01,9.99999e-01
5.814530100e-01,1.77522e-01,9.99999e-01,9.99999e-01,1.77522e-01,9.99999e-01
5.843602750e-01,1.83688e-01,9.99999e-01,9.99999e-01,1.83688e-01,9.99999e-01
5.872820764e-01,1.89940e-01,9.99999e-01,9.99999e-01,1.89940e-01,9.99999e-01
5.902184868e-01,1.96275e-01,9.99999e-01,9.99999e-01,1.96275e-01,9.99999e-01
5.931695792e-01,2.02691e-01,9.99999e-01,9.99999e-01,2.02691e-01,9.99999e-01
5.961354271e-01,2.09182e-01,9.99999e-01,9.99999e-01,2.09182e-01,9.99999e-01
5.991161043e-01,2.15748e-01,9.99999e-01,9.99999e-01,2.15748e-01,9.99999e-01
6.021116848e-01,2.22384e-01,9.99999e-01,9.99999e-01,2.22384e-01,9.99999e-01
6.051222432e-01,2.29086e-01,9.99999e-01,9.99999e-01,2.29086e-01,9.99999e-01
6.081478544e-01,2.35853e-01,9.99999e-01,9.99999e-01,2.35853e-01,9.99999e-01
6.111885937e-01,2.42679e-01,9.99999e-01,9.99999e-01,2.42679e-01,9.99999e-01
6.142445367e-01,2.49563e-01,9.99999e-01,9.99999e-01,2.49563e-01,9.99999e-01
6.173157594e-01,2.56500e-01,9.99999e-01,9.99999e-01,2.56500e-01,9.99999e-01
6.204023382e-01,2.63487e-01,9.99999e-01,9.99999e-01,2.63487e-01,9.99999e-01
6.235043498e-01,2.70521e-01,9.99999e-01,9.99999e-01,2.70521e-01,9.99999e-01
6.266218716e-01,2.77598e-01,9.99999e-01,9.99999e-01,2.77598e-01,9.99999e-01
6.297549810e-01,2.84714e-01,9.99999e-01,9.99999e-01,2.84714e-01,9.99999e-01
6.329037559e-01,2.91868e-01,9.99999e-01,9.99999e-01,2.91868e-01,9.99999e-01
6.360682746e-01,2.99054e-01,9.99999e-01,9.99999e-01,2.99054e-01,9.99999e-01
6.392486160e-01,3.06271e-01,9.99999e-01,9.99999e-01,3.06271e-01,9.99999e-01
6.424448591e-01,3.13513e-01,9.99999e-01,9.99999e-01,3.13513e-01,9.99999e-01
6.456570834e-01,3.20779e-01,9.99999e-01,9.99999e-01,3.20779e-01,9.99999e-01
6.488853688e-01,3.28065e-01,9.99999e-01,9.99999e-01,3.28065e-01,9.99999e-01
6.521297956e-01,3.35367e-01,9.99999e-01,9.99999e-01,3.35367e-01,9.99999e-01
6.553904446e-01,3.42683e-01,9.99999e-01,9.99999e-01,3.42683e-01,9.99999e-01
6.586673968e-01,3.50010e-01,9.99999e-01,9.99999e-01,3.50010e-01,9.99999e-01
6.619607338e-01,3.57343e-01,9.99999e-01,9.99999e-01,3.57343e-01,9.99999e-01
6.652705375e-01,3.64681e-01,9.99999e-01,9.99999e-01,3.64681e-01,9.99999e-01
6.685968902e-01,3.72020e-01,9.99999e-01,9.99999e-01,3.72020e-01,9.99999e-01
6.719398746e-01,3.79358e-01,9.99999e-01,9.99999e-01,3.79358e-01,9.99999e-01
6.752995740e-01,3.86691e-01,9.99999e-01,9.99999e-01,3.86691e-01,9.99999e-01
6.786760719e-01,3.94016e-01,9.99999e-01,9.99999e-01,3.94016e-01,9.99999e-01
6.820694522e-01,4.01332e-01,9.99999e-01,9.99999e-01,4.01332e-01,9.99999e-01
6.854797995e-01,4.08635e-01,9.99999e-01,9.99999e-01,4.08635e-01,9.99999e-01
6.889071985e-01,4.15923e-01,9.99999e-01,9.99999e-01,4.15923e-01,9.99999e-01
6.923517345e-01,4.23193e-01,9.99999e-01,9.99999e-01,4.23193e-01,9.99999e-01
6.958134932e-01,4.30442e-01,9.99999e-01,9.99999e-01,4.30442e-01,9.99999e-01
6.992925606e-01,4.37669e-01,9.99999e-01,9.99999e-01,4.37669e-01,9.99999e-01
7.027890234e-01,4.44871e-01,9.99999e-01,9.99999e-01,4.44871e-01,9.99999e-01
7.063029686e-01,4.52046e-01,9.99999e-01,9.99999e-01,4.52046e-01,9.99999e-01
7.098344834e-01,4.59191e-01,9.99999e-01,9.99999e-01,4.59191e-01,9.99999e-01
7.133836558e-01,4.66305e-01,9.99999e-01,9.99999e-01,4.66305e-01,9.99999e-01
7.169505741e-01,4.73385e-01,9.99999e-01,9.99999e-01,4.73385e-01,9.99999e-01
7.205353270e-01,4.80430e-01,9.99999e-01,9.99999e-01,4.80430e-01,9.99999e-01
7.241380036e-01,4.87437e-01,9.99999e-01,9.99999e-01,4.87437e-01,9.99999e-01
7.277586936e-01,4.94405e-01,9.99999e-01,9.99999e-01,4.94405e-01,9.99999e-01
7.313974871e-01,5.01332e-01,9.99999e-01,9.99999e-01,5.01332e-01,9.99999e-01
7.350544745e-01,5.08216e-01,9.99999e-01,9.99999e-01,5.08216e-01,9.99999e-01
7.387297469e-01,5.15057e-01,9.99999e-01,9.99999e-01,5.15057e-01,9.99999e-01
7.424233956e-01,5.21851e-01,9.99999e-01,9.99999e-01,5.21851e-01,9.99999e-01
7.461355126e-01,5.28598e-01,9.99999e-01,9.99999e-01,5.28598e-01,9.99999e-01
7.498661902e-01,5.35297e-01,9.99999e-01,9.99999e-01,5.35297e-01,9.99999e-01
7.536155211e-01,5.41945e-01,9.99999e-01,9.99999e-01,5.41945e-01,9.99999e-01
7.573835987e-01,5.48543e-01,9.99999e-01,9.99999e-01,5.48543e-01,9.99999e-01
7.611705167e-01,5.55088e-01,9.99999e-01,9.99999e-01,5.55088e-01,9.99999e-01
7.649763693e-01,5.61580e-01,9.99999e-01,9.99999e-01,5.61580e-01,9.99999e-01
7.688012511e-01,5.68017e-01,9.99999e-01,9.99999e-01,5.68017e-01,9.99999e-01
7.726452574e-01,5.74398e-01,9.99999e-01,9.99999e-01,5.74398e-01,9.99999e-01
7.765084837e-01,5.80723e-01,9.99999e-01,9.99999e-01,5.80723e-01,9.99999e-01
7.803910261e-01,5.71612e-01,9.99999e-01,9.73799e-01,5.86991e-01,9.99999e-01
7.842929812e-01,5.29677e-01,9.99999e-01,8.92912e-01,5.93200e-01,9.99999e-01
7.882144461e-01,5.30606e-01,9.99999e-01,8.85301e-01,5.99351e-01,9.99999e-01
7.921555184e-01,5.64218e-01,9.99999e-01,9.31910e-01,6.05442e-01,9.99999e-01
7.961162960e-01,5.83401e-01,9.99999e-01,9.54091e-01,6.11473e-01,9.99999e-01
8.000968774e-01,6.01906e-01,9.99999e-01,9.74836e-01,6.17443e-01,9.99999e-01
8.040973618e-01,6.15193e-01,9.99999e-01,9.86911e-01,6.23351e-01,9.99999e-01
8.081178486e-01,6.25400e-01,9.99999e-01,9.93962e-01,6.29198e-01,9.99999e-01
8.121584379e-01,6.33801e-01,9.99999e-01,9.98138e-01,6.34983e-01,9.99999e-01
8.162192301e-01,6.40441e-01,9.99999e-01,9.99588e-01,6.40705e-01,9.99999e-01
8.203003262e-01,6.46360e-01,9.99999e-01,9.99993e-01,6.46364e-01,9.99999e-01
8.244018279e-01,6.51959e-01,9.99999e-01,9.99999e-01,6.51959e-01,9.99999e-01
8.285238370e-01,6.57491e-01,9.99999e-01,9.99999e-01,6.57491e-01,9.99999e-01
8.326664562e-01,6.62960e-01,9.99999e-01,9.99999e-01,6.62960e-01,9.99999e-01
8.368297885e-01,6.68364e-01,9.99999e-01,9.99999e-01,6.68364e-01,9.99999e-01
8.410139374e-01,6.73705e-01,9.99999e-01,9.99999e-01,6.73705e-01,9.99999e-01
8.452190071e-01,6.78981e-01,9.99999e-01,9.99999e-01,6.78981e-01,9.99999e-01
8.494451021e-01,6.84193e-01,9.99999e-01,9.99999e-01,6.84193e-01,9.99999e-01
8.536923276e-01,6.89342e-01,9.99999e-01,9.99999e-01,6.89342e-01,9.99999e-01
8.579607893e-01,6.94426e-01,9.99999e-01,9.99999e-01,6.94426e-01,9.99999e-01
8.622505932e-01,6.99446e-01,9.99999e-01,9.99999e-01,6.99446e-01,9.99999e-01
8.665618462e-01,6.60210e-01,9.99999e-01,9.37263e-01,7.04402e-01,9.99999e-01
8.708946554e-01,5.30577e-01,9.99999e-01,7.48034e-01,7.09294e-01,9.99999e-01
8.752491287e-01,5.66179e-01,9.99999e-01,7.92831e-01,7.14123e-01,9.99999e-01
8.796253743e-01,6.33266e-01,9.99999e-01,8.80895e-01,7.18888e-01,9.99999e-01
8.840235012e-01,6.77648e-01,9.99999e-01,9.36506e-01,7.23590e-01,9.99999e-01
8.884436187e-01,7.09689e-01,9.99999e-01,9.74540e-01,7.28229e-01,9.99999e-01
8.928858368e-01,7.25190e-01,9.99999e-01,9.89607e-01,7.32805e-01,9.99999e-01
8.973502660e-01,7.35456e-01,9.99999e-01,9.97473e-01,7.37319e-01,9.99999e-01
9.018370173e-01,7.41564e-01,9.99999e-01,9.99721e-01,7.41770e-01,9.99999e-01
9.063462024e-01,7.40759e-01,9.99999e-01,9.92761e-01,7.46160e-01,9.99999e-01
9.108779334e-01,7.38206e-01,9.99999e-01,9.83633e-01,7.50488e-01,9.99999e-01
9.154323231e-01,7.51850e-01,9.99999e-01,9.96150e-01,7.54755e-01,9.99999e-01
9.200094847e-01,7.16441e-01,9.99999e-01,9.43974e-01,7.58962e-01,9.99999e-01
9.246095321e-01,7.03820e-01,9.99999e-01,9.22307e-01,7.63107e-01,9.99999e-01
9.292325798e-01,7.19781e-01,9.99999e-01,9.38200e-01,7.67194e-01,9.99999e-01
9.338787427e-01,7.25346e-01,9.99999e-01,9.40516e-01,7.71220e-01,9.99999e-01
9.385481364e-01,7.41062e-01,9.99999e-01,9.55977e-01,7.75188e-01,9.99999e-01
9.432408771e-01,7.57956e-01,9.99999e-01,9.72865e-01,7.79097e-01,9.99999e-01
9.479570815e-01,7.71969e-01,9.99999e-01,9.85977e-01,7.82947e-01,9.99999e-01
9.526968669e-01,7.81407e-01,9.99999e-01,9.93220e-01,7.86741e-01,9.99999e-01
9.574603512e-01,7.88183e-01,9.99999e-01,9.97097e-01,7.90477e-01,9.99999e-01
9.622476530e-01,7.93438e-01,9.99999e-01,9.99094e-01,7.94157e-01,9.99999e-01
9.670588912e-01,7.97564e-01,9.99999e-01,9.99728e-01,7.97780e-01,9.99999e-01
9.718941857e-01,8.01333e-01,9.99999e-01,9.99980e-01,8.01348e-01,9.99999e-01
9.767536566e-01,8.04861e-01,9.99999e-01,9.99999e-01,8.04861e-01,9.99999e-01
9.816374249e-01,8.08320e-01,9.99999e-01,9.99999e-01,8.08320e-01,9.99999e-01
9.865456120e-01,8.11725e-01,9.99999e-01,9.99999e-01,8.11725e-01,9.99999e-01
9.914783401e-01,8.15076e-01,9.99999e-01,9.99999e-01,8.15076e-01,9.99999e-01
9.964357318e-01,8.18375e-01,9.99999e-01,9.99999e-01,8.18375e-01,9.99999e-01
1.001417910e+00,8.21621e-01,9.99999e-01,9.99999e-01,8.21621e-01,9.99999e-01
1.006425000e+00,8.24816e-01,9.99999e-01,9.99999e-01,8.24816e-01,9.99999e-01
1.011457125e+00,8.27960e-01,9.99999e-01,9.99999e-01,8.27960e-01,9.99999e-01
1.016514411e+00,8.31053e-01,9.99999e-01,9.99999e-01,8.31053e-01,9.99999e-01
1.021596983e+00,8.34063e-01,9.99999e-01,9.99959e-01,8.34096e-01,9.99999e-01
1.026704968e+00,8.34725e-01,9.99999e-01,9.97173e-01,8.37090e-01,9.99999e-01
1.031838492e+00,8.08694e-01,9.99999e-01,9.62689e-01,8.40036e-01,9.99999e-01
1.036997685e+00,1.67309e-01,9.99999e-01,1.98484e-01,8.42933e-01,9.99999e-01
1.042182673e+00,1.68394e-01,9.99999e-01,1.99099e-01,8.45783e-01,9.99999e-01
1.047393587e+00,1.75424e-01,9.99999e-01,2.06725e-01,8.48586e-01,9.99999e-01
1.052630555e+00,1.09133e-02,9.99999e-01,1.28189e-02,8.51342e-01,9.99999e-01
1.057893707e+00,2.44554e-02,9.99999e-01,2.86345e-02,8.54053e-01,9.99999e-01
1.063183176e+00,6.34863e-02,9.99999e-01,7.41040e-02,8.56718e-01,9.99999e-01
1.068499092e+00,1.45027e-01,9.99999e-01,1.68766e-01,8.59339e-01,9.99999e-01
1.073841587e+00,2.80775e-01,9.99999e-01,3.25757e-01,8.61916e-01,9.99999e-01
1.079210795e+00,4.25258e-01,9.99999e-01,4.91941e-01,8.64450e-01,9.99999e-01
1.084606849e+00,5.87763e-01,9.99999e-01,6.77973e-01,8.66941e-01,9.99999e-01
1.090029883e+00,7.10676e-01,9.99999e-01,8.17442e-01,8.69389e-01,9.99999e-01
1.095480033e+00,7.89455e-01,9.99999e-01,9.05549e-01,8.71796e-01,9.99999e-01
1.100957433e+00,8.33385e-01,9.99999e-01,9.53352e-01,8.74162e-01,9.99999e-01
1.106462220e+00,8.59357e-01,9.99999e-01,9.80456e-01,8.76487e-01,9.99999e-01
1.111994531e+00,8.72369e-01,9.99999e-01,9.92712e-01,8.78772e-01,9.99999e-01
1.117554504e+00,8.79450e-01,9.99999e-01,9.98219e-01,8.81018e-01,9.99999e-01
1.123142276e+00,8.83123e-01,9.99999e-01,9.99883e-01,8.83226e-01,9.99999e-01
1.128757988e+00,8.85395e-01,9.99999e-01,9.99999e-01,8.85395e-01,9.99999e-01
1.134401778e+00,8.87526e-01,9.99999e-01,9.99999e-01,8.87526e-01,9.99999e-01
1.140073787e+00,8.89620e-01,9.99999e-01,9.99999e-01,8.89620e-01,9.99999e-01
1.145774156e+00,8.91678e-01,9.99999e-01,9.99999e-01,8.91678e-01,9.99999e-01
1.151503026e+00,8.93699e-01,9.99999e-01,9.99999e-01,8.93699e-01,9.99999e-01
1.157260541e+00,8.95685e-01,9.99999e-01,9.99999e-01,8.95685e-01,9.99999e-01
1.163046844e+00,8.97637e-01,9.99999e-01,9.99999e-01,8.97637e-01,9.99999e-01
1.168862078e+00,8.99553e-01,9.99999e-01,9.99999e-01,8.99553e-01,9.99999e-01
1.174706389e+00,9.01436e-01,9.99999e-01,9.99999e-01,9.01436e-01,9.99999e-01
1.180579921e+00,9.03286e-01,9.99999e-01,9.99999e-01,9.03286e-01,9.99999e-01
1.186482820e+00,9.05097e-01,9.99999e-01,9.99993e-01,9.05102e-01,9.99999e-01
1.192415234e+00,8.97716e-01,9.99999e-01,9.89887e-01,9.06887e-01,9.99999e-01
1.198377311e+00,5.17126e-01,9.99999e-01,5.69121e-01,9.08639e-01,9.99999e-01
1.204369197e+00,6.07145e-09,9.99999e-01,6.66927e-09,9.10360e-01,9.99999e-01
1.210391043e+00,5.24421e-31,9.99999e-01,5.74990e-31,9.12051e-01,9.99999e-01
1.216442998e+00,4.62351e-27,9.99999e-01,5.06014e-27,9.13711e-01,9.99999e-01
1.222525213e+00,1.11650e-26,9.99999e-01,1.21976e-26,9.15341e-01,9.99999e-01
1.228637839e+00,1.23429e-20,9.99999e-01,1.34610e-20,9.16941e-01,9.99999e-01
1.234781029e+00,1.08613e-13,9.99999e-01,1.18249e-13,9.18513e-01,9.99999e-01
1.240954934e+00,2.84655e-09,9.99999e-01,3.09388e-09,9.20057e-01,9.99999e-01
1.247159708e+00,2.06437e-05,9.99999e-01,2.24005e-05,9.21572e-01,9.99999e-01
1.253395507e+00,1.95776e-03,9.99999e-01,2.12094e-03,9.23060e-01,9.99999e-01
1.259662485e+00,2.74001e-02,9.99999e-01,2.96371e-02,9.24521e-01,9.99999e-01
1.265960797e+00,1.20491e-01,9.99999e-01,1.30126e-01,9.25955e-01,9.99999e-01
1.272290601e+00,3.96273e-01,9.99999e-01,4.27311e-01,9.27363e-01,9.99999e-01
1.278652054e+00,3.41360e-01,9.99999e-01,3.67549e-01,9.28746e-01,9.99999e-01
1.285045314e+00,1.08124e-02,9.99999e-01,1.16249e-02,9.30103e-01,9.99999e-01
1.291470541e+00,2.44255e-04,9.99999e-01,2.62235e-04,9.31435e-01,9.99999e-01
1.297927893e+00,2.20580e-02,9.99999e-01,2.36485e-02,9.32742e-01,9.99999e-01
1.304417533e+00,1.99302e-01,9.99999e-01,2.13379e-01,9.34026e-01,9.99999e-01
1.310939621e+00,5.03043e-02,9.99999e-01,5.37849e-02,9.35286e-01,9.99999e-01
1.317494319e+00,3.91079e-11,9.99999e-01,4.17586e-11,9.36523e-01,9.99999e-01
1.324081790e+00,6.70962e-08,9.99999e-01,7.15511e-08,9.37737e-01,9.99999e-01
1.330702199e+00,1.13771e-04,9.99999e-01,1.21171e-04,9.38928e-01,9.99999e-01
1.337355710e+00,1.08390e-04,9.99999e-01,1.15297e-04,9.40098e-01,9.99999e-01
1.344042489e+00,3.16857e-05,9.99999e-01,3.36635e-05,9.41245e-01,9.99999e-01
1.350762701e+00,7.76459e-05,9.99999e-01,8.23940e-05,9.42372e-01,9.99999e-01
1.357516515e+00,2.11339e-03,9.99999e-01,2.24000e-03,9.43477e-01,9.99999e-01
1.364304097e+00,1.92189e-02,9.99999e-01,2.03468e-02,9.44562e-01,9.99999e-01
1.371125618e+00,1.22714e-01,9.99999e-01,1.29770e-01,9.45627e-01,9.99999e-01
1.377981246e+00,1.80591e-01,9.99999e-01,1.90764e-01,9.46672e-01,9.99999e-01
1.384871152e+00,3.61438e-01,9.99999e-01,3.81385e-01,9.47697e-01,9.99999e-01
1.391795508e+00,3.89479e-01,9.99999e-01,4.10538e-01,9.48703e-01,9.99999e-01
1.398754485e+00,5.48759e-01,9.99999e-01,5.77828e-01,9.49690e-01,9.99999e-01
1.405748258e+00,6.34619e-01,9.99999e-01,6.67556e-01,9.50659e-01,9.99999e-01
1.412776999e+00,7.37428e-01,9.99999e-01,7.74926e-01,9.51610e-01,9.99999e-01
1.419840884e+00,6.69034e-01,9.99999e-01,7.02366e-01,9.52543e-01,9.99999e-01
1.426940089e+00,7.35779e-02,9.99999e-01,7.71695e-02,9.53458e-01,9.99999e-01
1.434074789e+00,0.00000e+00,9.99999e-01,0.00000e+00,9.54356e-01,9.99999e-01
1.441245163e+00,0.00000e+00,9.99999e-01,0.00000e+00,9.55237e-01,9.99999e-01
1.448451389e+00,0.00000e+00,9.99999e-01,0.00000e+00,9.56101e-01,9.99999e-01
1.455693646e+00,6.08516e-245,9.99999e-01,6.35891e-245,9.56950e-01,9.99999e-01
1.462972114e+00,5.62564e-119,9.99999e-01,5.87361e-119,9.57782e-01,9.99999e-01
1.470286975e+00,2.79659e-50,9.99999e-01,2.91737e-50,9.58598e-01,9.99999e-01
