#,Wave/freq,Total,O2,CO2,Rayleigh,CIA
4.000000000e-01,2.06691e-10,9.99999e-01,9.99999e-01,2.06691e-10,9.99999e-01
4.020000000e-01,3.21228e-10,9.99999e-01,9.99999e-01,3.21228e-10,9.99999e-01
4.040100000e-01,4.94684e-10,9.99999e-01,9.99999e-01,4.94684e-10,9.99999e-01
4.060300500e-01,7.55332e-10,9.99999e-01,9.99999e-01,7.55332e-10,9.99999e-01
4.080602003e-01,1.14371e-09,9.99999e-01,9.99999e-01,1.14371e-09,9.99999e-01
4.101005013e-01,1.71766e-09,9.99999e-01,9.99999e-01,1.71766e-09,9.99999e-01
4.121510038e-01,2.55899e-09,9.99999e-01,9.99999e-01,2.55899e-09,9.99999e-01
4.142117588e-01,3.78252e-09,9.99999e-01,9.99999e-01,3.78252e-09,9.99999e-01
4.162828176e-01,5.54806e-09,9.99999e-01,9.99999e-01,5.54806e-09,9.99999e-01
4.183642317e-01,8.07634e-09,9.99999e-01,9.99999e-01,8.07634e-09,9.99999e-01
4.204560528e-01,1.16699e-08,9.99999e-01,9.99999e-01,1.16699e-08,9.99999e-01
4.225583331e-01,1.67403e-08,9.99999e-01,9.99999e-01,1.67403e-08,9.99999e-01
4.246711247e-01,2.38431e-08,9.99999e-01,9.99999e-01,2.38431e-08,9.99999e-01
4.267944804e-01,3.37232e-08,9.99999e-01,9.99999e-01,3.37232e-08,9.99999e-01
4.289284528e-01,4.73718e-08,9.99999e-01,9.99999e-01,4.73718e-08,9.99999e-01
4.310730950e-01,6.60993e-08,9.99999e-01,9.99999e-01,6.60993e-08,9.99999e-01
4.332284605e-01,9.16253e-08,9.99999e-01,9.99999e-01,9.16253e-08,9.99999e-01
4.353946028e-01,1.26192e-07,9.99999e-01,9.99999e-01,1.26192e-07,9.99999e-01
4.375715758e-01,1.72705e-07,9.99999e-01,9.99999e-01,1.72705e-07,9.99999e-01
4.397594337e-01,2.34901e-07,9.99999e-01,9.99999e-01,2.34901e-07,9.99999e-01
4.419582309e-01,3.17560e-07,9.99999e-01,9.99999e-01,3.17560e-07,9.99999e-01
4.441680220e-01,4.26758e-07,9.99999e-01,9.99999e-01,4.26758e-07,9.99999e-01
4.463888621e-01,5.70166e-07,9.99999e-01,9.99999e-01,5.70166e-07,9.99999e-01
4.486208064e-01,7.57418e-07,9.99999e-01,9.99999e-01,7.57418e-07,9.99999e-01
4.508639105e-01,1.00054e-06,9.99999e-01,9.99999e-01,1.00054e-06,9.99999e-01
4.531182300e-01,1.31445e-06,9.99999e-01,9.99999e-01,1.31445e-06,9.99999e-01
4.553838212e-01,1.71757e-06,9.99999e-01,9.99999e-01,1.71757e-06,9.99999e-01
4.576607403e-01,2.23248e-06,9.99999e-01,9.99999e-01,2.23248e-06,9.99999e-01
4.599490440e-01,2.88678e-06,9.99999e-01,9.99999e-01,2.88678e-06,9.99999e-01
4.622487892e-01,3.71393e-06,9.99999e-01,9.99999e-01,3.71393e-06,9.99999e-01
4.645600332e-01,4.75437e-06,9.99999e-01,9.99999e-01,4.75437e-06,9.99999e-01
4.668828333e-01,6.05667e-06,9.99999e-01,9.99999e-01,6.05667e-06,9.99999e-01
4.692172475e-01,7.67888e-06,9.99999e-01,9.99999e-01,7.67888e-06,9.99999e-01
4.715633337e-01,9.69005e-06,9.99999e-01,9.99999e-01,9.69005e-06,9.99999e-01
4.739211504e-01,1.21719e-05,9.99999e-01,9.99999e-01,1.21719e-05,9.99999e-01
4.762907561e-01,1.52207e-05,9.99999e-01,9.99999e-01,1.52207e-05,9.99999e-01
4.786722099e-01,1.89493e-05,9.99999e-01,9.99999e-01,1.89493e-05,9.99999e-01
4.810655710e-01,2.34894e-05,9.99999e-01,9.99999e-01,2.34894e-05,9.99999e-01
4.834708988e-01,2.89941e-05,9.99999e-01,9.99999e-01,2.89941e-05,9.99999e-01
4.858882533e-01,3.56402e-05,9.99999e-01,9.99999e-01,3.56402e-05,9.99999e-01
4.883176946e-01,4.36315e-05,9.99999e-01,9.99999e-01,4.36315e-05,9.99999e-01
4.907592831e-01,5.32016e-05,9.99999e-01,9.99999e-01,5.32016e-05,9.99999e-01
4.932130795e-01,6.46173e-05,9.99999e-01,9.99999e-01,6.46173e-05,9.99999e-01
4.956791449e-01,7.81816e-05,9.99999e-01,9.99999e-01,7.81816e-05,9.99999e-01
4.981575406e-01,9.42380e-05,9.99999e-01,9.99999e-01,9.42380e-05,9.99999e-01
5.006483283e-01,1.13174e-04,9.99999e-01,9.99999e-01,1.13174e-04,9.99999e-01
5.031515699e-01,1.35423e-04,9.99999e-01,9.99999e-01,1.35423e-04,9.99999e-01
5.056673278e-01,1.61474e-04,9.99999e-01,9.99999e-01,1.61474e-04,9.99999e-01
5.081956644e-01,1.91867e-04,9.99999e-01,9.99999e-01,1.91867e-04,9.99999e-01
5.107366428e-01,2.27207e-04,9.99999e-01,9.99999e-01,2.27207e-04,9.99999e-01
5.132903260e-01,2.68158e-04,9.99999e-01,9.99999e-01,2.68158e-04,9.99999e-01
5.158567776e-01,3.15456e-04,9.99999e-01,9.99999e-01,3.15456e-04,9.99999e-01
5.184360615e-01,3.69908e-04,9.99999e-01,9.99999e-01,3.69908e-04,9.99999e-01
5.210282418e-01,4.32397e-04,9.99999e-01,9.99999e-01,4.32397e-04,9.99999e-01
5.236333830e-01,5.03886e-04,9.99999e-01,9.99999e-01,5.03886e-04,9.99999e-01
5.262515499e-01,5.85422e-04,9.99999e-01,9.99999e-01,5.85422e-04,9.99999e-01
5.288828077e-01,6.78140e-04,9.99999e-01,9.99999e-01,6.78140e-04,9.99999e-01
5.315272217e-01,7.83265e-04,9.99999e-01,9.99999e-01,7.83265e-04,9.99999e-01
5.341848578e-01,9.02115e-04,9.99999e-01,9.99999e-01,9.02115e-04,9.99999e-01
5.368557821e-01,1.03610e-03,9.99999e-01,9.99999e-01,1.03610e-03,9.99999e-01
5.395400610e-01,1.18674e-03,9.99999e-01,9.99999e-01,1.18674e-03,9.99999e-01
5.422377613e-01,1.35564e-03,9.99999e-01,9.99999e-01,1.35564e-03,9.99999e-01
5.449489501e-01,1.54451e-03,9.99999e-01,9.99999e-01,1.54451e-03,9.99999e-01
5.476736949e-01,1.75517e-03,9.99999e-01,9.99999e-01,1.75517e-03,9.99999e-01
5.504120634e-01,1.98954e-03,9.99999e-01,9.99999e-01,1.98954e-03,9.99999e-01
5.531641237e-01,2.24961e-03,9.99999e-01,9.99999e-01,2.24961e-03,9.99999e-01
5.559299443e-01,2.53753e-03,9.99999e-01,9.99999e-01,2.53753e-03,9.99999e-01
5.587095940e-01,2.85549e-03,9.99999e-01,9.99999e-01,2.85549e-03,9.99999e-01
5.615031420e-01,3.20580e-03,9.99999e-01,9.99999e-01,3.20580e-03,9.99999e-01
5.643106577e-01,3.59088e-03,9.99999e-01,9.99999e-01,3.59088e-03,9.99999e-01
5.671322110e-01,4.01320e-03,9.99999e-01,9.99999e-01,4.01320e-03,9.99999e-01
5.699678720e-01,4.47536e-03,9.99999e-01,9.99999e-01,4.47536e-03,9.99999e-01
5.728177114e-01,4.98001e-03,9.99999e-01,9.99999e-01,4.98001e-03,9.99999e-01
5.756818000e-01,5.52988e-03,9.99999e-01,9.99999e-01,5.52988e-03,9.99999e-01
5.785602090e-01,6.12777e-03,9.99999e-01,9.99999e-01,6.12777e-03,9.99999e-01
5.814530100e-01,6.77655e-03,9.99999e-01,9.99999e-01,6.77655e-03,9.99999e-01
5.843602750e-01,7.47914e-03,9.99999e-01,9.99999e-01,7.47914e-03,9.99999e-01
5.872820764e-01,8.23851e-03,9.99999e-01,9.99999e-01,8.23851e-03,9.99999e-01
5.902184868e-01,9.05765e-03,9.99999e-01,9.99999e-01,9.05765e-03,9.99999e-01
5.931695792e-01,9.93962e-03,9.99999e-01,9.99999e-01,9.93962e-03,9.99999e-01
5.961354271e-01,1.08875e-02,9.99999e-01,9.99999e-01,1.08875e-02,9.99999e-01
5.991161043e-01,1.19043e-02,9.99999e-01,9.99999e-01,1.19043e-02,9.99999e-01
6.021116848e-01,1.29931e-02,9.99999e-01,9.99999e-01,1.29931e-02,9.99999e-01
6.051222432e-01,1.41570e-02,9.99999e-01,9.99999e-01,1.41570e-02,9.99999e-01
6.081478544e-01,1.53990e-02,9.99999e-01,9.99999e-01,1.53990e-02,9.99999e-01
6.111885937e-01,1.67223e-02,9.99999e-01,9.99999e-01,1.67223e-02,9.99999e-01
6.142445367e-01,1.81296e-02,9.99999e-01,9.99999e-01,1.81296e-02,9.99999e-01
6.173157594e-01,1.96241e-02,9.99999e-01,9.99999e-01,1.96241e-02,9.99999e-01
6.204023382e-01,2.12086e-02,9.99999e-01,9.99999e-01,2.12086e-02,9.99999e-01
6.235043498e-01,2.28859e-02,9.99999e-01,9.99999e-01,2.28859e-02,9.99999e-01
6.266218716e-01,2.46587e-02,9.99999e-01,9.99999e-01,2.46587e-02,9.99999e-01
6.297549810e-01,2.65297e-02,9.99999e-01,9.99999e-01,2.65297e-02,9.99999e-01
6.329037559e-01,2.85015e-02,9.99999e-01,9.99999e-01,2.85015e-02,9.99999e-01
6.360682746e-01,3.05765e-02,9.99999e-01,9.99999e-01,3.05765e-02,9.99999e-01
6.392486160e-01,3.27571e-02,9.99999e-01,9.99999e-01,3.27571e-02,9.99999e-01
6.424448591e-01,3.50455e-02,9.99999e-01,9.99999e-01,3.50455e-02,9.99999e-01
6.456570834e-01,3.74437e-02,9.99999e-01,9.99999e-01,3.74437e-02,9.99999e-01
6.488853688e-01,3.99538e-02,9.99999e-01,9.99999e-01,3.99538e-02,9.99999e-01
6.521297956e-01,4.25776e-02,9.99999e-01,9.99999e-01,4.25776e-02,9.99999e-01
6.553904446e-01,4.53167e-02,9.99999e-01,9.99999e-01,4.53167e-02,9.99999e-01
6.586673968e-01,4.81726e-02,9.99999e-01,9.99999e-01,4.81726e-02,9.99999e-01
6.619607338e-01,5.11468e-02,9.99999e-01,9.99999e-01,5.11468e-02,9.99999e-01
6.652705375e-01,5.42403e-02,9.99999e-01,9.99999e-01,5.42403e-02,9.99999e-01
6.685968902e-01,5.74543e-02,9.99999e-01,9.99999e-01,5.74543e-02,9.99999e-01
6.719398746e-01,6.07895e-02,9.99999e-01,9.99999e-01,6.07895e-02,9.99999e-01
6.752995740e-01,6.42468e-02,9.99999e-01,9.99999e-01,6.42468e-02,9.99999e-01
6.786760719e-01,6.78265e-02,9.99999e-01,9.99999e-01,6.78265e-02,9.99999e-01
6.820694522e-01,7.15290e-02,9.99999e-01,9.99999e-01,7.15290e-02,9.99999e-01
6.854797995e-01,7.53544e-02,9.99999e-01,9.99999e-01,7.53544e-02,9.99999e-01
6.889071985e-01,7.93028e-02,9.99999e-01,9.99999e-01,7.93028e-02,9.99999e-01
6.923517345e-01,8.33739e-02,9.99999e-01,9.99999e-01,8.33739e-02,9.99999e-01
6.958134932e-01,8.75674e-02,9.99999e-01,9.99999e-01,8.75674e-02,9.99999e-01
6.992925606e-01,9.18828e-02,9.99999e-01,9.99999e-01,9.18828e-02,9.99999e-01
7.027890234e-01,9.63192e-02,9.99999e-01,9.99999e-01,9.63192e-02,9.99999e-01
7.063029686e-01,1.00876e-01,9.99999e-01,9.99999e-01,1.00876e-01,9.99999e-01
7.098344834e-01,1.05552e-01,9.99999e-01,9.99999e-01,1.05552e-01,9.99999e-01
7.133836558e-01,1.10345e-01,9.99999e-01,9.99999e-01,1.10345e-01,9.99999e-01
7.169505741e-01,1.15255e-01,9.99999e-01,9.99999e-01,1.15255e-01,9.99999e-01
7.205353270e-01,1.20281e-01,9.99999e-01,9.99999e-01,1.20281e-01,9.99999e-01
7.241380036e-01,1.25419e-01,9.99999e-01,9.99999e-01,1.25419e-01,9.99999e-01
7.277586936e-01,1.30669e-01,9.99999e-01,9.99999e-01,1.30669e-01,9.99999e-01
7.313974871e-01,1.36029e-01,9.99999e-01,9.99999e-01,1.36029e-01,9.99999e-01
7.350544745e-01,1.41496e-01,9.99999e-01,9.99999e-01,1.41496e-01,9.99999e-01
7.387297469e-01,1.47068e-01,9.99999e-01,9.99999e-01,1.47068e-01,9.99999e-01
7.424233956e-01,1.52744e-01,9.99999e-01,9.99999e-01,1.52744e-01,9.99999e-01
7.461355126e-01,1.58519e-01,9.99999e-01,9.99999e-01,1.58519e-01,9.99999e-01
7.498661902e-01,1.64393e-01,9.99999e-01,9.99999e-01,1.64393e-01,9.99999e-01
7.536155211e-01,1.70361e-01,9.99999e-01,9.99999e-01,1.70361e-01,9.99999e-01
7.573835987e-01,1.76422e-01,9.99999e-01,9.99999e-01,1.76422e-01,9.99999e-01
7.611705167e-01,1.82572e-01,9.99999e-01,9.99999e-01,1.82572e-01,9.99999e-01
7.649763693e-01,1.88809e-01,9.99999e-01,9.99999e-01,1.88809e-01,9.99999e-01
7.688012511e-01,1.95130e-01,9.99999e-01,9.99999e-01,1.95130e-01,9.99999e-01
7.726452574e-01,2.01531e-01,9.99999e-01,9.99999e-01,2.01531e-01,9.99999e-01
7.765084837e-01,2.08009e-01,9.99999e-01,9.99999e-01,2.08009e-01,9.99999e-01
7.803910261e-01,2.00636e-01,9.99999e-01,9.35096e-01,2.14562e-01,9.99999e-01
7.842929812e-01,1.61467e-01,9.99999e-01,7.30009e-01,2.21185e-01,9.99999e-01
7.882144461e-01,1.63097e-01,9.99999e-01,7.15728e-01,2.27876e-01,9.99999e-01
7.921555184e-01,1.91877e-01,9.99999e-01,8.17779e-01,2.34631e-01,9.99999e-01
7.961162960e-01,2.10856e-01,9.99999e-01,8.73301e-01,2.41447e-01,9.99999e-01
8.000968774e-01,2.30723e-01,9.99999e-01,9.29133e-01,2.48321e-01,9.99999e-01
8.040973618e-01,2.45705e-01,9.99999e-01,9.62612e-01,2.55248e-01,9.99999e-01
8.081178486e-01,2.57677e-01,9.99999e-01,9.82648e-01,2.62227e-01,9.99999e-01
8.121584379e-01,2.67802e-01,9.99999e-01,9.94612e-01,2.69252e-01,9.99999e-01
8.162192301e-01,2.75993e-01,9.99999e-01,9.98808e-01,2.76322e-01,9.99999e-01
8.203003262e-01,2.83427e-01,9.99999e-01,9.99981e-01,2.83432e-01,9.99999e-01
8.244018279e-01,2.90579e-01,9.99999e-01,9.99999e-01,2.90579e-01,9.99999e-01
8.285238370e-01,2.97760e-01,9.99999e-01,9.99999e-01,2.97760e-01,9.99999e-01
8.326664562e-01,3.04971e-01,9.99999e-01,9.99999e-01,3.04971e-01,9.99999e-01
8.368297885e-01,3.12209e-01,9.99999e-01,9.99999e-01,3.12209e-01,9.99999e-01
8.410139374e-01,3.19471e-01,9.99999e-01,9.99999e-01,3.19471e-01,9.99999e-01
8.452190071e-01,3.26753e-01,9.99999e-01,9.99999e-01,3.26753e-01,9.99999e-01
8.494451021e-01,3.34053e-01,9.99999e-01,9.99999e-01,3.34053e-01,9.99999e-01
8.536923276e-01,3.41367e-01,9.99999e-01,9.99999e-01,3.41367e-01,9.99999e-01
8.579607893e-01,3.48691e-01,9.99999e-01,9.99999e-01,3.48691e-01,9.99999e-01
8.622505932e-01,3.56024e-01,9.99999e-01,9.99999e-01,3.56024e-01,9.99999e-01
8.665618462e-01,3.22789e-01,9.99999e-01,8.88342e-01,3.63361e-01,9.99999e-01
8.708946554e-01,1.69425e-01,9.99999e-01,4.57041e-01,3.70700e-01,9.99999e-01
8.752491287e-01,1.98618e-01,9.99999e-01,5.25390e-01,3.78038e-01,9.99999e-01
8.796253743e-01,2.69033e-01,9.99999e-01,6.98112e-01,3.85372e-01,9.99999e-01
8.840235012e-01,3.25291e-01,9.99999e-01,8.28346e-01,3.92700e-01,9.99999e-01
8.884436187e-01,3.71308e-01,9.99999e-01,9.28230e-01,4.00017e-01,9.99999e-01
8.928858368e-01,3.95202e-01,9.99999e-01,9.70241e-01,4.07323e-01,9.99999e-01
8.973502660e-01,4.11584e-01,9.99999e-01,9.92693e-01,4.14613e-01,9.99999e-01
9.018370173e-01,4.21546e-01,9.99999e-01,9.99192e-01,4.21887e-01,9.99999e-01
9.063462024e-01,4.20398e-01,9.99999e-01,9.79627e-01,4.29140e-01,9.99999e-01
9.108779334e-01,4.16081e-01,9.99999e-01,9.53500e-01,4.36371e-01,9.99999e-01
9.154323231e-01,4.38650e-01,9.99999e-01,9.88889e-01,4.43578e-01,9.99999e-01
9.200094847e-01,3.87600e-01,9.99999e-01,8.59884e-01,4.50758e-01,9.99999e-01
9.246095321e-01,3.62997e-01,9.99999e-01,7.92727e-01,4.57908e-01,9.99999e-01
9.292325798e-01,3.88320e-01,9.99999e-01,8.35046e-01,4.65028e-01,9.99999e-01
9.338787427e-01,3.96178e-01,9.99999e-01,8.39156e-01,4.72114e-01,9.99999e-01
9.385481364e-01,4.20978e-01,9.99999e-01,8.78564e-01,4.79165e-01,9.99999e-01
9.432408771e-01,4.49032e-01,9.99999e-01,9.23592e-01,4.86180e-01,9.99999e-01
9.479570815e-01,4.73438e-01,9.99999e-01,9.60017e-01,4.93155e-01,9.99999e-01
9.526968669e-01,4.90354e-01,9.99999e-01,9.80532e-01,5.00089e-01,9.99999e-01
9.574603512e-01,5.02736e-01,9.99999e-01,9.91626e-01,5.06981e-01,9.99999e-01
9.622476530e-01,5.12484e-01,9.99999e-01,9.97380e-01,5.13830e-01,9.99999e-01
9.670588912e-01,5.20224e-01,9.99999e-01,9.99214e-01,5.20632e-01,9.99999e-01
9.718941857e-01,5.27359e-01,9.99999e-01,9.99944e-01,5.27388e-01,9.99999e-01
9.767536566e-01,5.34096e-01,9.99999e-01,9.99999e-01,5.34096e-01,9.99999e-01
9.816374249e-01,5.40753e-01,9.99999e-01,9.99999e-01,5.40753e-01,9.99999e-01
9.865456120e-01,5.47360e-01,9.99999e-01,9.99999e-01,5.47360e-01,9.99999e-01
9.914783401e-01,5.53915e-01,9.99999e-01,9.99999e-01,5.53915e-01,9.99999e-01
9.964357318e-01,5.60416e-01,9.99999e-01,9.99999e-01,5.60416e-01,9.99999e-01
1.001417910e+00,5.66863e-01,9.99999e-01,9.99999e-01,5.66863e-01,9.99999e-01
1.006425000e+00,5.73255e-01,9.99999e-01,9.99999e-01,5.73255e-01,9.99999e-01
1.011457125e+00,5.79590e-01,9.99999e-01,9.99999e-01,5.79590e-01,9.99999e-01
1.016514411e+00,5.85868e-01,9.99999e-01,9.99999e-01,5.85868e-01,9.99999e-01
1.021596983e+00,5.92023e-01,9.99999e-01,9.99889e-01,5.92088e-01,9.99999e-01
1.026704968e+00,5.93436e-01,9.99999e-01,9.91953e-01,5.98249e-01,9.99999e-01
1.031838492e+00,5.59388e-01,9.99999e-01,9.25601e-01,6.04351e-01,9.99999e-01
1.036997685e+00,4.57556e-02,9.99999e-01,7.49608e-02,6.10393e-01,9.99999e-01
1.042182673e+00,9.45826e-03,9.99999e-01,1.53450e-02,6.16374e-01,9.99999e-01
1.047393587e+00,1.86062e-02,9.99999e-01,2.98993e-02,6.22293e-01,9.99999e-01
1.052630555e+00,2.25918e-05,9.99999e-01,3.59655e-05,6.28151e-01,9.99999e-01
1.057893707e+00,8.04485e-05,9.99999e-01,1.26901e-04,6.33947e-01,9.99999e-01
1.063183176e+00,7.99395e-04,9.99999e-01,1.24968e-03,6.39680e-01,9.99999e-01
1.068499092e+00,4.83434e-03,9.99999e-01,7.49103e-03,6.45350e-01,9.99999e-01
1.073841587e+00,2.86216e-02,9.99999e-01,4.39685e-02,6.50957e-01,9.99999e-01
1.079210795e+00,9.12950e-02,9.99999e-01,1.39063e-01,6.56501e-01,9.99999e-01
1.084606849e+00,2.19089e-01,9.99999e-01,3.30959e-01,6.61981e-01,9.99999e-01
1.090029883e+00,3.74695e-01,9.99999e-01,5.61426e-01,6.67397e-01,9.99999e-01
1.095480033e+00,5.05884e-01,9.99999e-01,7.51965e-01,6.72749e-01,9.99999e-01
1.100957433e+00,5.90783e-01,9.99999e-01,8.71313e-01,6.78037e-01,9.99999e-01
1.106462220e+00,6.45396e-01,9.99999e-01,9.44581e-01,6.83261e-01,9.99999e-01
1.111994531e+00,6.74016e-01,9.99999e-01,9.79075e-01,6.88421e-01,9.99999e-01
1.117554504e+00,6.89947e-01,9.99999e-01,9.94853e-01,6.93516e-01,9.99999e-01
1.123142276e+00,6.98312e-01,9.99999e-01,9.99661e-01,6.98548e-01,9.99999e-01
1.128757988e+00,7.03515e-01,9.99999e-01,9.99999e-01,7.03515e-01,9.99999e-01
1.134401778e+00,7.08419e-01,9.99999e-01,9.99999e-01,7.08419e-01,9.99999e-01
1.140073787e+00,7.13259e-01,9.99999e-01,9.99999e-01,7.13259e-01,9.99999e-01
1.145774156e+00,7.18036e-01,9.99999e-01,9.99999e-01,7.18036e-01,9.99999e-01
1.151503026e+00,7.22749e-01,9.99999e-01,9.99999e-01,7.22749e-01,9.99999e-01
1.157260541e+00,7.27399e-01,9.99999e-01,9.99999e-01,7.27399e-01,9.99999e-01
1.163046844e+00,7.31987e-01,9.99999e-01,9.99999e-01,7.31987e-01,9.99999e-01
1.168862078e+00,7.36512e-01,9.99999e-01,9.99999e-01,7.36512e-01,9.99999e-01
1.174706389e+00,7.40974e-01,9.99999e-01,9.99999e-01,7.40974e-01,9.99999e-01
1.180579921e+00,7.45375e-01,9.99999e-01,9.99999e-01,7.45375e-01,9.99999e-01
1.186482820e+00,7.49703e-01,9.99999e-01,9.99984e-01,7.49714e-01,9.99999e-01
1.192415234e+00,7.32937e-01,9.99999e-01,9.72074e-01,7.53992e-01,9.99999e-01
1.198377311e+00,4.06597e-01,9.99999e-01,5.36258e-01,7.58209e-01,9.99999e-01
1.204369197e+00,1.38586e-21,9.99999e-01,1.81784e-21,7.62366e-01,9.99999e-01
1.210391043e+00,2.55322e-85,9.99999e-01,3.33116e-85,7.66463e-01,9.99999e-01
1.216442998e+00,6.36284e-74,9.99999e-01,8.25806e-74,7.70500e-01,9.99999e-01
1.222525213e+00,8.00283e-73,9.99999e-01,1.03332e-72,7.74478e-01,9.99999e-01
1.228637839e+00,2.74435e-56,9.99999e-01,3.52563e-56,7.78398e-01,9.99999e-01
1.234781029e+00,2.65013e-35,9.99999e-01,3.38778e-35,7.82259e-01,9.99999e-01
1.240954934e+00,1.48638e-23,9.99999e-01,1.89092e-23,7.86063e-01,9.99999e-01
1.247159708e+00,9.55058e-12,9.99999e-01,1.20923e-11,7.89809e-01,9.99999e-01
1.253395507e+00,6.46032e-08,9.99999e-01,8.14155e-08,7.93499e-01,9.99999e-01
1.259662485e+00,7.15947e-05,9.99999e-01,8.98152e-05,7.97133e-01,9.99999e-01
1.265960797e+00,4.23301e-03,9.99999e-01,5.28656e-03,8.00711e-01,9.99999e-01
1.272290601e+00,7.54934e-02,9.99999e-01,9.38699e-02,8.04234e-01,9.99999e-01
1.278652054e+00,6.57549e-02,9.99999e-01,8.14098e-02,8.07702e-01,9.99999e-01
1.285045314e+00,2.43900e-04,9.99999e-01,3.00696e-04,8.11116e-01,9.99999e-01
1.291470541e+00,1.97253e-10,9.99999e-01,2.42183e-10,8.14477e-01,9.99999e-01
1.297927893e+00,6.80298e-05,9.99999e-01,8.31878e-05,8.17785e-01,9.99999e-01
1.304417533e+00,1.06939e-02,9.99999e-01,1.30248e-02,8.21041e-01,9.99999e-01
1.310939621e+00,2.55869e-03,9.99999e-01,3.10428e-03,8.24245e-01,9.99999e-01
1.317494319e+00,2.15999e-29,9.99999e-01,2.61058e-29,8.27398e-01,9.99999e-01
1.324081790e+00,1.60501e-19,9.99999e-01,1.93259e-19,8.30500e-01,9.99999e-01
1.330702199e+00,1.34208e-11,9.99999e-01,1.61008e-11,8.33553e-01,9.99999e-01
1.337355710e+00,8.40338e-11,9.99999e-01,1.00452e-10,8.36556e-01,9.99999e-01
1.344042489e+00,3.65838e-11,9.99999e-01,4.35776e-11,8.39510e-01,9.99999e-01
1.350762701e+00,7.15563e-12,9.99999e-01,8.49418e-12,8.42416e-01,9.99999e-01
1.357516515e+00,1.56642e-07,9.99999e-01,1.85315e-07,8.45274e-01,9.99999e-01
1.364304097e+00,1.76727e-05,9.99999e-01,2.08383e-05,8.48085e-01,9.99999e-01
1.371125618e+00,3.41459e-03,9.99999e-01,4.01315e-03,8.50850e-01,9.99999e-01
1.377981246e+00,7.72502e-03,9.99999e-01,9.05026e-03,8.53569e-01,9.99999e-01
1.384871152e+00,5.52688e-02,9.99999e-01,6.45480e-02,8.56242e-01,9.99999e-01
1.391795508e+00,6.84047e-02,9.99999e-01,7.96449e-02,8.58871e-01,9.99999e-01
1.398754485e+00,1.77372e-01,9.99999e-01,2.05898e-01,8.61456e-01,9.99999e-01
1.405748258e+00,2.71987e-01,9.99999e-01,3.14801e-01,8.63997e-01,9.99999e-01
1.412776999e+00,4.15994e-01,9.99999e-01,4.80088e-01,8.66496e-01,9.99999e-01
1.419840884e+00,3.78268e-01,9.99999e-01,4.35314e-01,8.68952e-01,9.99999e-01
1.426940089e+00,1.86551e-02,9.99999e-01,2.14090e-02,8.71366e-01,9.99999e-01
1.434074789e+00,0.00000e+00,9.99999e-01,0.00000e+00,8.73739e-01,9.99999e-01
1.441245163e+00,0.00000e+00,9.99999e-01,0.00000e+00,8.76072e-01,9.99999e-01
1.448451389e+00,0.00000e+00,9.99999e-01,0.00000e+00,8.78364e-01,9.99999e-01
1.455693646e+00,0.00000e+00,9.99999e-01,0.00000e+00,8.80617e-01,9.99999e-01
1.462972114e+00,0.00000e+00,9.99999e-01,0.00000e+00,8.82831e-01,9.99999e-01
1.470286975e+00,5.50775e-141,9.99999e-01,6.22339e-141,8.85007e-01,9.99999e-01
