#,Wave/freq,Total,O2,CO2,Rayleigh,CIA
4.000000000e-01,1.42720e-03,9.99999e-01,9.99999e-01,1.42720e-03,9.99999e-01
4.020000000e-01,1.62462e-03,9.99999e-01,9.99999e-01,1.62462e-03,9.99999e-01
4.040100000e-01,1.84436e-03,9.99999e-01,9.99999e-01,1.84436e-03,9.99999e-01
4.060300500e-01,2.08858e-03,9.99999e-01,9.99999e-01,2.08858e-03,9.99999e-01
4.080602003e-01,2.35934e-03,9.99999e-01,9.99999e-01,2.35934e-03,9.99999e-01
4.101005013e-01,2.65880e-03,9.99999e-01,9.99999e-01,2.65880e-03,9.99999e-01
4.121510038e-01,2.98919e-03,9.99999e-01,9.99999e-01,2.98919e-03,9.99999e-01
4.142117588e-01,3.35288e-03,9.99999e-01,9.99999e-01,3.35288e-03,9.99999e-01
4.162828176e-01,3.75230e-03,9.99999e-01,9.99999e-01,3.75230e-03,9.99999e-01
4.183642317e-01,4.18997e-03,9.99999e-01,9.99999e-01,4.18997e-03,9.99999e-01
4.204560528e-01,4.66851e-03,9.99999e-01,9.99999e-01,4.66851e-03,9.99999e-01
4.225583331e-01,5.19060e-03,9.99999e-01,9.99999e-01,5.19060e-03,9.99999e-01
4.246711247e-01,5.75901e-03,9.99999e-01,9.99999e-01,5.75901e-03,9.99999e-01
4.267944804e-01,6.37656e-03,9.99999e-01,9.99999e-01,6.37656e-03,9.99999e-01
4.289284528e-01,7.04614e-03,9.99999e-01,9.99999e-01,7.04614e-03,9.99999e-01
4.310730950e-01,7.77069e-03,9.99999e-01,9.99999e-01,7.77069e-03,9.99999e-01
4.332284605e-01,8.55319e-03,9.99999e-01,9.99999e-01,8.55319e-03,9.99999e-01
4.353946028e-01,9.39666e-03,9.99999e-01,9.99999e-01,9.39666e-03,9.99999e-01
4.375715758e-01,1.03042e-02,9.99999e-01,9.99999e-01,1.03042e-02,9.99999e-01
4.397594337e-01,1.12787e-02,9.99999e-01,9.99999e-01,1.12787e-02,9.99999e-01
4.419582309e-01,1.23235e-02,9.99999e-01,9.99999e-01,1.23235e-02,9.99999e-01
4.441680220e-01,1.34414e-02,9.99999e-01,9.99999e-01,1.34414e-02,9.99999e-01
4.463888621e-01,1.46357e-02,9.99999e-01,9.99999e-01,1.46357e-02,9.99999e-01
4.486208064e-01,1.59093e-02,9.99999e-01,9.99999e-01,1.59093e-02,9.99999e-01
4.508639105e-01,1.72653e-02,9.99999e-01,9.99999e-01,1.72653e-02,9.99999e-01
4.531182300e-01,1.87065e-02,9.99999e-01,9.99999e-01,1.87065e-02,9.99999e-01
4.553838212e-01,2.02360e-02,9.99999e-01,9.99999e-01,2.02360e-02,9.99999e-01
4.576607403e-01,2.18567e-02,9.99999e-01,9.99999e-01,2.18567e-02,9.99999e-01
4.599490440e-01,2.35712e-02,9.99999e-01,9.99999e-01,2.35712e-02,9.99999e-01
4.622487892e-01,2.53823e-02,9.99999e-01,9.99999e-01,2.53823e-02,9.99999e-01
4.645600332e-01,2.72926e-02,9.99999e-01,9.99999e-01,2.72926e-02,9.99999e-01
4.668828333e-01,2.93047e-02,9.99999e-01,9.99999e-01,2.93047e-02,9.99999e-01
4.692172475e-01,3.14209e-02,9.99999e-01,9.99999e-01,3.14209e-02,9.99999e-01
4.715633337e-01,3.36436e-02,9.99999e-01,9.99999e-01,3.36436e-02,9.99999e-01
4.739211504e-01,3.59749e-02,9.99999e-01,9.99999e-01,3.59749e-02,9.99999e-01
4.762907561e-01,3.84169e-02,9.99999e-01,9.99999e-01,3.84169e-02,9.99999e-01
4.786722099e-01,4.09715e-02,9.99999e-01,9.99999e-01,4.09715e-02,9.99999e-01
4.810655710e-01,4.36404e-02,9.99999e-01,9.99999e-01,4.36404e-02,9.99999e-01
4.834708988e-01,4.64252e-02,9.99999e-01,9.99999e-01,4.64252e-02,9.99999e-01
4.858882533e-01,4.93275e-02,9.99999e-01,9.99999e-01,4.93275e-02,9.99999e-01
4.883176946e-01,5.23484e-02,9.99999e-01,9.99999e-01,5.23484e-02,9.99999e-01
4.907592831e-01,5.54892e-02,9.99999e-01,9.99999e-01,5.54892e-02,9.99999e-01
4.932130795e-01,5.87508e-02,9.99999e-01,9.99999e-01,5.87508e-02,9.99999e-01
4.956791449e-01,6.21339e-02,9.99999e-01,9.99999e-01,6.21339e-02,9.99999e-01
4.981575406e-01,6.56392e-02,9.99999e-01,9.99999e-01,6.56392e-02,9.99999e-01
5.006483283e-01,6.92671e-02,9.99999e-01,9.99999e-01,6.92671e-02,9.99999e-01
5.031515699e-01,7.30180e-02,9.99999e-01,9.99999e-01,7.30180e-02,9.99999e-01
5.056673278e-01,7.68917e-02,9.99999e-01,9.99999e-01,7.68917e-02,9.99999e-01
5.081956644e-01,8.08884e-02,9.99999e-01,9.99999e-01,8.08884e-02,9.99999e-01
5.107366428e-01,8.50077e-02,9.99999e-01,9.99999e-01,8.50077e-02,9.99999e-01
5.132903260e-01,8.92492e-02,9.99999e-01,9.99999e-01,8.92492e-02,9.99999e-01
5.158567776e-01,9.36122e-02,9.99999e-01,9.99999e-01,9.36122e-02,9.99999e-01
5.184360615e-01,9.80959e-02,9.99999e-01,9.99999e-01,9.80959e-02,9.99999e-01
5.210282418e-01,1.02700e-01,9.99999e-01,9.99999e-01,1.02700e-01,9.99999e-01
5.236333830e-01,1.07422e-01,9.99999e-01,9.99999e-01,1.07422e-01,9.99999e-01
5.262515499e-01,1.12261e-01,9.99999e-01,9.99999e-01,1.12261e-01,9.99999e-01
5.288828077e-01,1.17217e-01,9.99999e-01,9.99999e-01,1.17217e-01,9.99999e-01
5.315272217e-01,1.22287e-01,9.99999e-01,9.99999e-01,1.22287e-01,9.99999e-01
5.341848578e-01,1.27470e-01,9.99999e-01,9.99999e-01,1.27470e-01,9.99999e-01
5.368557821e-01,1.32763e-01,9.99999e-01,9.99999e-01,1.32763e-01,9.99999e-01
5.395400610e-01,1.38165e-01,9.99999e-01,9.99999e-01,1.38165e-01,9.99999e-01
5.422377613e-01,1.43674e-01,9.99999e-01,9.99999e-01,1.43674e-01,9.99999e-01
5.449489501e-01,1.49287e-01,9.99999e-01,9.99999e-01,1.49287e-01,9.99999e-01
5.476736949e-01,1.55002e-01,9.99999e-01,9.99999e-01,1.55002e-01,9.99999e-01
5.504120634e-01,1.60816e-01,9.99999e-01,9.99999e-01,1.60816e-01,9.99999e-01
5.531641237e-01,1.66727e-01,9.99999e-01,9.99999e-01,1.66727e-01,9.99999e-01
5.559299443e-01,1.72733e-01,9.99999e-01,9.99999e-01,1.72733e-01,9.99999e-01
5.587095940e-01,1.78829e-01,9.99999e-01,9.99999e-01,1.78829e-01,9.99999e-01
5.615031420e-01,1.85014e-01,9.99999e-01,9.99999e-01,1.85014e-01,9.99999e-01
5.643106577e-01,1.91284e-01,9.99999e-01,9.99999e-01,1.91284e-01,9.99999e-01
5.671322110e-01,1.97637e-01,9.99999e-01,9.99999e-01,1.97637e-01,9.99999e-01
5.699678720e-01,2.04068e-01,9.99999e-01,9.99999e-01,2.04068e-01,9.99999e-01
5.728177114e-01,2.10576e-01,9.99999e-01,9.99999e-01,2.10576e-01,9.99999e-01
5.756818000e-01,2.17157e-01,9.99999e-01,9.99999e-01,2.17157e-01,9.99999e-01
5.785602090e-01,2.23807e-01,9.99999e-01,9.99999e-01,2.23807e-01,9.99999e-01
5.814530100e-01,2.30524e-01,9.99999e-01,9.99999e-01,2.30524e-01,9.99999e-01
5.843602750e-01,2.37303e-01,9.99999e-01,9.99999e-01,2.37303e-01,9.99999e-01
5.872820764e-01,2.44142e-01,9.99999e-01,9.99999e-01,2.44142e-01,9.99999e-01
5.902184868e-01,2.51037e-01,9.99999e-01,9.99999e-01,2.51037e-01,9.99999e-01
5.931695792e-01,2.57985e-01,9.99999e-01,9.99999e-01,2.57985e-01,9.99999e-01
5.961354271e-01,2.64983e-01,9.99999e-01,9.99999e-01,2.64983e-01,9.99999e-01
5.991161043e-01,2.72026e-01,9.99999e-01,9.99999e-01,2.72026e-01,9.99999e-01
6.021116848e-01,2.79112e-01,9.99999e-01,9.99999e-01,2.79112e-01,9.99999e-01
6.051222432e-01,2.86237e-01,9.99999e-01,9.99999e-01,2.86237e-01,9.99999e-01
6.081478544e-01,2.93398e-01,9.99999e-01,9.99999e-01,2.93398e-01,9.99999e-01
6.111885937e-01,3.00591e-01,9.99999e-01,9.99999e-01,3.00591e-01,9.99999e-01
6.142445367e-01,3.07813e-01,9.99999e-01,9.99999e-01,3.07813e-01,9.99999e-01
6.173157594e-01,3.15061e-01,9.99999e-01,9.99999e-01,3.15061e-01,9.99999e-01
6.204023382e-01,3.22331e-01,9.99999e-01,9.99999e-01,3.22331e-01,9.99999e-01
6.235043498e-01,3.29621e-01,9.99999e-01,9.99999e-01,3.29621e-01,9.99999e-01
6.266218716e-01,3.36926e-01,9.99999e-01,9.99999e-01,3.36926e-01,9.99999e-01
6.297549810e-01,3.44245e-01,9.99999e-01,9.99999e-01,3.44245e-01,9.99999e-01
6.329037559e-01,3.51573e-01,9.99999e-01,9.99999e-01,3.51573e-01,9.99999e-01
6.360682746e-01,3.58908e-01,9.99999e-01,9.99999e-01,3.58908e-01,9.99999e-01
6.392486160e-01,3.66246e-01,9.99999e-01,9.99999e-01,3.66246e-01,9.99999e-01
6.424448591e-01,3.73585e-01,9.99999e-01,9.99999e-01,3.73585e-01,9.99999e-01
6.456570834e-01,3.80922e-01,9.99999e-01,9.99999e-01,3.80922e-01,9.99999e-01
6.488853688e-01,3.88253e-01,9.99999e-01,9.99999e-01,3.88253e-01,9.99999e-01
6.521297956e-01,3.95577e-01,9.99999e-01,9.99999e-01,3.95577e-01,9.99999e-01
6.553904446e-01,4.02890e-01,9.99999e-01,9.99999e-01,4.02890e-01,9.99999e-01
6.586673968e-01,4.10190e-01,9.99999e-01,9.99999e-01,4.10190e-01,9.99999e-01
6.619607338e-01,4.17474e-01,9.99999e-01,9.99999e-01,4.17474e-01,9.99999e-01
6.652705375e-01,4.24740e-01,9.99999e-01,9.99999e-01,4.24740e-01,9.99999e-01
6.685968902e-01,4.31985e-01,9.99999e-01,9.99999e-01,4.31985e-01,9.99999e-01
6.719398746e-01,4.39207e-01,9.99999e-01,9.99999e-01,4.39207e-01,9.99999e-01
6.752995740e-01,4.46403e-01,9.99999e-01,9.99999e-01,4.46403e-01,9.99999e-01
6.786760719e-01,4.53572e-01,9.99999e-01,9.99999e-01,4.53572e-01,9.99999e-01
6.820694522e-01,4.60711e-01,9.99999e-01,9.99999e-01,4.60711e-01,9.99999e-01
6.854797995e-01,4.67817e-01,9.99999e-01,9.99999e-01,4.67817e-01,9.99999e-01
6.889071985e-01,4.74890e-01,9.99999e-01,9.99999e-01,4.74890e-01,9.99999e-01
6.923517345e-01,4.81927e-01,9.99999e-01,9.99999e-01,4.81927e-01,9.99999e-01
6.958134932e-01,4.88926e-01,9.99999e-01,9.99999e-01,4.88926e-01,9.99999e-01
6.992925606e-01,4.95885e-01,9.99999e-01,9.99999e-01,4.95885e-01,9.99999e-01
7.027890234e-01,5.02804e-01,9.99999e-01,9.99999e-01,5.02804e-01,9.99999e-01
7.063029686e-01,5.09679e-01,9.99999e-01,9.99999e-01,5.09679e-01,9.99999e-01
7.098344834e-01,5.16509e-01,9.99999e-01,9.99999e-01,5.16509e-01,9.99999e-01
7.133836558e-01,5.23294e-01,9.99999e-01,9.99999e-01,5.23294e-01,9.99999e-01
7.169505741e-01,5.30031e-01,9.99999e-01,9.99999e-01,5.30031e-01,9.99999e-01
7.205353270e-01,5.36719e-01,9.99999e-01,9.99999e-01,5.36719e-01,9.99999e-01
7.241380036e-01,5.43356e-01,9.99999e-01,9.99999e-01,5.43356e-01,9.99999e-01
7.277586936e-01,5.49943e-01,9.99999e-01,9.99999e-01,5.49943e-01,9.99999e-01
7.313974871e-01,5.56477e-01,9.99999e-01,9.99999e-01,5.56477e-01,9.99999e-01
7.350544745e-01,5.62957e-01,9.99999e-01,9.99999e-01,5.62957e-01,9.99999e-01
7.387297469e-01,5.69382e-01,9.99999e-01,9.99999e-01,5.69382e-01,9.99999e-01
7.424233956e-01,5.75751e-01,9.99999e-01,9.99999e-01,5.75751e-01,9.99999e-01
7.461355126e-01,5.82064e-01,9.99999e-01,9.99999e-01,5.82064e-01,9.99999e-01
7.498661902e-01,5.88320e-01,9.99999e-01,9.99999e-01,5.88320e-01,9.99999e-01
7.536155211e-01,5.94517e-01,9.99999e-01,9.99999e-01,5.94517e-01,9.99999e-01
7.573835987e-01,6.00655e-01,9.99999e-01,9.99999e-01,6.00655e-01,9.99999e-01
7.611705167e-01,6.06733e-01,9.99999e-01,9.99999e-01,6.06733e-01,9.99999e-01
7.649763693e-01,6.12751e-01,9.99999e-01,9.99999e-01,6.12751e-01,9.99999e-01
7.688012511e-01,6.18708e-01,9.99999e-01,9.99999e-01,6.18708e-01,9.99999e-01
7.726452574e-01,6.24603e-01,9.99999e-01,9.99999e-01,6.24603e-01,9.99999e-01
7.765084837e-01,6.30437e-01,9.99999e-01,9.99999e-01,6.30437e-01,9.99999e-01
7.803910261e-01,6.22627e-01,9.99999e-01,9.78652e-01,6.36208e-01,9.99999e-01
7.842929812e-01,5.82469e-01,9.99999e-01,9.07390e-01,6.41917e-01,9.99999e-01
7.882144461e-01,5.83775e-01,9.99999e-01,9.01496e-01,6.47562e-01,9.99999e-01
7.921555184e-01,6.15249e-01,9.99999e-01,9.41980e-01,6.53144e-01,9.99999e-01
7.961162960e-01,6.32705e-01,9.99999e-01,9.60590e-01,6.58663e-01,9.99999e-01
8.000968774e-01,6.49829e-01,9.99999e-01,9.78485e-01,6.64117e-01,9.99999e-01
8.040973618e-01,6.61983e-01,9.99999e-01,9.88759e-01,6.69508e-01,9.99999e-01
8.081178486e-01,6.71358e-01,9.99999e-01,9.94846e-01,6.74835e-01,9.99999e-01
8.121584379e-01,6.79006e-01,9.99999e-01,9.98393e-01,6.80098e-01,9.99999e-01
8.162192301e-01,6.85053e-01,9.99999e-01,9.99644e-01,6.85297e-01,9.99999e-01
8.203003262e-01,6.90427e-01,9.99999e-01,9.99993e-01,6.90431e-01,9.99999e-01
8.244018279e-01,6.95502e-01,9.99999e-01,9.99999e-01,6.95502e-01,9.99999e-01
8.285238370e-01,7.00508e-01,9.99999e-01,9.99999e-01,7.00508e-01,9.99999e-01
8.326664562e-01,7.05451e-01,9.99999e-01,9.99999e-01,7.05451e-01,9.99999e-01
8.368297885e-01,7.10329e-01,9.99999e-01,9.99999e-01,7.10329e-01,9.99999e-01
8.410139374e-01,7.15144e-01,9.99999e-01,9.99999e-01,7.15144e-01,9.99999e-01
8.452190071e-01,7.19896e-01,9.99999e-01,9.99999e-01,7.19896e-01,9.99999e-01
8.494451021e-01,7.24585e-01,9.99999e-01,9.99999e-01,7.24585e-01,9.99999e-01
8.536923276e-01,7.29210e-01,9.99999e-01,9.99999e-01,7.29210e-01,9.99999e-01
8.579607893e-01,7.33773e-01,9.99999e-01,9.99999e-01,7.33773e-01,9.99999e-01
8.622505932e-01,7.38273e-01,9.99999e-01,9.99999e-01,7.38273e-01,9.99999e-01
8.665618462e-01,7.02825e-01,9.99999e-01,9.46295e-01,7.42712e-01,9.99999e-01
8.708946554e-01,5.82818e-01,9.99999e-01,7.80119e-01,7.47088e-01,9.99999e-01
8.752491287e-01,6.15837e-01,9.99999e-01,8.19581e-01,7.51403e-01,9.99999e-01
8.796253743e-01,6.77899e-01,9.99999e-01,8.97097e-01,7.55657e-01,9.99999e-01
8.840235012e-01,7.18419e-01,9.99999e-01,9.45474e-01,7.59851e-01,9.99999e-01
8.884436187e-01,7.47247e-01,9.99999e-01,9.78092e-01,7.63984e-01,9.99999e-01
8.928858368e-01,7.61219e-01,9.99999e-01,9.91096e-01,7.68057e-01,9.99999e-01
8.973502660e-01,7.70387e-01,9.99999e-01,9.97818e-01,7.72071e-01,9.99999e-01
9.018370173e-01,7.75839e-01,9.99999e-01,9.99758e-01,7.76026e-01,9.99999e-01
9.063462024e-01,7.75239e-01,9.99999e-01,9.93994e-01,7.79923e-01,9.99999e-01
9.108779334e-01,7.72793e-01,9.99999e-01,9.86004e-01,7.83761e-01,9.99999e-01
9.154323231e-01,7.84920e-01,9.99999e-01,9.96669e-01,7.87542e-01,9.99999e-01
9.200094847e-01,7.53752e-01,9.99999e-01,9.52588e-01,7.91266e-01,9.99999e-01
9.246095321e-01,7.41928e-01,9.99999e-01,9.33319e-01,7.94934e-01,9.99999e-01
9.292325798e-01,7.56758e-01,9.99999e-01,9.47670e-01,7.98546e-01,9.99999e-01
9.338787427e-01,7.61216e-01,9.99999e-01,9.49025e-01,8.02102e-01,9.99999e-01
9.385481364e-01,7.75280e-01,9.99999e-01,9.62359e-01,8.05603e-01,9.99999e-01
9.432408771e-01,7.90232e-01,9.99999e-01,9.76740e-01,8.09050e-01,9.99999e-01
9.479570815e-01,8.02723e-01,9.99999e-01,9.88034e-01,8.12444e-01,9.99999e-01
9.526968669e-01,8.11055e-01,9.99999e-01,9.94202e-01,8.15784e-01,9.99999e-01
9.574603512e-01,8.17037e-01,9.99999e-01,9.97516e-01,8.19071e-01,9.99999e-01
9.622476530e-01,8.21669e-01,9.99999e-01,9.99223e-01,8.22307e-01,9.99999e-01
9.670588912e-01,8.25298e-01,9.99999e-01,9.99766e-01,8.25490e-01,9.99999e-01
9.718941857e-01,8.28610e-01,9.99999e-01,9.99982e-01,8.28623e-01,9.99999e-01
9.767536566e-01,8.31706e-01,9.99999e-01,9.99999e-01,8.31706e-01,9.99999e-01
9.816374249e-01,8.34739e-01,9.99999e-01,9.99999e-01,8.34739e-01,9.99999e-01
9.865456120e-01,8.37723e-01,9.99999e-01,9.99999e-01,8.37723e-01,9.99999e-01
9.914783401e-01,8.40658e-01,9.99999e-01,9.99999e-01,8.40658e-01,9.99999e-01
9.964357318e-01,8.43545e-01,9.99999e-01,9.99999e-01,8.43545e-01,9.99999e-01
1.001417910e+00,8.46384e-01,9.99999e-01,9.99999e-01,8.46384e-01,9.99999e-01
1.006425000e+00,8.49177e-01,9.99999e-01,9.99999e-01,8.49177e-01,9.99999e-01
1.011457125e+00,8.51924e-01,9.99999e-01,9.99999e-01,8.51924e-01,9.99999e-01
1.016514411e+00,8.54625e-01,9.99999e-01,9.99999e-01,8.54625e-01,9.99999e-01
1.021596983e+00,8.57256e-01,9.99999e-01,9.99970e-01,8.57281e-01,9.99999e-01
1.026704968e+00,8.57888e-01,9.99999e-01,9.97668e-01,8.59892e-01,9.99999e-01
1.031838492e+00,8.36679e-01,9.99999e-01,9.70107e-01,8.62460e-01,9.99999e-01
1.036997685e+00,2.00199e-01,9.99999e-01,2.31448e-01,8.64984e-01,9.99999e-01
1.042182673e+00,2.16034e-01,9.99999e-01,2.49040e-01,8.67466e-01,9.99999e-01
1.047393587e+00,2.17435e-01,9.99999e-01,2.49952e-01,8.69906e-01,9.99999e-01
1.052630555e+00,1.94285e-02,9.99999e-01,2.22726e-02,8.72304e-01,9.99999e-01
1.057893707e+00,4.00159e-02,9.99999e-01,4.57502e-02,8.74661e-01,9.99999e-01
1.063183176e+00,9.27382e-02,9.99999e-01,1.05747e-01,8.76978e-01,9.99999e-01
1.068499092e+00,1.92932e-01,9.99999e-01,2.19427e-01,8.79255e-01,9.99999e-01
1.073841587e+00,3.37634e-01,9.99999e-01,3.83025e-01,8.81492e-01,9.99999e-01
1.079210795e+00,4.82105e-01,9.99999e-01,5.45558e-01,8.83691e-01,9.99999e-01
1.084606849e+00,6.35572e-01,9.99999e-01,7.17469e-01,8.85852e-01,9.99999e-01
1.090029883e+00,7.47775e-01,9.99999e-01,8.42111e-01,8.87975e-01,9.99999e-01
1.095480033e+00,8.17761e-01,9.99999e-01,9.18768e-01,8.90062e-01,9.99999e-01
1.100957433e+00,8.56478e-01,9.99999e-01,9.60056e-01,8.92112e-01,9.99999e-01
1.106462220e+00,8.79170e-01,9.99999e-01,9.83272e-01,8.94126e-01,9.99999e-01
1.111994531e+00,8.90522e-01,9.99999e-01,9.93769e-01,8.96104e-01,9.99999e-01
1.117554504e+00,8.96674e-01,9.99999e-01,9.98468e-01,8.98048e-01,9.99999e-01
1.123142276e+00,8.99867e-01,9.99999e-01,9.99898e-01,8.99958e-01,9.99999e-01
1.128757988e+00,9.01833e-01,9.99999e-01,9.99999e-01,9.01833e-01,9.99999e-01
1.134401778e+00,9.03676e-01,9.99999e-01,9.99999e-01,9.03676e-01,9.99999e-01
1.140073787e+00,9.05485e-01,9.99999e-01,9.99999e-01,9.05485e-01,9.99999e-01
1.145774156e+00,9.07263e-01,9.99999e-01,9.99999e-01,9.07263e-01,9.99999e-01
1.151503026e+00,9.09009e-01,9.99999e-01,9.99999e-01,9.09009e-01,9.99999e-01
1.157260541e+00,9.10723e-01,9.99999e-01,9.99999e-01,9.10723e-01,9.99999e-01
1.163046844e+00,9.12407e-01,9.99999e-01,9.99999e-01,9.12407e-01,9.99999e-01
1.168862078e+00,9.14061e-01,9.99999e-01,9.99999e-01,9.14061e-01,9.99999e-01
1.174706389e+00,9.15684e-01,9.99999e-01,9.99999e-01,9.15684e-01,9.99999e-01
1.180579921e+00,9.17279e-01,9.99999e-01,9.99999e-01,9.17279e-01,9.99999e-01
1.186482820e+00,9.18842e-01,9.99999e-01,9.99996e-01,9.18845e-01,9.99999e-01
1.192415234e+00,9.12740e-01,9.99999e-01,9.91696e-01,9.20382e-01,9.99999e-01
1.198377311e+00,5.30960e-01,9.99999e-01,5.75946e-01,9.21892e-01,9.99999e-01
1.204369197e+00,6.25880e-08,9.99999e-01,6.77818e-08,9.23374e-01,9.99999e-01
1.210391043e+00,1.17910e-26,9.99999e-01,1.27494e-26,9.24829e-01,9.99999e-01
1.216442998e+00,2.63244e-23,9.99999e-01,2.84202e-23,9.26258e-01,9.99999e-01
1.222525213e+00,5.61147e-23,9.99999e-01,6.04906e-23,9.27660e-01,9.99999e-01
1.228637839e+00,9.65880e-18,9.99999e-01,1.03966e-17,9.29037e-01,9.99999e-01
1.234781029e+00,5.89627e-12,9.99999e-01,6.33742e-12,9.30389e-01,9.99999e-01
1.240954934e+00,3.89013e-08,9.99999e-01,4.17523e-08,9.31716e-01,9.99999e-01
1.247159708e+00,7.76727e-05,9.99999e-01,8.32488e-05,9.33018e-01,9.99999e-01
1.253395507e+00,4.61213e-03,9.99999e-01,4.93647e-03,9.34297e-01,9.99999e-01
1.259662485e+00,3.54750e-02,9.99999e-01,3.79188e-02,9.35552e-01,9.99999e-01
1.265960797e+00,1.60848e-01,9.99999e-01,1.71702e-01,9.36784e-01,9.99999e-01
1.272290601e+00,4.27308e-01,9.99999e-01,4.55555e-01,9.37993e-01,9.99999e-01
1.278652054e+00,3.99037e-01,9.99999e-01,4.24878e-01,9.39179e-01,9.99999e-01
1.285045314e+00,2.26273e-02,9.99999e-01,2.40627e-02,9.40344e-01,9.99999e-01
1.291470541e+00,7.88089e-04,9.99999e-01,8.37067e-04,9.41487e-01,9.99999e-01
1.297927893e+00,2.06017e-02,9.99999e-01,2.18560e-02,9.42609e-01,9.99999e-01
1.304417533e+00,2.51796e-01,9.99999e-01,2.66815e-01,9.43710e-01,9.99999e-01
1.310939621e+00,6.89218e-02,9.99999e-01,7.29491e-02,9.44791e-01,9.99999e-01
1.317494319e+00,1.25482e-09,9.99999e-01,1.32666e-09,9.45851e-01,9.99999e-01
1.324081790e+00,6.00359e-07,9.99999e-01,6.34030e-07,9.46892e-01,9.99999e-01
1.330702199e+00,4.21287e-04,9.99999e-01,4.44436e-04,9.47913e-01,9.99999e-01
1.337355710e+00,3.43864e-04,9.99999e-01,3.62375e-04,9.48915e-01,9.99999e-01
1.344042489e+00,1.08861e-04,9.99999e-01,1.14602e-04,9.49899e-01,9.99999e-01
1.350762701e+00,2.96373e-04,9.99999e-01,3.11688e-04,9.50863e-01,9.99999e-01
1.357516515e+00,4.82830e-03,9.99999e-01,5.07275e-03,9.51810e-01,9.99999e-01
1.364304097e+00,3.40934e-02,9.99999e-01,3.57845e-02,9.52739e-01,9.99999e-01
1.371125618e+00,1.64622e-01,9.99999e-01,1.72622e-01,9.53651e-01,9.99999e-01
1.377981246e+00,2.32893e-01,9.99999e-01,2.43983e-01,9.54545e-01,9.99999e-01
1.384871152e+00,4.20033e-01,9.99999e-01,4.39630e-01,9.55423e-01,9.99999e-01
1.391795508e+00,4.47572e-01,9.99999e-01,4.68032e-01,9.56284e-01,9.99999e-01
1.398754485e+00,5.99973e-01,9.99999e-01,6.26847e-01,9.57128e-01,9.99999e-01
1.405748258e+00,6.78549e-01,9.99999e-01,7.08328e-01,9.57957e-01,9.99999e-01
1.412776999e+00,7.71266e-01,9.99999e-01,8.04432e-01,9.58770e-01,9.99999e-01
1.419840884e+00,7.10106e-01,9.99999e-01,7.40026e-01,9.59568e-01,9.99999e-01
1.426940089e+00,8.58582e-02,9.99999e-01,8.94029e-02,9.60350e-01,9.99999e-01
1.434074789e+00,0.00000e+00,9.99999e-01,0.00000e+00,9.61118e-01,9.99999e-01
1.441245163e+00,0.00000e+00,9.99999e-01,0.00000e+00,9.61871e-01,9.99999e-01
1.448451389e+00,0.00000e+00,9.99999e-01,0.00000e+00,9.62610e-01,9.99999e-01
1.455693646e+00,3.23902e-208,9.99999e-01,3.36230e-208,9.63335e-01,9.99999e-01
1.462972114e+00,2.59425e-101,9.99999e-01,2.69099e-101,9.64046e-01,9.99999e-01
1.470286975e+00,5.18707e-43,9.99999e-01,5.37662e-43,9.64743e-01,9.99999e-01
