#,Wave/freq,Total,O2,CO2,Rayleigh,CIA
4.000000000e-01,8.15908e-03,9.99999e-01,9.99999e-01,8.15908e-03,9.99999e-01
4.020000000e-01,8.97291e-03,9.99999e-01,9.99999e-01,8.97291e-03,9.99999e-01
4.040100000e-01,9.84846e-03,9.99999e-01,9.99999e-01,9.84846e-03,9.99999e-01
4.060300500e-01,1.07896e-02,9.99999e-01,9.99999e-01,1.07896e-02,9.99999e-01
4.080602003e-01,1.17993e-02,9.99999e-01,9.99999e-01,1.17993e-02,9.99999e-01
4.101005013e-01,1.28808e-02,9.99999e-01,9.99999e-01,1.28808e-02,9.99999e-01
4.121510038e-01,1.40371e-02,9.99999e-01,9.99999e-01,1.40371e-02,9.99999e-01
4.142117588e-01,1.52712e-02,9.99999e-01,9.99999e-01,1.52712e-02,9.99999e-01
4.162828176e-01,1.65861e-02,9.99999e-01,9.99999e-01,1.65861e-02,9.99999e-01
4.183642317e-01,1.79850e-02,9.99999e-01,9.99999e-01,1.79850e-02,9.99999e-01
4.204560528e-01,1.94706e-02,9.99999e-01,9.99999e-01,1.94706e-02,9.99999e-01
4.225583331e-01,2.10459e-02,9.99999e-01,9.99999e-01,2.10459e-02,9.99999e-01
4.246711247e-01,2.27138e-02,9.99999e-01,9.99999e-01,2.27138e-02,9.99999e-01
4.267944804e-01,2.44769e-02,9.99999e-01,9.99999e-01,2.44769e-02,9.99999e-01
4.289284528e-01,2.63380e-02,9.99999e-01,9.99999e-01,2.63380e-02,9.99999e-01
4.310730950e-01,2.82996e-02,9.99999e-01,9.99999e-01,2.82996e-02,9.99999e-01
4.332284605e-01,3.03642e-02,9.99999e-01,9.99999e-01,3.03642e-02,9.99999e-01
4.353946028e-01,3.25341e-02,9.99999e-01,9.99999e-01,3.25341e-02,9.99999e-01
4.375715758e-01,3.48116e-02,9.99999e-01,9.99999e-01,3.48116e-02,9.99999e-01
4.397594337e-01,3.71988e-02,9.99999e-01,9.99999e-01,3.71988e-02,9.99999e-01
4.419582309e-01,3.96976e-02,9.99999e-01,9.99999e-01,3.96976e-02,9.99999e-01
4.441680220e-01,4.23099e-02,9.99999e-01,9.99999e-01,4.23099e-02,9.99999e-01
4.463888621e-01,4.50374e-02,9.99999e-01,9.99999e-01,4.50374e-02,9.99999e-01
4.486208064e-01,4.78816e-02,9.99999e-01,9.99999e-01,4.78816e-02,9.99999e-01
4.508639105e-01,5.08438e-02,9.99999e-01,9.99999e-01,5.08438e-02,9.99999e-01
4.531182300e-01,5.39254e-02,9.99999e-01,9.99999e-01,5.39254e-02,9.99999e-01
4.553838212e-01,5.71273e-02,9.99999e-01,9.99999e-01,5.71273e-02,9.99999e-01
4.576607403e-01,6.04504e-02,9.99999e-01,9.99999e-01,6.04504e-02,9.99999e-01
4.599490440e-01,6.38953e-02,9.99999e-01,9.99999e-01,6.38953e-02,9.99999e-01
4.622487892e-01,6.74628e-02,9.99999e-01,9.99999e-01,6.74628e-02,9.99999e-01
4.645600332e-01,7.11530e-02,9.99999e-01,9.99999e-01,7.11530e-02,9.99999e-01
4.668828333e-01,7.49661e-02,9.99999e-01,9.99999e-01,7.49661e-02,9.99999e-01
4.692172475e-01,7.89022e-02,9.99999e-01,9.99999e-01,7.89022e-02,9.99999e-01
4.715633337e-01,8.29611e-02,9.99999e-01,9.99999e-01,8.29611e-02,9.99999e-01
4.739211504e-01,8.71424e-02,9.99999e-01,9.99999e-01,8.71424e-02,9.99999e-01
4.762907561e-01,9.14455e-02,9.99999e-01,9.99999e-01,9.14455e-02,9.99999e-01
4.786722099e-01,9.58699e-02,9.99999e-01,9.99999e-01,9.58699e-02,9.99999e-01
4.810655710e-01,1.00414e-01,9.99999e-01,9.99999e-01,1.00414e-01,9.99999e-01
4.834708988e-01,1.05078e-01,9.99999e-01,9.99999e-01,1.05078e-01,9.99999e-01
4.858882533e-01,1.09860e-01,9.99999e-01,9.99999e-01,1.09860e-01,9.99999e-01
4.883176946e-01,1.14759e-01,9.99999e-01,9.99999e-01,1.14759e-01,9.99999e-01
4.907592831e-01,1.19773e-01,9.99999e-01,9.99999e-01,1.19773e-01,9.99999e-01
4.932130795e-01,1.24900e-01,9.99999e-01,9.99999e-01,1.24900e-01,9.99999e-01
4.956791449e-01,1.30139e-01,9.99999e-01,9.99999e-01,1.30139e-01,9.99999e-01
4.981575406e-01,1.35488e-01,9.99999e-01,9.99999e-01,1.35488e-01,9.99999e-01
5.006483283e-01,1.40944e-01,9.99999e-01,9.99999e-01,1.40944e-01,9.99999e-01
5.031515699e-01,1.46506e-01,9.99999e-01,9.99999e-01,1.46506e-01,9.99999e-01
5.056673278e-01,1.52171e-01,9.99999e-01,9.99999e-01,1.52171e-01,9.99999e-01
5.081956644e-01,1.57937e-01,9.99999e-01,9.99999e-01,1.57937e-01,9.99999e-01
5.107366428e-01,1.63801e-01,9.99999e-01,9.99999e-01,1.63801e-01,9.99999e-01
5.132903260e-01,1.69760e-01,9.99999e-01,9.99999e-01,1.69760e-01,9.99999e-01
5.158567776e-01,1.75812e-01,9.99999e-01,9.99999e-01,1.75812e-01,9.99999e-01
5.184360615e-01,1.81953e-01,9.99999e-01,9.99999e-01,1.81953e-01,9.99999e-01
5.210282418e-01,1.88182e-01,9.99999e-01,9.99999e-01,1.88182e-01,9.99999e-01
5.236333830e-01,1.94494e-01,9.99999e-01,9.99999e-01,1.94494e-01,9.99999e-01
5.262515499e-01,2.00887e-01,9.99999e-01,9.99999e-01,2.00887e-01,9.99999e-01
5.288828077e-01,2.07358e-01,9.99999e-01,9.99999e-01,2.07358e-01,9.99999e-01
5.315272217e-01,2.13903e-01,9.99999e-01,9.99999e-01,2.13903e-01,9.99999e-01
5.341848578e-01,2.20519e-01,9.99999e-01,9.99999e-01,2.20519e-01,9.99999e-01
5.368557821e-01,2.27204e-01,9.99999e-01,9.99999e-01,2.27204e-01,9.99999e-01
5.395400610e-01,2.33952e-01,9.99999e-01,9.99999e-01,2.33952e-01,9.99999e-01
5.422377613e-01,2.40762e-01,9.99999e-01,9.99999e-01,2.40762e-01,9.99999e-01
5.449489501e-01,2.47630e-01,9.99999e-01,9.99999e-01,2.47630e-01,9.99999e-01
5.476736949e-01,2.54553e-01,9.99999e-01,9.99999e-01,2.54553e-01,9.99999e-01
5.504120634e-01,2.61526e-01,9.99999e-01,9.99999e-01,2.61526e-01,9.99999e-01
5.531641237e-01,2.68547e-01,9.99999e-01,9.99999e-01,2.68547e-01,9.99999e-01
5.559299443e-01,2.75613e-01,9.99999e-01,9.99999e-01,2.75613e-01,9.99999e-01
5.587095940e-01,2.82719e-01,9.99999e-01,9.99999e-01,2.82719e-01,9.99999e-01
5.615031420e-01,2.89862e-01,9.99999e-01,9.99999e-01,2.89862e-01,9.99999e-01
5.643106577e-01,2.97040e-01,9.99999e-01,9.99999e-01,2.97040e-01,9.99999e-01
5.671322110e-01,3.04248e-01,9.99999e-01,9.99999e-01,3.04248e-01,9.99999e-01
5.699678720e-01,3.11484e-01,9.99999e-01,9.99999e-01,3.11484e-01,9.99999e-01
5.728177114e-01,3.18743e-01,9.99999e-01,9.99999e-01,3.18743e-01,9.99999e-01
5.756818000e-01,3.26024e-01,9.99999e-01,9.99999e-01,3.26024e-01,9.99999e-01
5.785602090e-01,3.33322e-01,9.99999e-01,9.99999e-01,3.33322e-01,9.99999e-01
5.814530100e-01,3.40634e-01,9.99999e-01,9.99999e-01,3.40634e-01,9.99999e-01
5.843602750e-01,3.47958e-01,9.99999e-01,9.99999e-01,3.47958e-01,9.99999e-01
5.872820764e-01,3.55290e-01,9.99999e-01,9.99999e-01,3.55290e-01,9.99999e-01
5.902184868e-01,3.62627e-01,9.99999e-01,9.99999e-01,3.62627e-01,9.99999e-01
5.931695792e-01,3.69966e-01,9.99999e-01,9.99999e-01,3.69966e-01,9.99999e-01
5.961354271e-01,3.77304e-01,9.99999e-01,9.99999e-01,3.77304e-01,9.99999e-01
5.991161043e-01,3.84639e-01,9.99999e-01,9.99999e-01,3.84639e-01,9.99999e-01
6.021116848e-01,3.91967e-01,9.99999e-01,9.99999e-01,3.91967e-01,9.99999e-01
6.051222432e-01,3.99286e-01,9.99999e-01,9.99999e-01,3.99286e-01,9.99999e-01
6.081478544e-01,4.06592e-01,9.99999e-01,9.99999e-01,4.06592e-01,9.99999e-01
6.111885937e-01,4.13885e-01,9.99999e-01,9.99999e-01,4.13885e-01,9.99999e-01
6.142445367e-01,4.21160e-01,9.99999e-01,9.99999e-01,4.21160e-01,9.99999e-01
6.173157594e-01,4.28415e-01,9.99999e-01,9.99999e-01,4.28415e-01,9.99999e-01
6.204023382e-01,4.35649e-01,9.99999e-01,9.99999e-01,4.35649e-01,9.99999e-01
6.235043498e-01,4.42858e-01,9.99999e-01,9.99999e-01,4.42858e-01,9.99999e-01
6.266218716e-01,4.50041e-01,9.99999e-01,9.99999e-01,4.50041e-01,9.99999e-01
6.297549810e-01,4.57194e-01,9.99999e-01,9.99999e-01,4.57194e-01,9.99999e-01
6.329037559e-01,4.64317e-01,9.99999e-01,9.99999e-01,4.64317e-01,9.99999e-01
6.360682746e-01,4.71407e-01,9.99999e-01,9.99999e-01,4.71407e-01,9.99999e-01
6.392486160e-01,4.78462e-01,9.99999e-01,9.99999e-01,4.78462e-01,9.99999e-01
6.424448591e-01,4.85479e-01,9.99999e-01,9.99999e-01,4.85479e-01,9.99999e-01
6.456570834e-01,4.92459e-01,9.99999e-01,9.99999e-01,4.92459e-01,9.99999e-01
6.488853688e-01,4.99397e-01,9.99999e-01,9.99999e-01,4.99397e-01,9.99999e-01
6.521297956e-01,5.06294e-01,9.99999e-01,9.99999e-01,5.06294e-01,9.99999e-01
6.553904446e-01,5.13147e-01,9.99999e-01,9.99999e-01,5.13147e-01,9.99999e-01
6.586673968e-01,5.19954e-01,9.99999e-01,9.99999e-01,5.19954e-01,9.99999e-01
6.619607338e-01,5.26714e-01,9.99999e-01,9.99999e-01,5.26714e-01,9.99999e-01
6.652705375e-01,5.33427e-01,9.99999e-01,9.99999e-01,5.33427e-01,9.99999e-01
6.685968902e-01,5.40090e-01,9.99999e-01,9.99999e-01,5.40090e-01,9.99999e-01
6.719398746e-01,5.46701e-01,9.99999e-01,9.99999e-01,5.46701e-01,9.99999e-01
6.752995740e-01,5.53261e-01,9.99999e-01,9.99999e-01,5.53261e-01,9.99999e-01
6.786760719e-01,5.59768e-01,9.99999e-01,9.99999e-01,5.59768e-01,9.99999e-01
6.820694522e-01,5.66220e-01,9.99999e-01,9.99999e-01,5.66220e-01,9.99999e-01
6.854797995e-01,5.72618e-01,9.99999e-01,9.99999e-01,5.72618e-01,9.99999e-01
6.889071985e-01,5.78958e-01,9.99999e-01,9.99999e-01,5.78958e-01,9.99999e-01
6.923517345e-01,5.85242e-01,9.99999e-01,9.99999e-01,5.85242e-01,9.99999e-01
6.958134932e-01,5.91468e-01,9.99999e-01,9.99999e-01,5.91468e-01,9.99999e-01
6.992925606e-01,5.97635e-01,9.99999e-01,9.99999e-01,5.97635e-01,9.99999e-01
7.027890234e-01,6.03743e-01,9.99999e-01,9.99999e-01,6.03743e-01,9.99999e-01
7.063029686e-01,6.09791e-01,9.99999e-01,9.99999e-01,6.09791e-01,9.99999e-01
7.098344834e-01,6.15778e-01,9.99999e-01,9.99999e-01,6.15778e-01,9.99999e-01
7.133836558e-01,6.21704e-01,9.99999e-01,9.99999e-01,6.21704e-01,9.99999e-01
7.169505741e-01,6.27568e-01,9.99999e-01,9.99999e-01,6.27568e-01,9.99999e-01
7.205353270e-01,6.33370e-01,9.99999e-01,9.99999e-01,6.33370e-01,9.99999e-01
7.241380036e-01,6.39109e-01,9.99999e-01,9.99999e-01,6.39109e-01,9.99999e-01
7.277586936e-01,6.44786e-01,9.99999e-01,9.99999e-01,6.44786e-01,9.99999e-01
7.313974871e-01,6.50399e-01,9.99999e-01,9.99999e-01,6.50399e-01,9.99999e-01
7.350544745e-01,6.55949e-01,9.99999e-01,9.99999e-01,6.55949e-01,9.99999e-01
7.387297469e-01,6.61435e-01,9.99999e-01,9.99999e-01,6.61435e-01,9.99999e-01
7.424233956e-01,6.66858e-01,9.99999e-01,9.99999e-01,6.66858e-01,9.99999e-01
7.461355126e-01,6.72216e-01,9.99999e-01,9.99999e-01,6.72216e-01,9.99999e-01
7.498661902e-01,6.77511e-01,9.99999e-01,9.99999e-01,6.77511e-01,9.99999e-01
7.536155211e-01,6.82741e-01,9.99999e-01,9.99999e-01,6.82741e-01,9.99999e-01
7.573835987e-01,6.87907e-01,9.99999e-01,9.99999e-01,6.87907e-01,9.99999e-01
7.611705167e-01,6.93009e-01,9.99999e-01,9.99999e-01,6.93009e-01,9.99999e-01
7.649763693e-01,6.98047e-01,9.99999e-01,9.99999e-01,6.98047e-01,9.99999e-01
7.688012511e-01,7.03021e-01,9.99999e-01,9.99999e-01,7.03021e-01,9.99999e-01
7.726452574e-01,7.07931e-01,9.99999e-01,9.99999e-01,7.07931e-01,9.99999e-01
7.765084837e-01,7.12778e-01,9.99999e-01,9.99999e-01,7.12778e-01,9.99999e-01
7.803910261e-01,7.05338e-01,9.99999e-01,9.82965e-01,7.17561e-01,9.99999e-01
7.842929812e-01,6.72698e-01,9.99999e-01,9.31352e-01,7.22280e-01,9.99999e-01
7.882144461e-01,6.73212e-01,9.99999e-01,9.26094e-01,7.26937e-01,9.99999e-01
7.921555184e-01,6.99995e-01,9.99999e-01,9.56890e-01,7.31531e-01,9.99999e-01
7.961162960e-01,7.14838e-01,9.99999e-01,9.71165e-01,7.36062e-01,9.99999e-01
8.000968774e-01,7.28871e-01,9.99999e-01,9.84253e-01,7.40531e-01,9.99999e-01
8.040973618e-01,7.38859e-01,9.99999e-01,9.91839e-01,7.44938e-01,9.99999e-01
8.081178486e-01,7.46464e-01,9.99999e-01,9.96237e-01,7.49283e-01,9.99999e-01
8.121584379e-01,7.52696e-01,9.99999e-01,9.98843e-01,7.53567e-01,9.99999e-01
8.162192301e-01,7.57597e-01,9.99999e-01,9.99744e-01,7.57790e-01,9.99999e-01
8.203003262e-01,7.61950e-01,9.99999e-01,9.99995e-01,7.61953e-01,9.99999e-01
8.244018279e-01,7.66056e-01,9.99999e-01,9.99999e-01,7.66056e-01,9.99999e-01
8.285238370e-01,7.70099e-01,9.99999e-01,9.99999e-01,7.70099e-01,9.99999e-01
8.326664562e-01,7.74083e-01,9.99999e-01,9.99999e-01,7.74083e-01,9.99999e-01
8.368297885e-01,7.78008e-01,9.99999e-01,9.99999e-01,7.78008e-01,9.99999e-01
8.410139374e-01,7.81875e-01,9.99999e-01,9.99999e-01,7.81875e-01,9.99999e-01
8.452190071e-01,7.85685e-01,9.99999e-01,9.99999e-01,7.85685e-01,9.99999e-01
8.494451021e-01,7.89437e-01,9.99999e-01,9.99999e-01,7.89437e-01,9.99999e-01
8.536923276e-01,7.93132e-01,9.99999e-01,9.99999e-01,7.93132e-01,9.99999e-01
8.579607893e-01,7.96772e-01,9.99999e-01,9.99999e-01,7.96772e-01,9.99999e-01
8.622505932e-01,8.00355e-01,9.99999e-01,9.99999e-01,8.00355e-01,9.99999e-01
8.665618462e-01,7.67465e-01,9.99999e-01,9.54696e-01,8.03884e-01,9.99999e-01
8.708946554e-01,6.71577e-01,9.99999e-01,8.31821e-01,8.07357e-01,9.99999e-01
8.752491287e-01,7.00644e-01,9.99999e-01,8.64162e-01,8.10777e-01,9.99999e-01
8.796253743e-01,7.52113e-01,9.99999e-01,9.23808e-01,8.14143e-01,9.99999e-01
8.840235012e-01,7.84715e-01,9.99999e-01,9.59946e-01,8.17457e-01,9.99999e-01
8.884436187e-01,8.07659e-01,9.99999e-01,9.84088e-01,8.20718e-01,9.99999e-01
8.928858368e-01,8.18591e-01,9.99999e-01,9.93523e-01,8.23927e-01,9.99999e-01
8.973502660e-01,8.25786e-01,9.99999e-01,9.98429e-01,8.27085e-01,9.99999e-01
9.018370173e-01,8.30049e-01,9.99999e-01,9.99826e-01,8.30192e-01,9.99999e-01
9.063462024e-01,8.29459e-01,9.99999e-01,9.95450e-01,8.33249e-01,9.99999e-01
9.108779334e-01,8.27710e-01,9.99999e-01,9.89778e-01,8.36257e-01,9.99999e-01
9.154323231e-01,8.37210e-01,9.99999e-01,9.97608e-01,8.39216e-01,9.99999e-01
9.200094847e-01,8.11742e-01,9.99999e-01,9.63918e-01,8.42127e-01,9.99999e-01
9.246095321e-01,8.03448e-01,9.99999e-01,9.50836e-01,8.44990e-01,9.99999e-01
9.292325798e-01,8.14574e-01,9.99999e-01,9.60802e-01,8.47806e-01,9.99999e-01
9.338787427e-01,8.18644e-01,9.99999e-01,9.62459e-01,8.50575e-01,9.99999e-01
9.385481364e-01,8.29689e-01,9.99999e-01,9.72330e-01,8.53299e-01,9.99999e-01
9.432408771e-01,8.41446e-01,9.99999e-01,9.83024e-01,8.55977e-01,9.99999e-01
9.479570815e-01,8.51094e-01,9.99999e-01,9.91246e-01,8.58610e-01,9.99999e-01
9.526968669e-01,8.57561e-01,9.99999e-01,9.95775e-01,8.61199e-01,9.99999e-01
9.574603512e-01,8.62185e-01,9.99999e-01,9.98192e-01,8.63745e-01,9.99999e-01
9.622476530e-01,8.65760e-01,9.99999e-01,9.99436e-01,8.66248e-01,9.99999e-01
9.670588912e-01,8.68562e-01,9.99999e-01,9.99831e-01,8.68708e-01,9.99999e-01
9.718941857e-01,8.71116e-01,9.99999e-01,9.99987e-01,8.71126e-01,9.99999e-01
9.767536566e-01,8.73504e-01,9.99999e-01,9.99999e-01,8.73504e-01,9.99999e-01
9.816374249e-01,8.75840e-01,9.99999e-01,9.99999e-01,8.75840e-01,9.99999e-01
9.865456120e-01,8.78137e-01,9.99999e-01,9.99999e-01,8.78137e-01,9.99999e-01
9.914783401e-01,8.80394e-01,9.99999e-01,9.99999e-01,8.80394e-01,9.99999e-01
9.964357318e-01,8.82612e-01,9.99999e-01,9.99999e-01,8.82612e-01,9.99999e-01
1.001417910e+00,8.84791e-01,9.99999e-01,9.99999e-01,8.84791e-01,9.99999e-01
1.006425000e+00,8.86933e-01,9.99999e-01,9.99999e-01,8.86933e-01,9.99999e-01
1.011457125e+00,8.89038e-01,9.99999e-01,9.99999e-01,8.89038e-01,9.99999e-01
1.016514411e+00,8.91105e-01,9.99999e-01,9.99999e-01,8.91105e-01,9.99999e-01
1.021596983e+00,8.93114e-01,9.99999e-01,9.99973e-01,8.93137e-01,9.99999e-01
1.026704968e+00,8.93546e-01,9.99999e-01,9.98226e-01,8.95133e-01,9.99999e-01
1.031838492e+00,8.72457e-01,9.99999e-01,9.72536e-01,8.97094e-01,9.99999e-01
1.036997685e+00,2.65858e-01,9.99999e-01,2.95719e-01,8.99020e-01,9.99999e-01
1.042182673e+00,3.21208e-01,9.99999e-01,3.56536e-01,9.00913e-01,9.99999e-01
1.047393587e+00,2.94187e-01,9.99999e-01,3.25871e-01,9.02771e-01,9.99999e-01
1.052630555e+00,4.75751e-02,9.99999e-01,5.25926e-02,9.04597e-01,9.99999e-01
1.057893707e+00,8.88824e-02,9.99999e-01,9.80618e-02,9.06390e-01,9.99999e-01
1.063183176e+00,1.68911e-01,9.99999e-01,1.85994e-01,9.08152e-01,9.99999e-01
1.068499092e+00,2.96048e-01,9.99999e-01,3.25369e-01,9.09882e-01,9.99999e-01
1.073841587e+00,4.49895e-01,9.99999e-01,4.93532e-01,9.11580e-01,9.99999e-01
1.079210795e+00,5.84981e-01,9.99999e-01,6.40549e-01,9.13249e-01,9.99999e-01
1.084606849e+00,7.17700e-01,9.99999e-01,7.84467e-01,9.14887e-01,9.99999e-01
1.090029883e+00,8.08210e-01,9.99999e-01,8.81847e-01,9.16496e-01,9.99999e-01
1.095480033e+00,8.63034e-01,9.99999e-01,9.40046e-01,9.18076e-01,9.99999e-01
1.100957433e+00,8.92672e-01,9.99999e-01,9.70687e-01,9.19627e-01,9.99999e-01
1.106462220e+00,9.09905e-01,9.99999e-01,9.87791e-01,9.21151e-01,9.99999e-01
1.111994531e+00,9.18457e-01,9.99999e-01,9.95458e-01,9.22646e-01,9.99999e-01
1.117554504e+00,9.23092e-01,9.99999e-01,9.98893e-01,9.24115e-01,9.99999e-01
1.123142276e+00,9.25489e-01,9.99999e-01,9.99927e-01,9.25556e-01,9.99999e-01
1.128757988e+00,9.26972e-01,9.99999e-01,9.99999e-01,9.26972e-01,9.99999e-01
1.134401778e+00,9.28361e-01,9.99999e-01,9.99999e-01,9.28361e-01,9.99999e-01
1.140073787e+00,9.29725e-01,9.99999e-01,9.99999e-01,9.29725e-01,9.99999e-01
1.145774156e+00,9.31064e-01,9.99999e-01,9.99999e-01,9.31064e-01,9.99999e-01
1.151503026e+00,9.32379e-01,9.99999e-01,9.99999e-01,9.32379e-01,9.99999e-01
1.157260541e+00,9.33669e-01,9.99999e-01,9.99999e-01,9.33669e-01,9.99999e-01
1.163046844e+00,9.34936e-01,9.99999e-01,9.99999e-01,9.34936e-01,9.99999e-01
1.168862078e+00,9.36179e-01,9.99999e-01,9.99999e-01,9.36179e-01,9.99999e-01
1.174706389e+00,9.37399e-01,9.99999e-01,9.99999e-01,9.37399e-01,9.99999e-01
1.180579921e+00,9.38597e-01,9.99999e-01,9.99999e-01,9.38597e-01,9.99999e-01
1.186482820e+00,9.39769e-01,9.99999e-01,9.99995e-01,9.39773e-01,9.99999e-01
1.192415234e+00,9.34913e-01,9.99999e-01,9.93608e-01,9.40926e-01,9.99999e-01
1.198377311e+00,5.52586e-01,9.99999e-01,5.86572e-01,9.42059e-01,9.99999e-01
1.204369197e+00,2.03500e-06,9.99999e-01,2.15762e-06,9.43170e-01,9.99999e-01
1.210391043e+00,3.63363e-20,9.99999e-01,3.84811e-20,9.44261e-01,9.99999e-01
1.216442998e+00,1.05837e-17,9.99999e-01,1.11958e-17,9.45331e-01,9.99999e-01
1.222525213e+00,1.91736e-17,9.99999e-01,2.02599e-17,9.46381e-01,9.99999e-01
1.228637839e+00,2.07264e-13,9.99999e-01,2.18768e-13,9.47412e-01,9.99999e-01
1.234781029e+00,2.37040e-09,9.99999e-01,2.49930e-09,9.48423e-01,9.99999e-01
1.240954934e+00,2.42945e-06,9.99999e-01,2.55889e-06,9.49416e-01,9.99999e-01
1.247159708e+00,6.88773e-04,9.99999e-01,7.24726e-04,9.50390e-01,9.99999e-01
1.253395507e+00,1.79377e-02,9.99999e-01,1.88550e-02,9.51346e-01,9.99999e-01
1.259662485e+00,1.00189e-01,9.99999e-01,1.05210e-01,9.52283e-01,9.99999e-01
1.265960797e+00,2.58857e-01,9.99999e-01,2.71565e-01,9.53203e-01,9.99999e-01
1.272290601e+00,5.59250e-01,9.99999e-01,5.86150e-01,9.54106e-01,9.99999e-01
1.278652054e+00,4.94373e-01,9.99999e-01,5.17671e-01,9.54992e-01,9.99999e-01
1.285045314e+00,3.14723e-02,9.99999e-01,3.29256e-02,9.55861e-01,9.99999e-01
1.291470541e+00,4.76092e-03,9.99999e-01,4.97632e-03,9.56714e-01,9.99999e-01
1.297927893e+00,7.24974e-02,9.99999e-01,7.57112e-02,9.57550e-01,9.99999e-01
1.304417533e+00,3.63941e-01,9.99999e-01,3.79749e-01,9.58371e-01,9.99999e-01
1.310939621e+00,7.01037e-02,9.99999e-01,7.30873e-02,9.59176e-01,9.99999e-01
1.317494319e+00,2.22768e-07,9.99999e-01,2.32058e-07,9.59966e-01,9.99999e-01
1.324081790e+00,1.82277e-05,9.99999e-01,1.89725e-05,9.60741e-01,9.99999e-01
1.330702199e+00,3.06371e-03,9.99999e-01,3.18638e-03,9.61502e-01,9.99999e-01
1.337355710e+00,2.17747e-03,9.99999e-01,2.26289e-03,9.62248e-01,9.99999e-01
1.344042489e+00,7.54928e-04,9.99999e-01,7.83950e-04,9.62979e-01,9.99999e-01
1.350762701e+00,2.40530e-03,9.99999e-01,2.49591e-03,9.63697e-01,9.99999e-01
1.357516515e+00,1.86143e-02,9.99999e-01,1.93013e-02,9.64401e-01,9.99999e-01
1.364304097e+00,8.30456e-02,9.99999e-01,8.60494e-02,9.65092e-01,9.99999e-01
1.371125618e+00,2.64204e-01,9.99999e-01,2.73568e-01,9.65769e-01,9.99999e-01
1.377981246e+00,3.43205e-01,9.99999e-01,3.55124e-01,9.66434e-01,9.99999e-01
1.384871152e+00,5.29528e-01,9.99999e-01,5.47549e-01,9.67086e-01,9.99999e-01
1.391795508e+00,5.54956e-01,9.99999e-01,5.73463e-01,9.67726e-01,9.99999e-01
1.398754485e+00,6.88048e-01,9.99999e-01,7.10534e-01,9.68353e-01,9.99999e-01
1.405748258e+00,7.53025e-01,9.99999e-01,7.77141e-01,9.68968e-01,9.99999e-01
1.412776999e+00,8.27157e-01,9.99999e-01,8.53115e-01,9.69572e-01,9.99999e-01
1.419840884e+00,7.66434e-01,9.99999e-01,7.90005e-01,9.70164e-01,9.99999e-01
1.426940089e+00,1.04067e-01,9.99999e-01,1.07203e-01,9.70744e-01,9.99999e-01
1.434074789e+00,1.34732e-282,9.99999e-01,1.38711e-282,9.71314e-01,9.99999e-01
1.441245163e+00,0.00000e+00,9.99999e-01,0.00000e+00,9.71872e-01,9.99999e-01
1.448451389e+00,0.00000e+00,9.99999e-01,0.00000e+00,9.72420e-01,9.99999e-01
1.455693646e+00,1.86725e-153,9.99999e-01,1.91914e-153,9.72957e-01,9.99999e-01
1.462972114e+00,5.65265e-75,9.99999e-01,5.80661e-75,9.73484e-01,9.99999e-01
1.470286975e+00,3.59850e-32,9.99999e-01,3.69455e-32,9.74001e-01,9.99999e-01
