#,Wave/freq,Total,O2,CO2,Rayleigh,CIA
4.000000000e-01,1.29659e-09,9.99999e-01,9.99999e-01,1.29659e-09,9.99999e-01
4.020000000e-01,1.94323e-09,9.99999e-01,9.99999e-01,1.94323e-09,9.99999e-01
4.040100000e-01,2.88801e-09,9.99999e-01,9.99999e-01,2.88801e-09,9.99999e-01
4.060300500e-01,4.25865e-09,9.99999e-01,9.99999e-01,4.25865e-09,9.99999e-01
4.080602003e-01,6.23182e-09,9.99999e-01,9.99999e-01,6.23182e-09,9.99999e-01
4.101005013e-01,9.05090e-09,9.99999e-01,9.99999e-01,9.05090e-09,9.99999e-01
4.121510038e-01,1.30487e-08,9.99999e-01,9.99999e-01,1.30487e-08,9.99999e-01
4.142117588e-01,1.86769e-08,9.99999e-01,9.99999e-01,1.86769e-08,9.99999e-01
4.162828176e-01,2.65439e-08,9.99999e-01,9.99999e-01,2.65439e-08,9.99999e-01
4.183642317e-01,3.74637e-08,9.99999e-01,9.99999e-01,3.74637e-08,9.99999e-01
4.204560528e-01,5.25170e-08,9.99999e-01,9.99999e-01,5.25170e-08,9.99999e-01
4.225583331e-01,7.31294e-08,9.99999e-01,9.99999e-01,7.31294e-08,9.99999e-01
4.246711247e-01,1.01168e-07,9.99999e-01,9.99999e-01,1.01168e-07,9.99999e-01
4.267944804e-01,1.39063e-07,9.99999e-01,9.99999e-01,1.39063e-07,9.99999e-01
4.289284528e-01,1.89955e-07,9.99999e-01,9.99999e-01,1.89955e-07,9.99999e-01
4.310730950e-01,2.57878e-07,9.99999e-01,9.99999e-01,2.57878e-07,9.99999e-01
4.332284605e-01,3.47980e-07,9.99999e-01,9.99999e-01,3.47980e-07,9.99999e-01
4.353946028e-01,4.66793e-07,9.99999e-01,9.99999e-01,4.66793e-07,9.99999e-01
4.375715758e-01,6.22551e-07,9.99999e-01,9.99999e-01,6.22551e-07,9.99999e-01
4.397594337e-01,8.25573e-07,9.99999e-01,9.99999e-01,8.25573e-07,9.99999e-01
4.419582309e-01,1.08872e-06,9.99999e-01,9.99999e-01,1.08872e-06,9.99999e-01
4.441680220e-01,1.42791e-06,9.99999e-01,9.99999e-01,1.42791e-06,9.99999e-01
4.463888621e-01,1.86277e-06,9.99999e-01,9.99999e-01,1.86277e-06,9.99999e-01
4.486208064e-01,2.41734e-06,9.99999e-01,9.99999e-01,2.41734e-06,9.99999e-01
4.508639105e-01,3.12091e-06,9.99999e-01,9.99999e-01,3.12091e-06,9.99999e-01
4.531182300e-01,4.00897e-06,9.99999e-01,9.99999e-01,4.00897e-06,9.99999e-01
4.553838212e-01,5.12432e-06,9.99999e-01,9.99999e-01,5.12432e-06,9.99999e-01
4.576607403e-01,6.51829e-06,9.99999e-01,9.99999e-01,6.51829e-06,9.99999e-01
4.599490440e-01,8.25216e-06,9.99999e-01,9.99999e-01,8.25216e-06,9.99999e-01
4.622487892e-01,1.03987e-05,9.99999e-01,9.99999e-01,1.03987e-05,9.99999e-01
4.645600332e-01,1.30438e-05,9.99999e-01,9.99999e-01,1.30438e-05,9.99999e-01
4.668828333e-01,1.62888e-05,9.99999e-01,9.99999e-01,1.62888e-05,9.99999e-01
4.692172475e-01,2.02519e-05,9.99999e-01,9.99999e-01,2.02519e-05,9.99999e-01
4.715633337e-01,2.50711e-05,9.99999e-01,9.99999e-01,2.50711e-05,9.99999e-01
4.739211504e-01,3.09066e-05,9.99999e-01,9.99999e-01,3.09066e-05,9.99999e-01
4.762907561e-01,3.79432e-05,9.99999e-01,9.99999e-01,3.79432e-05,9.99999e-01
4.786722099e-01,4.63935e-05,9.99999e-01,9.99999e-01,4.63935e-05,9.99999e-01
4.810655710e-01,5.65009e-05,9.99999e-01,9.99999e-01,5.65009e-05,9.99999e-01
4.834708988e-01,6.85430e-05,9.99999e-01,9.99999e-01,6.85430e-05,9.99999e-01
4.858882533e-01,8.28348e-05,9.99999e-01,9.99999e-01,8.28348e-05,9.99999e-01
4.883176946e-01,9.97329e-05,9.99999e-01,9.99999e-01,9.97329e-05,9.99999e-01
4.907592831e-01,1.19639e-04,9.99999e-01,9.99999e-01,1.19639e-04,9.99999e-01
4.932130795e-01,1.43002e-04,9.99999e-01,9.99999e-01,1.43002e-04,9.99999e-01
4.956791449e-01,1.70327e-04,9.99999e-01,9.99999e-01,1.70327e-04,9.99999e-01
4.981575406e-01,2.02174e-04,9.99999e-01,9.99999e-01,2.02174e-04,9.99999e-01
5.006483283e-01,2.39165e-04,9.99999e-01,9.99999e-01,2.39165e-04,9.99999e-01
5.031515699e-01,2.81985e-04,9.99999e-01,9.99999e-01,2.81985e-04,9.99999e-01
5.056673278e-01,3.31393e-04,9.99999e-01,9.99999e-01,3.31393e-04,9.99999e-01
5.081956644e-01,3.88218e-04,9.99999e-01,9.99999e-01,3.88218e-04,9.99999e-01
5.107366428e-01,4.53367e-04,9.99999e-01,9.99999e-01,4.53367e-04,9.99999e-01
5.132903260e-01,5.27829e-04,9.99999e-01,9.99999e-01,5.27829e-04,9.99999e-01
5.158567776e-01,6.12677e-04,9.99999e-01,9.99999e-01,6.12677e-04,9.99999e-01
5.184360615e-01,7.09075e-04,9.99999e-01,9.99999e-01,7.09075e-04,9.99999e-01
5.210282418e-01,8.18274e-04,9.99999e-01,9.99999e-01,8.18274e-04,9.99999e-01
5.236333830e-01,9.41622e-04,9.99999e-01,9.99999e-01,9.41622e-04,9.99999e-01
5.262515499e-01,1.08056e-03,9.99999e-01,9.99999e-01,1.08056e-03,9.99999e-01
5.288828077e-01,1.23664e-03,9.99999e-01,9.99999e-01,1.23664e-03,9.99999e-01
5.315272217e-01,1.41149e-03,9.99999e-01,9.99999e-01,1.41149e-03,9.99999e-01
5.341848578e-01,1.60686e-03,9.99999e-01,9.99999e-01,1.60686e-03,9.99999e-01
5.368557821e-01,1.82460e-03,9.99999e-01,9.99999e-01,1.82460e-03,9.99999e-01
5.395400610e-01,2.06665e-03,9.99999e-01,9.99999e-01,2.06665e-03,9.99999e-01
5.422377613e-01,2.33505e-03,9.99999e-01,9.99999e-01,2.33505e-03,9.99999e-01
5.449489501e-01,2.63196e-03,9.99999e-01,9.99999e-01,2.63196e-03,9.99999e-01
5.476736949e-01,2.95961e-03,9.99999e-01,9.99999e-01,2.95961e-03,9.99999e-01
5.504120634e-01,3.32036e-03,9.99999e-01,9.99999e-01,3.32036e-03,9.99999e-01
5.531641237e-01,3.71661e-03,9.99999e-01,9.99999e-01,3.71661e-03,9.99999e-01
5.559299443e-01,4.15091e-03,9.99999e-01,9.99999e-01,4.15091e-03,9.99999e-01
5.587095940e-01,4.62584e-03,9.99999e-01,9.99999e-01,4.62584e-03,9.99999e-01
5.615031420e-01,5.14409e-03,9.99999e-01,9.99999e-01,5.14409e-03,9.99999e-01
5.643106577e-01,5.70842e-03,9.99999e-01,9.99999e-01,5.70842e-03,9.99999e-01
5.671322110e-01,6.32165e-03,9.99999e-01,9.99999e-01,6.32165e-03,9.99999e-01
5.699678720e-01,6.98666e-03,9.99999e-01,9.99999e-01,6.98666e-03,9.99999e-01
5.728177114e-01,7.70638e-03,9.99999e-01,9.99999e-01,7.70638e-03,9.99999e-01
5.756818000e-01,8.48380e-03,9.99999e-01,9.99999e-01,8.48380e-03,9.99999e-01
5.785602090e-01,9.32193e-03,9.99999e-01,9.99999e-01,9.32193e-03,9.99999e-01
5.814530100e-01,1.02238e-02,9.99999e-01,9.99999e-01,1.02238e-02,9.99999e-01
5.843602750e-01,1.11925e-02,9.99999e-01,9.99999e-01,1.11925e-02,9.99999e-01
5.872820764e-01,1.22311e-02,9.99999e-01,9.99999e-01,1.22311e-02,9.99999e-01
5.902184868e-01,1.33427e-02,9.99999e-01,9.99999e-01,1.33427e-02,9.99999e-01
5.931695792e-01,1.45303e-02,9.99999e-01,9.99999e-01,1.45303e-02,9.99999e-01
5.961354271e-01,1.57970e-02,9.99999e-01,9.99999e-01,1.57970e-02,9.99999e-01
5.991161043e-01,1.71458e-02,9.99999e-01,9.99999e-01,1.71458e-02,9.99999e-01
6.021116848e-01,1.85796e-02,9.99999e-01,9.99999e-01,1.85796e-02,9.99999e-01
6.051222432e-01,2.01015e-02,9.99999e-01,9.99999e-01,2.01015e-02,9.99999e-01
6.081478544e-01,2.17142e-02,9.99999e-01,9.99999e-01,2.17142e-02,9.99999e-01
6.111885937e-01,2.34205e-02,9.99999e-01,9.99999e-01,2.34205e-02,9.99999e-01
6.142445367e-01,2.52233e-02,9.99999e-01,9.99999e-01,2.52233e-02,9.99999e-01
6.173157594e-01,2.71250e-02,9.99999e-01,9.99999e-01,2.71250e-02,9.99999e-01
6.204023382e-01,2.91282e-02,9.99999e-01,9.99999e-01,2.91282e-02,9.99999e-01
6.235043498e-01,3.12355e-02,9.99999e-01,9.99999e-01,3.12355e-02,9.99999e-01
6.266218716e-01,3.34489e-02,9.99999e-01,9.99999e-01,3.34489e-02,9.99999e-01
6.297549810e-01,3.57709e-02,9.99999e-01,9.99999e-01,3.57709e-02,9.99999e-01
6.329037559e-01,3.82033e-02,9.99999e-01,9.99999e-01,3.82033e-02,9.99999e-01
6.360682746e-01,4.07481e-02,9.99999e-01,9.99999e-01,4.07481e-02,9.99999e-01
6.392486160e-01,4.34072e-02,9.99999e-01,9.99999e-01,4.34072e-02,9.99999e-01
6.424448591e-01,4.61821e-02,9.99999e-01,9.99999e-01,4.61821e-02,9.99999e-01
6.456570834e-01,4.90742e-02,9.99999e-01,9.99999e-01,4.90742e-02,9.99999e-01
6.488853688e-01,5.20849e-02,9.99999e-01,9.99999e-01,5.20849e-02,9.99999e-01
6.521297956e-01,5.52154e-02,9.99999e-01,9.99999e-01,5.52154e-02,9.99999e-01
6.553904446e-01,5.84666e-02,9.99999e-01,9.99999e-01,5.84666e-02,9.99999e-01
6.586673968e-01,6.18392e-02,9.99999e-01,9.99999e-01,6.18392e-02,9.99999e-01
6.619607338e-01,6.53341e-02,9.99999e-01,9.99999e-01,6.53341e-02,9.99999e-01
6.652705375e-01,6.89515e-02,9.99999e-01,9.99999e-01,6.89515e-02,9.99999e-01
6.685968902e-01,7.26918e-02,9.99999e-01,9.99999e-01,7.26918e-02,9.99999e-01
6.719398746e-01,7.65550e-02,9.99999e-01,9.99999e-01,7.65550e-02,9.99999e-01
6.752995740e-01,8.05412e-02,9.99999e-01,9.99999e-01,8.05412e-02,9.99999e-01
6.786760719e-01,8.46500e-02,9.99999e-01,9.99999e-01,8.46500e-02,9.99999e-01
6.820694522e-01,8.88810e-02,9.99999e-01,9.99999e-01,8.88810e-02,9.99999e-01
6.854797995e-01,9.32336e-02,9.99999e-01,9.99999e-01,9.32336e-02,9.99999e-01
6.889071985e-01,9.77071e-02,9.99999e-01,9.99999e-01,9.77071e-02,9.99999e-01
6.923517345e-01,1.02300e-01,9.99999e-01,9.99999e-01,1.02300e-01,9.99999e-01
6.958134932e-01,1.07013e-01,9.99999e-01,9.99999e-01,1.07013e-01,9.99999e-01
6.992925606e-01,1.11842e-01,9.99999e-01,9.99999e-01,1.11842e-01,9.99999e-01
7.027890234e-01,1.16788e-01,9.99999e-01,9.99999e-01,1.16788e-01,9.99999e-01
7.063029686e-01,1.21848e-01,9.99999e-01,9.99999e-01,1.21848e-01,9.99999e-01
7.098344834e-01,1.27021e-01,9.99999e-01,9.99999e-01,1.27021e-01,9.99999e-01
7.133836558e-01,1.32305e-01,9.99999e-01,9.99999e-01,1.32305e-01,9.99999e-01
7.169505741e-01,1.37698e-01,9.99999e-01,9.99999e-01,1.37698e-01,9.99999e-01
7.205353270e-01,1.43198e-01,9.99999e-01,9.99999e-01,1.43198e-01,9.99999e-01
7.241380036e-01,1.48802e-01,9.99999e-01,9.99999e-01,1.48802e-01,9.99999e-01
7.277586936e-01,1.54508e-01,9.99999e-01,9.99999e-01,1.54508e-01,9.99999e-01
7.313974871e-01,1.60314e-01,9.99999e-01,9.99999e-01,1.60314e-01,9.99999e-01
7.350544745e-01,1.66217e-01,9.99999e-01,9.99999e-01,1.66217e-01,9.99999e-01
7.387297469e-01,1.72214e-01,9.99999e-01,9.99999e-01,1.72214e-01,9.99999e-01
7.424233956e-01,1.78303e-01,9.99999e-01,9.99999e-01,1.78303e-01,9.99999e-01
7.461355126e-01,1.84481e-01,9.99999e-01,9.99999e-01,1.84481e-01,9.99999e-01
7.498661902e-01,1.90744e-01,9.99999e-01,9.99999e-01,1.90744e-01,9.99999e-01
7.536155211e-01,1.97089e-01,9.99999e-01,9.99999e-01,1.97089e-01,9.99999e-01
7.573835987e-01,2.03514e-01,9.99999e-01,9.99999e-01,2.03514e-01,9.99999e-01
7.611705167e-01,2.10016e-01,9.99999e-01,9.99999e-01,2.10016e-01,9.99999e-01
7.649763693e-01,2.16590e-01,9.99999e-01,9.99999e-01,2.16590e-01,9.99999e-01
7.688012511e-01,2.23235e-01,9.99999e-01,9.99999e-01,2.23235e-01,9.99999e-01
7.726452574e-01,2.29946e-01,9.99999e-01,9.99999e-01,2.29946e-01,9.99999e-01
7.765084837e-01,2.36720e-01,9.99999e-01,9.99999e-01,2.36720e-01,9.99999e-01
7.803910261e-01,2.28403e-01,9.99999e-01,9.37792e-01,2.43554e-01,9.99999e-01
7.842929812e-01,1.87570e-01,9.99999e-01,7.48948e-01,2.50445e-01,9.99999e-01
7.882144461e-01,1.88963e-01,9.99999e-01,7.34156e-01,2.57388e-01,9.99999e-01
7.921555184e-01,2.19705e-01,9.99999e-01,8.31015e-01,2.64381e-01,9.99999e-01
7.961162960e-01,2.39794e-01,9.99999e-01,8.83476e-01,2.71421e-01,9.99999e-01
8.000968774e-01,2.60377e-01,9.99999e-01,9.34914e-01,2.78503e-01,9.99999e-01
8.040973618e-01,2.75861e-01,9.99999e-01,9.65816e-01,2.85625e-01,9.99999e-01
8.081178486e-01,2.88129e-01,9.99999e-01,9.84106e-01,2.92783e-01,9.99999e-01
8.121584379e-01,2.98504e-01,9.99999e-01,9.95101e-01,2.99973e-01,9.99999e-01
8.162192301e-01,3.06860e-01,9.99999e-01,9.98916e-01,3.07193e-01,9.99999e-01
8.203003262e-01,3.14434e-01,9.99999e-01,9.99984e-01,3.14439e-01,9.99999e-01
8.244018279e-01,3.21707e-01,9.99999e-01,9.99999e-01,3.21707e-01,9.99999e-01
8.285238370e-01,3.28996e-01,9.99999e-01,9.99999e-01,3.28996e-01,9.99999e-01
8.326664562e-01,3.36300e-01,9.99999e-01,9.99999e-01,3.36300e-01,9.99999e-01
8.368297885e-01,3.43617e-01,9.99999e-01,9.99999e-01,3.43617e-01,9.99999e-01
8.410139374e-01,3.50945e-01,9.99999e-01,9.99999e-01,3.50945e-01,9.99999e-01
8.452190071e-01,3.58279e-01,9.99999e-01,9.99999e-01,3.58279e-01,9.99999e-01
8.494451021e-01,3.65617e-01,9.99999e-01,9.99999e-01,3.65617e-01,9.99999e-01
8.536923276e-01,3.72956e-01,9.99999e-01,9.99999e-01,3.72956e-01,9.99999e-01
8.579607893e-01,3.80293e-01,9.99999e-01,9.99999e-01,3.80293e-01,9.99999e-01
8.622505932e-01,3.87625e-01,9.99999e-01,9.99999e-01,3.87625e-01,9.99999e-01
8.665618462e-01,3.51556e-01,9.99999e-01,8.90127e-01,3.94950e-01,9.99999e-01
8.708946554e-01,1.95002e-01,9.99999e-01,4.84759e-01,4.02264e-01,9.99999e-01
8.752491287e-01,2.26629e-01,9.99999e-01,5.53339e-01,4.09565e-01,9.99999e-01
8.796253743e-01,2.99862e-01,9.99999e-01,7.19350e-01,4.16851e-01,9.99999e-01
8.840235012e-01,3.56972e-01,9.99999e-01,8.41679e-01,4.24119e-01,9.99999e-01
8.884436187e-01,4.03050e-01,9.99999e-01,9.34358e-01,4.31365e-01,9.99999e-01
8.928858368e-01,4.26656e-01,9.99999e-01,9.72791e-01,4.38589e-01,9.99999e-01
8.973502660e-01,4.42825e-01,9.99999e-01,9.93352e-01,4.45788e-01,9.99999e-01
9.018370173e-01,4.52627e-01,9.99999e-01,9.99266e-01,4.52959e-01,9.99999e-01
9.063462024e-01,4.51363e-01,9.99999e-01,9.81009e-01,4.60100e-01,9.99999e-01
9.108779334e-01,4.47292e-01,9.99999e-01,9.57369e-01,4.67210e-01,9.99999e-01
9.154323231e-01,4.69498e-01,9.99999e-01,9.89904e-01,4.74286e-01,9.99999e-01
9.200094847e-01,4.17838e-01,9.99999e-01,8.68098e-01,4.81326e-01,9.99999e-01
9.246095321e-01,3.94716e-01,9.99999e-01,8.08300e-01,4.88328e-01,9.99999e-01
9.292325798e-01,4.19282e-01,9.99999e-01,8.46537e-01,4.95291e-01,9.99999e-01
9.338787427e-01,4.27616e-01,9.99999e-01,8.51463e-01,5.02212e-01,9.99999e-01
9.385481364e-01,4.52125e-01,9.99999e-01,8.88102e-01,5.09091e-01,9.99999e-01
9.432408771e-01,4.79756e-01,9.99999e-01,9.29893e-01,5.15926e-01,9.99999e-01
9.479570815e-01,5.03543e-01,9.99999e-01,9.63323e-01,5.22714e-01,9.99999e-01
9.526968669e-01,5.20022e-01,9.99999e-01,9.82183e-01,5.29455e-01,9.99999e-01
9.574603512e-01,5.32043e-01,9.99999e-01,9.92344e-01,5.36148e-01,9.99999e-01
9.622476530e-01,5.41492e-01,9.99999e-01,9.97608e-01,5.42790e-01,9.99999e-01
9.670588912e-01,5.48987e-01,9.99999e-01,9.99283e-01,5.49381e-01,9.99999e-01
9.718941857e-01,5.55891e-01,9.99999e-01,9.99949e-01,5.55919e-01,9.99999e-01
9.767536566e-01,5.62404e-01,9.99999e-01,9.99999e-01,5.62404e-01,9.99999e-01
9.816374249e-01,5.68834e-01,9.99999e-01,9.99999e-01,5.68834e-01,9.99999e-01
9.865456120e-01,5.75208e-01,9.99999e-01,9.99999e-01,5.75208e-01,9.99999e-01
9.914783401e-01,5.81526e-01,9.99999e-01,9.99999e-01,5.81526e-01,9.99999e-01
9.964357318e-01,5.87786e-01,9.99999e-01,9.99999e-01,5.87786e-01,9.99999e-01
1.001417910e+00,5.93988e-01,9.99999e-01,9.99999e-01,5.93988e-01,9.99999e-01
1.006425000e+00,6.00131e-01,9.99999e-01,9.99999e-01,6.00131e-01,9.99999e-01
1.011457125e+00,6.06215e-01,9.99999e-01,9.99999e-01,6.06215e-01,9.99999e-01
1.016514411e+00,6.12238e-01,9.99999e-01,9.99999e-01,6.12238e-01,9.99999e-01
1.021596983e+00,6.18131e-01,9.99999e-01,9.99887e-01,6.18200e-01,9.99999e-01
1.026704968e+00,6.19413e-01,9.99999e-01,9.92487e-01,6.24101e-01,9.99999e-01
1.031838492e+00,5.83866e-01,9.99999e-01,9.26860e-01,6.29939e-01,9.99999e-01
1.036997685e+00,5.09903e-02,9.99999e-01,8.02091e-02,6.35716e-01,9.99999e-01
1.042182673e+00,1.32917e-02,9.99999e-01,2.07220e-02,6.41430e-01,9.99999e-01
1.047393587e+00,2.40503e-02,9.99999e-01,3.71673e-02,6.47081e-01,9.99999e-01
1.052630555e+00,4.57277e-05,9.99999e-01,7.00627e-05,6.52668e-01,9.99999e-01
1.057893707e+00,1.61263e-04,9.99999e-01,2.45009e-04,6.58192e-01,9.99999e-01
1.063183176e+00,1.35117e-03,9.99999e-01,2.03596e-03,6.63653e-01,9.99999e-01
1.068499092e+00,7.31694e-03,9.99999e-01,1.09363e-02,6.69049e-01,9.99999e-01
1.073841587e+00,3.80920e-02,9.99999e-01,5.64844e-02,6.74381e-01,9.99999e-01
1.079210795e+00,1.10552e-01,9.99999e-01,1.62660e-01,6.79650e-01,9.99999e-01
1.084606849e+00,2.48406e-01,9.99999e-01,3.62713e-01,6.84854e-01,9.99999e-01
1.090029883e+00,4.06388e-01,9.99999e-01,5.88973e-01,6.89994e-01,9.99999e-01
1.095480033e+00,5.35370e-01,9.99999e-01,7.70238e-01,6.95070e-01,9.99999e-01
1.100957433e+00,6.17123e-01,9.99999e-01,8.81501e-01,7.00082e-01,9.99999e-01
1.106462220e+00,6.69213e-01,9.99999e-01,9.49198e-01,7.05030e-01,9.99999e-01
1.111994531e+00,6.96319e-01,9.99999e-01,9.80849e-01,7.09914e-01,9.99999e-01
1.117554504e+00,7.11382e-01,9.99999e-01,9.95309e-01,7.14734e-01,9.99999e-01
1.123142276e+00,7.19271e-01,9.99999e-01,9.99692e-01,7.19491e-01,9.99999e-01
1.128757988e+00,7.24185e-01,9.99999e-01,9.99999e-01,7.24185e-01,9.99999e-01
1.134401778e+00,7.28816e-01,9.99999e-01,9.99999e-01,7.28816e-01,9.99999e-01
1.140073787e+00,7.33384e-01,9.99999e-01,9.99999e-01,7.33384e-01,9.99999e-01
1.145774156e+00,7.37890e-01,9.99999e-01,9.99999e-01,7.37890e-01,9.99999e-01
1.151503026e+00,7.42334e-01,9.99999e-01,9.99999e-01,7.42334e-01,9.99999e-01
1.157260541e+00,7.46715e-01,9.99999e-01,9.99999e-01,7.46715e-01,9.99999e-01
1.163046844e+00,7.51036e-01,9.99999e-01,9.99999e-01,7.51036e-01,9.99999e-01
1.168862078e+00,7.55295e-01,9.99999e-01,9.99999e-01,7.55295e-01,9.99999e-01
1.174706389e+00,7.59494e-01,9.99999e-01,9.99999e-01,7.59494e-01,9.99999e-01
1.180579921e+00,7.63632e-01,9.99999e-01,9.99999e-01,7.63632e-01,9.99999e-01
1.186482820e+00,7.67698e-01,9.99999e-01,9.99983e-01,7.67710e-01,9.99999e-01
1.192415234e+00,7.51484e-01,9.99999e-01,9.73765e-01,7.71729e-01,9.99999e-01
1.198377311e+00,4.17936e-01,9.99999e-01,5.38792e-01,7.75689e-01,9.99999e-01
1.204369197e+00,5.37577e-20,9.99999e-01,6.89562e-20,7.79591e-01,9.99999e-01
1.210391043e+00,1.71432e-78,9.99999e-01,2.18821e-78,7.83434e-01,9.99999e-01
1.216442998e+00,4.94101e-68,9.99999e-01,6.27652e-68,7.87220e-01,9.99999e-01
1.222525213e+00,5.04872e-67,9.99999e-01,6.38311e-67,7.90949e-01,9.99999e-01
1.228637839e+00,7.90094e-52,9.99999e-01,9.94301e-52,7.94622e-01,9.99999e-01
1.234781029e+00,1.37915e-32,9.99999e-01,1.72774e-32,7.98238e-01,9.99999e-01
1.240954934e+00,9.17377e-22,9.99999e-01,1.14415e-21,8.01799e-01,9.99999e-01
1.247159708e+00,5.76246e-11,9.99999e-01,7.15561e-11,8.05305e-01,9.99999e-01
1.253395507e+00,2.32991e-07,9.99999e-01,2.88085e-07,8.08757e-01,9.99999e-01
1.259662485e+00,1.47956e-04,9.99999e-01,1.82177e-04,8.12155e-01,9.99999e-01
1.265960797e+00,6.36455e-03,9.99999e-01,7.80447e-03,8.15500e-01,9.99999e-01
1.272290601e+00,9.29431e-02,9.99999e-01,1.13512e-01,8.18792e-01,9.99999e-01
1.278652054e+00,7.93542e-02,9.99999e-01,9.65342e-02,8.22031e-01,9.99999e-01
1.285045314e+00,3.72375e-04,9.99999e-01,4.51243e-04,8.25220e-01,9.99999e-01
1.291470541e+00,1.10502e-09,9.99999e-01,1.33399e-09,8.28357e-01,9.99999e-01
1.297927893e+00,4.77696e-04,9.99999e-01,5.74537e-04,8.31444e-01,9.99999e-01
1.304417533e+00,1.53779e-02,9.99999e-01,1.84280e-02,8.34481e-01,9.99999e-01
1.310939621e+00,2.56825e-03,9.99999e-01,3.06668e-03,8.37469e-01,9.99999e-01
1.317494319e+00,1.91043e-27,9.99999e-01,2.27321e-27,8.40408e-01,9.99999e-01
1.324081790e+00,4.43254e-18,9.99999e-01,5.25618e-18,8.43299e-01,9.99999e-01
1.330702199e+00,9.73426e-11,9.99999e-01,1.15043e-10,8.46143e-01,9.99999e-01
1.337355710e+00,4.83447e-10,9.99999e-01,5.69471e-10,8.48940e-01,9.99999e-01
1.344042489e+00,1.97877e-10,9.99999e-01,2.32334e-10,8.51690e-01,9.99999e-01
1.350762701e+00,5.36065e-11,9.99999e-01,6.27420e-11,8.54395e-01,9.99999e-01
1.357516515e+00,4.93898e-07,9.99999e-01,5.76272e-07,8.57055e-01,9.99999e-01
1.364304097e+00,4.20456e-05,9.99999e-01,4.89089e-05,8.59670e-01,9.99999e-01
1.371125618e+00,5.32819e-03,9.99999e-01,6.17945e-03,8.62242e-01,9.99999e-01
1.377981246e+00,1.14653e-02,9.99999e-01,1.32582e-02,8.64770e-01,9.99999e-01
1.384871152e+00,6.99683e-02,9.99999e-01,8.06778e-02,8.67255e-01,9.99999e-01
1.391795508e+00,8.52399e-02,9.99999e-01,9.80108e-02,8.69698e-01,9.99999e-01
1.398754485e+00,2.04757e-01,9.99999e-01,2.34786e-01,8.72100e-01,9.99999e-01
1.405748258e+00,3.03073e-01,9.99999e-01,3.46583e-01,8.74461e-01,9.99999e-01
1.412776999e+00,4.47752e-01,9.99999e-01,5.10677e-01,8.76781e-01,9.99999e-01
1.419840884e+00,4.01846e-01,9.99999e-01,4.57130e-01,8.79061e-01,9.99999e-01
1.426940089e+00,2.11736e-02,9.99999e-01,2.40254e-02,8.81302e-01,9.99999e-01
1.434074789e+00,0.00000e+00,9.99999e-01,0.00000e+00,8.83504e-01,9.99999e-01
1.441245163e+00,0.00000e+00,9.99999e-01,0.00000e+00,8.85668e-01,9.99999e-01
1.448451389e+00,0.00000e+00,9.99999e-01,0.00000e+00,8.87795e-01,9.99999e-01
1.455693646e+00,0.00000e+00,9.99999e-01,0.00000e+00,8.89885e-01,9.99999e-01
1.462972114e+00,1.03260e-311,9.99999e-01,1.15771e-311,8.91937e-01,9.99999e-01
1.470286975e+00,1.38037e-129,9.99999e-01,1.54412e-129,8.93955e-01,9.99999e-01
