#,Wave/freq,Total,O2,CO2,Rayleigh,CIA
4.000000000e-01,1.36318e-22,9.99999e-01,9.99999e-01,1.36318e-22,9.99999e-01
4.020000000e-01,3.68893e-22,9.99999e-01,9.99999e-01,3.68893e-22,9.99999e-01
4.040100000e-01,9.77816e-22,9.99999e-01,9.99999e-01,9.77816e-22,9.99999e-01
4.060300500e-01,2.54245e-21,9.99999e-01,9.99999e-01,2.54245e-21,9.99999e-01
4.080602003e-01,6.48707e-21,9.99999e-01,9.99999e-01,6.48707e-21,9.99999e-01
4.101005013e-01,1.62484e-20,9.99999e-01,9.99999e-01,1.62484e-20,9.99999e-01
4.121510038e-01,3.99665e-20,9.99999e-01,9.99999e-01,3.99665e-20,9.99999e-01
4.142117588e-01,9.65742e-20,9.99999e-01,9.99999e-01,9.65742e-20,9.99999e-01
4.162828176e-01,2.29328e-19,9.99999e-01,9.99999e-01,2.29328e-19,9.99999e-01
4.183642317e-01,5.35346e-19,9.99999e-01,9.99999e-01,5.35346e-19,9.99999e-01
4.204560528e-01,1.22896e-18,9.99999e-01,9.99999e-01,1.22896e-18,9.99999e-01
4.225583331e-01,2.77533e-18,9.99999e-01,9.99999e-01,2.77533e-18,9.99999e-01
4.246711247e-01,6.16741e-18,9.99999e-01,9.99999e-01,6.16741e-18,9.99999e-01
4.267944804e-01,1.34909e-17,9.99999e-01,9.99999e-01,1.34909e-17,9.99999e-01
4.289284528e-01,2.90579e-17,9.99999e-01,9.99999e-01,2.90579e-17,9.99999e-01
4.310730950e-01,6.16462e-17,9.99999e-01,9.99999e-01,6.16462e-17,9.99999e-01
4.332284605e-01,1.28853e-16,9.99999e-01,9.99999e-01,1.28853e-16,9.99999e-01
4.353946028e-01,2.65437e-16,9.99999e-01,9.99999e-01,2.65437e-16,9.99999e-01
4.375715758e-01,5.39046e-16,9.99999e-01,9.99999e-01,5.39046e-16,9.99999e-01
4.397594337e-01,1.07948e-15,9.99999e-01,9.99999e-01,1.07948e-15,9.99999e-01
4.419582309e-01,2.13229e-15,9.99999e-01,9.99999e-01,2.13229e-15,9.99999e-01
4.441680220e-01,4.15563e-15,9.99999e-01,9.99999e-01,4.15563e-15,9.99999e-01
4.463888621e-01,7.99290e-15,9.99999e-01,9.99999e-01,7.99290e-15,9.99999e-01
4.486208064e-01,1.51761e-14,9.99999e-01,9.99999e-01,1.51761e-14,9.99999e-01
4.508639105e-01,2.84523e-14,9.99999e-01,9.99999e-01,2.84523e-14,9.99999e-01
4.531182300e-01,5.26844e-14,9.99999e-01,9.99999e-01,5.26844e-14,9.99999e-01
4.553838212e-01,9.63744e-14,9.99999e-01,9.99999e-01,9.63744e-14,9.99999e-01
4.576607403e-01,1.74205e-13,9.99999e-01,9.99999e-01,1.74205e-13,9.99999e-01
4.599490440e-01,3.11230e-13,9.99999e-01,9.99999e-01,3.11230e-13,9.99999e-01
4.622487892e-01,5.49698e-13,9.99999e-01,9.99999e-01,5.49698e-13,9.99999e-01
4.645600332e-01,9.60035e-13,9.99999e-01,9.99999e-01,9.60035e-13,9.99999e-01
4.668828333e-01,1.65831e-12,9.99999e-01,9.99999e-01,1.65831e-12,9.99999e-01
4.692172475e-01,2.83372e-12,9.99999e-01,9.99999e-01,2.83372e-12,9.99999e-01
4.715633337e-01,4.79128e-12,9.99999e-01,9.99999e-01,4.79128e-12,9.99999e-01
4.739211504e-01,8.01754e-12,9.99999e-01,9.99999e-01,8.01754e-12,9.99999e-01
4.762907561e-01,1.32805e-11,9.99999e-01,9.99999e-01,1.32805e-11,9.99999e-01
4.786722099e-01,2.17800e-11,9.99999e-01,9.99999e-01,2.17800e-11,9.99999e-01
4.810655710e-01,3.53718e-11,9.99999e-01,9.99999e-01,3.53718e-11,9.99999e-01
4.834708988e-01,5.68980e-11,9.99999e-01,9.99999e-01,5.68980e-11,9.99999e-01
4.858882533e-01,9.06691e-11,9.99999e-01,9.99999e-01,9.06691e-11,9.99999e-01
4.883176946e-01,1.43161e-10,9.99999e-01,9.99999e-01,1.43161e-10,9.99999e-01
4.907592831e-01,2.24012e-10,9.99999e-01,9.99999e-01,2.24012e-10,9.99999e-01
4.932130795e-01,3.47438e-10,9.99999e-01,9.99999e-01,3.47438e-10,9.99999e-01
4.956791449e-01,5.34218e-10,9.99999e-01,9.99999e-01,5.34218e-10,9.99999e-01
4.981575406e-01,8.14458e-10,9.99999e-01,9.99999e-01,8.14458e-10,9.99999e-01
5.006483283e-01,1.23141e-09,9.99999e-01,9.99999e-01,1.23141e-09,9.99999e-01
5.031515699e-01,1.84667e-09,9.99999e-01,9.99999e-01,1.84667e-09,9.99999e-01
5.056673278e-01,2.74725e-09,9.99999e-01,9.99999e-01,2.74725e-09,9.99999e-01
5.081956644e-01,4.05510e-09,9.99999e-01,9.99999e-01,4.05510e-09,9.99999e-01
5.107366428e-01,5.93970e-09,9.99999e-01,9.99999e-01,5.93970e-09,9.99999e-01
5.132903260e-01,8.63481e-09,9.99999e-01,9.99999e-01,8.63481e-09,9.99999e-01
5.158567776e-01,1.24604e-08,9.99999e-01,9.99999e-01,1.24604e-08,9.99999e-01
5.184360615e-01,1.78511e-08,9.99999e-01,9.99999e-01,1.78511e-08,9.99999e-01
5.210282418e-01,2.53930e-08,9.99999e-01,9.99999e-01,2.53930e-08,9.99999e-01
5.236333830e-01,3.58707e-08,9.99999e-01,9.99999e-01,3.58707e-08,9.99999e-01
5.262515499e-01,5.03271e-08,9.99999e-01,9.99999e-01,5.03271e-08,9.99999e-01
5.288828077e-01,7.01389e-08,9.99999e-01,9.99999e-01,7.01389e-08,9.99999e-01
5.315272217e-01,9.71112e-08,9.99999e-01,9.99999e-01,9.71112e-08,9.99999e-01
5.341848578e-01,1.33594e-07,9.99999e-01,9.99999e-01,1.33594e-07,9.99999e-01
5.368557821e-01,1.82629e-07,9.99999e-01,9.99999e-01,1.82629e-07,9.99999e-01
5.395400610e-01,2.48125e-07,9.99999e-01,9.99999e-01,2.48125e-07,9.99999e-01
5.422377613e-01,3.35076e-07,9.99999e-01,9.99999e-01,3.35076e-07,9.99999e-01
5.449489501e-01,4.49819e-07,9.99999e-01,9.99999e-01,4.49819e-07,9.99999e-01
5.476736949e-01,6.00352e-07,9.99999e-01,9.99999e-01,6.00352e-07,9.99999e-01
5.504120634e-01,7.96705e-07,9.99999e-01,9.99999e-01,7.96705e-07,9.99999e-01
5.531641237e-01,1.05139e-06,9.99999e-01,9.99999e-01,1.05139e-06,9.99999e-01
5.559299443e-01,1.37990e-06,9.99999e-01,9.99999e-01,1.37990e-06,9.99999e-01
5.587095940e-01,1.80136e-06,9.99999e-01,9.99999e-01,1.80136e-06,9.99999e-01
5.615031420e-01,2.33919e-06,9.99999e-01,9.99999e-01,2.33919e-06,9.99999e-01
5.643106577e-01,3.02197e-06,9.99999e-01,9.99999e-01,3.02197e-06,9.99999e-01
5.671322110e-01,3.88435e-06,9.99999e-01,9.99999e-01,3.88435e-06,9.99999e-01
5.699678720e-01,4.96813e-06,9.99999e-01,9.99999e-01,4.96813e-06,9.99999e-01
5.728177114e-01,6.32348e-06,9.99999e-01,9.99999e-01,6.32348e-06,9.99999e-01
5.756818000e-01,8.01033e-06,9.99999e-01,9.99999e-01,8.01033e-06,9.99999e-01
5.785602090e-01,1.00999e-05,9.99999e-01,9.99999e-01,1.00999e-05,9.99999e-01
5.814530100e-01,1.26763e-05,9.99999e-01,9.99999e-01,1.26763e-05,9.99999e-01
5.843602750e-01,1.58388e-05,9.99999e-01,9.99999e-01,1.58388e-05,9.99999e-01
5.872820764e-01,1.97033e-05,9.99999e-01,9.99999e-01,1.97033e-05,9.99999e-01
5.902184868e-01,2.44052e-05,9.99999e-01,9.99999e-01,2.44052e-05,9.99999e-01
5.931695792e-01,3.01017e-05,9.99999e-01,9.99999e-01,3.01017e-05,9.99999e-01
5.961354271e-01,3.69743e-05,9.99999e-01,9.99999e-01,3.69743e-05,9.99999e-01
5.991161043e-01,4.52320e-05,9.99999e-01,9.99999e-01,4.52320e-05,9.99999e-01
6.021116848e-01,5.51139e-05,9.99999e-01,9.99999e-01,5.51139e-05,9.99999e-01
6.051222432e-01,6.68932e-05,9.99999e-01,9.99999e-01,6.68932e-05,9.99999e-01
6.081478544e-01,8.08799e-05,9.99999e-01,9.99999e-01,8.08799e-05,9.99999e-01
6.111885937e-01,9.74252e-05,9.99999e-01,9.99999e-01,9.74252e-05,9.99999e-01
6.142445367e-01,1.16924e-04,9.99999e-01,9.99999e-01,1.16924e-04,9.99999e-01
6.173157594e-01,1.39821e-04,9.99999e-01,9.99999e-01,1.39821e-04,9.99999e-01
6.204023382e-01,1.66613e-04,9.99999e-01,9.99999e-01,1.66613e-04,9.99999e-01
6.235043498e-01,1.97851e-04,9.99999e-01,9.99999e-01,1.97851e-04,9.99999e-01
6.266218716e-01,2.34150e-04,9.99999e-01,9.99999e-01,2.34150e-04,9.99999e-01
6.297549810e-01,2.76189e-04,9.99999e-01,9.99999e-01,2.76189e-04,9.99999e-01
6.329037559e-01,3.24714e-04,9.99999e-01,9.99999e-01,3.24714e-04,9.99999e-01
6.360682746e-01,3.80547e-04,9.99999e-01,9.99999e-01,3.80547e-04,9.99999e-01
6.392486160e-01,4.44583e-04,9.99999e-01,9.99999e-01,4.44583e-04,9.99999e-01
6.424448591e-01,5.17803e-04,9.99999e-01,9.99999e-01,5.17803e-04,9.99999e-01
6.456570834e-01,6.01268e-04,9.99999e-01,9.99999e-01,6.01268e-04,9.99999e-01
6.488853688e-01,6.96128e-04,9.99999e-01,9.99999e-01,6.96128e-04,9.99999e-01
6.521297956e-01,8.03626e-04,9.99999e-01,9.99999e-01,8.03626e-04,9.99999e-01
6.553904446e-01,9.25096e-04,9.99999e-01,9.99999e-01,9.25096e-04,9.99999e-01
6.586673968e-01,1.06197e-03,9.99999e-01,9.99999e-01,1.06197e-03,9.99999e-01
6.619607338e-01,1.21578e-03,9.99999e-01,9.99999e-01,1.21578e-03,9.99999e-01
6.652705375e-01,1.38815e-03,9.99999e-01,9.99999e-01,1.38815e-03,9.99999e-01
6.685968902e-01,1.58081e-03,9.99999e-01,9.99999e-01,1.58081e-03,9.99999e-01
6.719398746e-01,1.79559e-03,9.99999e-01,9.99999e-01,1.79559e-03,9.99999e-01
6.752995740e-01,2.03444e-03,9.99999e-01,9.99999e-01,2.03444e-03,9.99999e-01
6.786760719e-01,2.29937e-03,9.99999e-01,9.99999e-01,2.29937e-03,9.99999e-01
6.820694522e-01,2.59253e-03,9.99999e-01,9.99999e-01,2.59253e-03,9.99999e-01
6.854797995e-01,2.91615e-03,9.99999e-01,9.99999e-01,2.91615e-03,9.99999e-01
6.889071985e-01,3.27255e-03,9.99999e-01,9.99999e-01,3.27255e-03,9.99999e-01
6.923517345e-01,3.66415e-03,9.99999e-01,9.99999e-01,3.66415e-03,9.99999e-01
6.958134932e-01,4.09346e-03,9.99999e-01,9.99999e-01,4.09346e-03,9.99999e-01
6.992925606e-01,4.56307e-03,9.99999e-01,9.99999e-01,4.56307e-03,9.99999e-01
7.027890234e-01,5.07567e-03,9.99999e-01,9.99999e-01,5.07567e-03,9.99999e-01
7.063029686e-01,5.63398e-03,9.99999e-01,9.99999e-01,5.63398e-03,9.99999e-01
7.098344834e-01,6.24083e-03,9.99999e-01,9.99999e-01,6.24083e-03,9.99999e-01
7.133836558e-01,6.89909e-03,9.99999e-01,9.99999e-01,6.89909e-03,9.99999e-01
7.169505741e-01,7.61168e-03,9.99999e-01,9.99999e-01,7.61168e-03,9.99999e-01
7.205353270e-01,8.38160e-03,9.99999e-01,9.99999e-01,8.38160e-03,9.99999e-01
7.241380036e-01,9.21184e-03,9.99999e-01,9.99999e-01,9.21184e-03,9.99999e-01
7.277586936e-01,1.01054e-02,9.99999e-01,9.99999e-01,1.01054e-02,9.99999e-01
7.313974871e-01,1.10655e-02,9.99999e-01,9.99999e-01,1.10655e-02,9.99999e-01
7.350544745e-01,1.20950e-02,9.99999e-01,9.99999e-01,1.20950e-02,9.99999e-01
7.387297469e-01,1.31971e-02,9.99999e-01,9.99999e-01,1.31971e-02,9.99999e-01
7.424233956e-01,1.43749e-02,9.99999e-01,9.99999e-01,1.43749e-02,9.99999e-01
7.461355126e-01,1.56314e-02,9.99999e-01,9.99999e-01,1.56314e-02,9.99999e-01
7.498661902e-01,1.69695e-02,9.99999e-01,9.99999e-01,1.69695e-02,9.99999e-01
7.536155211e-01,1.83924e-02,9.99999e-01,9.99999e-01,1.83924e-02,9.99999e-01
7.573835987e-01,1.99029e-02,9.99999e-01,9.99999e-01,1.99029e-02,9.99999e-01
7.611705167e-01,2.15039e-02,9.99999e-01,9.99999e-01,2.15039e-02,9.99999e-01
7.649763693e-01,2.31982e-02,9.99999e-01,9.99999e-01,2.31982e-02,9.99999e-01
7.688012511e-01,2.49885e-02,9.99999e-01,9.99999e-01,2.49885e-02,9.99999e-01
7.726452574e-01,2.68775e-02,9.99999e-01,9.99999e-01,2.68775e-02,9.99999e-01
7.765084837e-01,2.88677e-02,9.99999e-01,9.99999e-01,2.88677e-02,9.99999e-01
7.803910261e-01,2.73510e-02,9.99999e-01,8.83384e-01,3.09616e-02,9.99999e-01
7.842929812e-01,1.69499e-02,9.99999e-01,5.11132e-01,3.31614e-02,9.99999e-01
7.882144461e-01,1.76294e-02,9.99999e-01,4.97032e-01,3.54694e-02,9.99999e-01
7.921555184e-01,2.42959e-02,9.99999e-01,6.41262e-01,3.78877e-02,9.99999e-01
7.961162960e-01,2.98077e-02,9.99999e-01,7.37483e-01,4.04181e-02,9.99999e-01
8.000968774e-01,3.64971e-02,9.99999e-01,8.47536e-01,4.30625e-02,9.99999e-01
8.040973618e-01,4.20388e-02,9.99999e-01,9.17424e-01,4.58226e-02,9.99999e-01
8.081178486e-01,4.68114e-02,9.99999e-01,9.61225e-01,4.86997e-02,9.99999e-01
8.121584379e-01,5.10649e-02,9.99999e-01,9.87804e-01,5.16953e-02,9.99999e-01
8.162192301e-01,5.46621e-02,9.99999e-01,9.97292e-01,5.48105e-02,9.99999e-01
8.203003262e-01,5.80438e-02,9.99999e-01,9.99956e-01,5.80463e-02,9.99999e-01
8.244018279e-01,6.14034e-02,9.99999e-01,9.99999e-01,6.14034e-02,9.99999e-01
8.285238370e-01,6.48827e-02,9.99999e-01,9.99999e-01,6.48827e-02,9.99999e-01
8.326664562e-01,6.84845e-02,9.99999e-01,9.99999e-01,6.84845e-02,9.99999e-01
8.368297885e-01,7.22091e-02,9.99999e-01,9.99999e-01,7.22091e-02,9.99999e-01
8.410139374e-01,7.60568e-02,9.99999e-01,9.99999e-01,7.60568e-02,9.99999e-01
8.452190071e-01,8.00273e-02,9.99999e-01,9.99999e-01,8.00273e-02,9.99999e-01
8.494451021e-01,8.41205e-02,9.99999e-01,9.99999e-01,8.41205e-02,9.99999e-01
8.536923276e-01,8.83360e-02,9.99999e-01,9.99999e-01,8.83360e-02,9.99999e-01
8.579607893e-01,9.26732e-02,9.99999e-01,9.99999e-01,9.26732e-02,9.99999e-01
8.622505932e-01,9.71313e-02,9.99999e-01,9.99999e-01,9.71313e-02,9.99999e-01
8.665618462e-01,8.60834e-02,9.99999e-01,8.46364e-01,1.01709e-01,9.99999e-01
8.708946554e-01,2.11939e-02,9.99999e-01,1.99178e-01,1.06407e-01,9.99999e-01
8.752491287e-01,2.79104e-02,9.99999e-01,2.50944e-01,1.11221e-01,9.99999e-01
8.796253743e-01,5.29544e-02,9.99999e-01,4.55904e-01,1.16152e-01,9.99999e-01
8.840235012e-01,7.96341e-02,9.99999e-01,6.57055e-01,1.21198e-01,9.99999e-01
8.884436187e-01,1.06821e-01,9.99999e-01,8.45390e-01,1.26357e-01,9.99999e-01
8.928858368e-01,1.22939e-01,9.99999e-01,9.33996e-01,1.31627e-01,9.99999e-01
8.973502660e-01,1.34743e-01,9.99999e-01,9.83482e-01,1.37006e-01,9.99999e-01
9.018370173e-01,1.42231e-01,9.99999e-01,9.98163e-01,1.42492e-01,9.99999e-01
9.063462024e-01,1.41598e-01,9.99999e-01,9.56202e-01,1.48083e-01,9.99999e-01
9.108779334e-01,1.38140e-01,9.99999e-01,8.98315e-01,1.53777e-01,9.99999e-01
9.154323231e-01,1.55579e-01,9.99999e-01,9.74984e-01,1.59570e-01,9.99999e-01
9.200094847e-01,1.24141e-01,9.99999e-01,7.50270e-01,1.65461e-01,9.99999e-01
9.246095321e-01,1.02045e-01,9.99999e-01,5.95201e-01,1.71446e-01,9.99999e-01
9.292325798e-01,1.19856e-01,9.99999e-01,6.75154e-01,1.77524e-01,9.99999e-01
9.338787427e-01,1.24502e-01,9.99999e-01,6.77781e-01,1.83690e-01,9.99999e-01
9.385481364e-01,1.42159e-01,9.99999e-01,7.48432e-01,1.89942e-01,9.99999e-01
9.432408771e-01,1.64026e-01,9.99999e-01,8.35684e-01,1.96277e-01,9.99999e-01
9.479570815e-01,1.84852e-01,9.99999e-01,9.11980e-01,2.02693e-01,9.99999e-01
9.526968669e-01,2.00101e-01,9.99999e-01,9.56573e-01,2.09185e-01,9.99999e-01
9.574603512e-01,2.11684e-01,9.99999e-01,9.81153e-01,2.15750e-01,9.99999e-01
9.622476530e-01,2.21069e-01,9.99999e-01,9.94077e-01,2.22386e-01,9.99999e-01
9.670588912e-01,2.28681e-01,9.99999e-01,9.98219e-01,2.29088e-01,9.99999e-01
9.718941857e-01,2.35825e-01,9.99999e-01,9.99872e-01,2.35855e-01,9.99999e-01
9.767536566e-01,2.42681e-01,9.99999e-01,9.99999e-01,2.42681e-01,9.99999e-01
9.816374249e-01,2.49565e-01,9.99999e-01,9.99999e-01,2.49565e-01,9.99999e-01
9.865456120e-01,2.56502e-01,9.99999e-01,9.99999e-01,2.56502e-01,9.99999e-01
9.914783401e-01,2.63489e-01,9.99999e-01,9.99999e-01,2.63489e-01,9.99999e-01
9.964357318e-01,2.70523e-01,9.99999e-01,9.99999e-01,2.70523e-01,9.99999e-01
1.001417910e+00,2.77600e-01,9.99999e-01,9.99999e-01,2.77600e-01,9.99999e-01
1.006425000e+00,2.84717e-01,9.99999e-01,9.99999e-01,2.84717e-01,9.99999e-01
1.011457125e+00,2.91870e-01,9.99999e-01,9.99999e-01,2.91870e-01,9.99999e-01
1.016514411e+00,2.99057e-01,9.99999e-01,9.99999e-01,2.99057e-01,9.99999e-01
1.021596983e+00,3.06202e-01,9.99999e-01,9.99767e-01,3.06273e-01,9.99999e-01
1.026704968e+00,3.07969e-01,9.99999e-01,9.82308e-01,3.13516e-01,9.99999e-01
1.031838492e+00,2.81493e-01,9.99999e-01,8.77521e-01,3.20782e-01,9.99999e-01
1.036997685e+00,9.75652e-03,9.99999e-01,2.97393e-02,3.28067e-01,9.99999e-01
1.042182673e+00,1.39348e-04,9.99999e-01,4.15505e-04,3.35370e-01,9.99999e-01
1.047393587e+00,4.14873e-04,9.99999e-01,1.21065e-03,3.42686e-01,9.99999e-01
1.052630555e+00,9.84233e-10,9.99999e-01,2.81199e-09,3.50012e-01,9.99999e-01
1.057893707e+00,3.63700e-09,9.99999e-01,1.01778e-08,3.57346e-01,9.99999e-01
1.063183176e+00,6.10477e-07,9.99999e-01,1.67399e-06,3.64684e-01,9.99999e-01
1.068499092e+00,1.24966e-05,9.99999e-01,3.35910e-05,3.72023e-01,9.99999e-01
1.073841587e+00,4.38085e-04,9.99999e-01,1.15480e-03,3.79360e-01,9.99999e-01
1.079210795e+00,5.76648e-03,9.99999e-01,1.49123e-02,3.86693e-01,9.99999e-01
1.084606849e+00,3.45016e-02,9.99999e-01,8.75632e-02,3.94019e-01,9.99999e-01
1.090029883e+00,1.11311e-01,9.99999e-01,2.77352e-01,4.01335e-01,9.99999e-01
1.095480033e+00,2.16111e-01,9.99999e-01,5.28858e-01,4.08638e-01,9.99999e-01
1.100957433e+00,3.05096e-01,9.99999e-01,7.33535e-01,4.15925e-01,9.99999e-01
1.106462220e+00,3.72113e-01,9.99999e-01,8.79293e-01,4.23195e-01,9.99999e-01
1.111994531e+00,4.10355e-01,9.99999e-01,9.53328e-01,4.30445e-01,9.99999e-01
1.117554504e+00,4.32582e-01,9.99999e-01,9.88370e-01,4.37672e-01,9.99999e-01
1.123142276e+00,4.44531e-01,9.99999e-01,9.99229e-01,4.44874e-01,9.99999e-01
1.128757988e+00,4.52048e-01,9.99999e-01,9.99999e-01,4.52048e-01,9.99999e-01
1.134401778e+00,4.59194e-01,9.99999e-01,9.99999e-01,4.59194e-01,9.99999e-01
1.140073787e+00,4.66307e-01,9.99999e-01,9.99999e-01,4.66307e-01,9.99999e-01
1.145774156e+00,4.73387e-01,9.99999e-01,9.99999e-01,4.73387e-01,9.99999e-01
1.151503026e+00,4.80432e-01,9.99999e-01,9.99999e-01,4.80432e-01,9.99999e-01
1.157260541e+00,4.87439e-01,9.99999e-01,9.99999e-01,4.87439e-01,9.99999e-01
1.163046844e+00,4.94407e-01,9.99999e-01,9.99999e-01,4.94407e-01,9.99999e-01
1.168862078e+00,5.01334e-01,9.99999e-01,9.99999e-01,5.01334e-01,9.99999e-01
1.174706389e+00,5.08219e-01,9.99999e-01,9.99999e-01,5.08219e-01,9.99999e-01
1.180579921e+00,5.15059e-01,9.99999e-01,9.99999e-01,5.15059e-01,9.99999e-01
1.186482820e+00,5.21839e-01,9.99999e-01,9.99971e-01,5.21853e-01,9.99999e-01
1.192415234e+00,4.97870e-01,9.99999e-01,9.41863e-01,5.28600e-01,9.99999e-01
1.198377311e+00,2.60955e-01,9.99999e-01,4.87493e-01,5.35299e-01,9.99999e-01
1.204369197e+00,6.93436e-46,9.99999e-01,1.27953e-45,5.41948e-01,9.99999e-01
1.210391043e+00,9.70461e-190,9.99999e-01,1.76915e-189,5.48545e-01,9.99999e-01
1.216442998e+00,5.15159e-164,9.99999e-01,9.28064e-164,5.55090e-01,9.99999e-01
1.222525213e+00,1.55606e-161,9.99999e-01,2.77085e-161,5.61582e-01,9.99999e-01
1.228637839e+00,2.43852e-124,9.99999e-01,4.29303e-124,5.68019e-01,9.99999e-01
1.234781029e+00,7.51521e-77,9.99999e-01,1.30836e-76,5.74400e-01,9.99999e-01
1.240954934e+00,1.23420e-50,9.99999e-01,2.12527e-50,5.80725e-01,9.99999e-01
1.247159708e+00,1.10540e-23,9.99999e-01,1.88316e-23,5.86993e-01,9.99999e-01
1.253395507e+00,3.74944e-16,9.99999e-01,6.32066e-16,5.93202e-01,9.99999e-01
1.259662485e+00,2.53296e-09,9.99999e-01,4.22616e-09,5.99353e-01,9.99999e-01
1.265960797e+00,1.92759e-05,9.99999e-01,3.18376e-05,6.05444e-01,9.99999e-01
1.272290601e+00,2.74143e-03,9.99999e-01,4.48331e-03,6.11475e-01,9.99999e-01
1.278652054e+00,4.03793e-03,9.99999e-01,6.53974e-03,6.17445e-01,9.99999e-01
1.285045314e+00,4.56486e-07,9.99999e-01,7.32306e-07,6.23353e-01,9.99999e-01
1.291470541e+00,1.39110e-21,9.99999e-01,2.21090e-21,6.29200e-01,9.99999e-01
1.297927893e+00,1.03390e-08,9.99999e-01,1.62822e-08,6.34985e-01,9.99999e-01
1.304417533e+00,5.21360e-05,9.99999e-01,8.13726e-05,6.40707e-01,9.99999e-01
1.310939621e+00,1.61019e-05,9.99999e-01,2.49114e-05,6.46365e-01,9.99999e-01
1.317494319e+00,1.06967e-63,9.99999e-01,1.64069e-63,6.51961e-01,9.99999e-01
1.324081790e+00,2.35946e-41,9.99999e-01,3.58857e-41,6.57493e-01,9.99999e-01
1.330702199e+00,1.34324e-24,9.99999e-01,2.02612e-24,6.62961e-01,9.99999e-01
1.337355710e+00,3.47058e-22,9.99999e-01,5.19263e-22,6.68366e-01,9.99999e-01
1.344042489e+00,2.27310e-22,9.99999e-01,3.37402e-22,6.73706e-01,9.99999e-01
1.350762701e+00,5.88802e-25,9.99999e-01,8.67182e-25,6.78983e-01,9.99999e-01
1.357516515e+00,1.09860e-14,9.99999e-01,1.60568e-14,6.84195e-01,9.99999e-01
1.364304097e+00,6.10025e-11,9.99999e-01,8.84935e-11,6.89343e-01,9.99999e-01
1.371125618e+00,5.45739e-06,9.99999e-01,7.85883e-06,6.94427e-01,9.99999e-01
1.377981246e+00,2.44163e-05,9.99999e-01,3.49080e-05,6.99448e-01,9.99999e-01
1.384871152e+00,1.69103e-03,9.99999e-01,2.40065e-03,7.04404e-01,9.99999e-01
1.391795508e+00,2.86476e-03,9.99999e-01,4.03888e-03,7.09296e-01,9.99999e-01
1.398754485e+00,2.05056e-02,9.99999e-01,2.87143e-02,7.14125e-01,9.99999e-01
1.405748258e+00,5.53051e-02,9.99999e-01,7.69312e-02,7.18890e-01,9.99999e-01
1.412776999e+00,1.39859e-01,9.99999e-01,1.93285e-01,7.23592e-01,9.99999e-01
1.419840884e+00,1.45000e-01,9.99999e-01,1.99112e-01,7.28231e-01,9.99999e-01
1.426940089e+00,3.85964e-03,9.99999e-01,5.26693e-03,7.32807e-01,9.99999e-01
1.434074789e+00,0.00000e+00,9.99999e-01,0.00000e+00,7.37320e-01,9.99999e-01
1.441245163e+00,0.00000e+00,9.99999e-01,0.00000e+00,7.41772e-01,9.99999e-01
1.448451389e+00,0.00000e+00,9.99999e-01,0.00000e+00,7.46162e-01,9.99999e-01
1.455693646e+00,0.00000e+00,9.99999e-01,0.00000e+00,7.50490e-01,9.99999e-01
1.462972114e+00,0.00000e+00,9.99999e-01,0.00000e+00,7.54757e-01,9.99999e-01
1.470286975e+00,2.40911e-315,9.99999e-01,3.17421e-315,7.58963e-01,9.99999e-01
