#,Wave/freq,Total,O2,CO2,Rayleigh,CIA
4.000000000e-01,4.78260e-05,9.99999e-01,9.99999e-01,4.78260e-05,9.99999e-01
4.020000000e-01,5.82223e-05,9.99999e-01,9.99999e-01,5.82223e-05,9.99999e-01
4.040100000e-01,7.05894e-05,9.99999e-01,9.99999e-01,7.05894e-05,9.99999e-01
4.060300500e-01,8.52584e-05,9.99999e-01,9.99999e-01,8.52584e-05,9.99999e-01
4.080602003e-01,1.02592e-04,9.99999e-01,9.99999e-01,1.02592e-04,9.99999e-01
4.101005013e-01,1.23000e-04,9.99999e-01,9.99999e-01,1.23000e-04,9.99999e-01
4.121510038e-01,1.46940e-04,9.99999e-01,9.99999e-01,1.46940e-04,9.99999e-01
4.142117588e-01,1.74923e-04,9.99999e-01,9.99999e-01,1.74923e-04,9.99999e-01
4.162828176e-01,2.07521e-04,9.99999e-01,9.99999e-01,2.07521e-04,9.99999e-01
4.183642317e-01,2.45363e-04,9.99999e-01,9.99999e-01,2.45363e-04,9.99999e-01
4.204560528e-01,2.89147e-04,9.99999e-01,9.99999e-01,2.89147e-04,9.99999e-01
4.225583331e-01,3.39641e-04,9.99999e-01,9.99999e-01,3.39641e-04,9.99999e-01
4.246711247e-01,3.97687e-04,9.99999e-01,9.99999e-01,3.97687e-04,9.99999e-01
4.267944804e-01,4.64204e-04,9.99999e-01,9.99999e-01,4.64204e-04,9.99999e-01
4.289284528e-01,5.40194e-04,9.99999e-01,9.99999e-01,5.40194e-04,9.99999e-01
4.310730950e-01,6.26743e-04,9.99999e-01,9.99999e-01,6.26743e-04,9.99999e-01
4.332284605e-01,7.25028e-04,9.99999e-01,9.99999e-01,7.25028e-04,9.99999e-01
4.353946028e-01,8.36317e-04,9.99999e-01,9.99999e-01,8.36317e-04,9.99999e-01
4.375715758e-01,9.61970e-04,9.99999e-01,9.99999e-01,9.61970e-04,9.99999e-01
4.397594337e-01,1.10345e-03,9.99999e-01,9.99999e-01,1.10345e-03,9.99999e-01
4.419582309e-01,1.26231e-03,9.99999e-01,9.99999e-01,1.26231e-03,9.99999e-01
4.441680220e-01,1.44020e-03,9.99999e-01,9.99999e-01,1.44020e-03,9.99999e-01
4.463888621e-01,1.63890e-03,9.99999e-01,9.99999e-01,1.63890e-03,9.99999e-01
4.486208064e-01,1.86025e-03,9.99999e-01,9.99999e-01,1.86025e-03,9.99999e-01
4.508639105e-01,2.10622e-03,9.99999e-01,9.99999e-01,2.10622e-03,9.99999e-01
4.531182300e-01,2.37887e-03,9.99999e-01,9.99999e-01,2.37887e-03,9.99999e-01
4.553838212e-01,2.68037e-03,9.99999e-01,9.99999e-01,2.68037e-03,9.99999e-01
4.576607403e-01,3.01297e-03,9.99999e-01,9.99999e-01,3.01297e-03,9.99999e-01
4.599490440e-01,3.37902e-03,9.99999e-01,9.99999e-01,3.37902e-03,9.99999e-01
4.622487892e-01,3.78097e-03,9.99999e-01,9.99999e-01,3.78097e-03,9.99999e-01
4.645600332e-01,4.22135e-03,9.99999e-01,9.99999e-01,4.22135e-03,9.99999e-01
4.668828333e-01,4.70278e-03,9.99999e-01,9.99999e-01,4.70278e-03,9.99999e-01
4.692172475e-01,5.22795e-03,9.99999e-01,9.99999e-01,5.22795e-03,9.99999e-01
4.715633337e-01,5.79962e-03,9.99999e-01,9.99999e-01,5.79962e-03,9.99999e-01
4.739211504e-01,6.42064e-03,9.99999e-01,9.99999e-01,6.42064e-03,9.99999e-01
4.762907561e-01,7.09388e-03,9.99999e-01,9.99999e-01,7.09388e-03,9.99999e-01
4.786722099e-01,7.82230e-03,9.99999e-01,9.99999e-01,7.82230e-03,9.99999e-01
4.810655710e-01,8.60887e-03,9.99999e-01,9.99999e-01,8.60887e-03,9.99999e-01
4.834708988e-01,9.45662e-03,9.99999e-01,9.99999e-01,9.45662e-03,9.99999e-01
4.858882533e-01,1.03686e-02,9.99999e-01,9.99999e-01,1.03686e-02,9.99999e-01
4.883176946e-01,1.13479e-02,9.99999e-01,9.99999e-01,1.13479e-02,9.99999e-01
4.907592831e-01,1.23975e-02,9.99999e-01,9.99999e-01,1.23975e-02,9.99999e-01
4.932130795e-01,1.35206e-02,9.99999e-01,9.99999e-01,1.35206e-02,9.99999e-01
4.956791449e-01,1.47202e-02,9.99999e-01,9.99999e-01,1.47202e-02,9.99999e-01
4.981575406e-01,1.59993e-02,9.99999e-01,9.99999e-01,1.59993e-02,9.99999e-01
5.006483283e-01,1.73610e-02,9.99999e-01,9.99999e-01,1.73610e-02,9.99999e-01
5.031515699e-01,1.88082e-02,9.99999e-01,9.99999e-01,1.88082e-02,9.99999e-01
5.056673278e-01,2.03439e-02,9.99999e-01,9.99999e-01,2.03439e-02,9.99999e-01
5.081956644e-01,2.19708e-02,9.99999e-01,9.99999e-01,2.19708e-02,9.99999e-01
5.107366428e-01,2.36919e-02,9.99999e-01,9.99999e-01,2.36919e-02,9.99999e-01
5.132903260e-01,2.55097e-02,9.99999e-01,9.99999e-01,2.55097e-02,9.99999e-01
5.158567776e-01,2.74269e-02,9.99999e-01,9.99999e-01,2.74269e-02,9.99999e-01
5.184360615e-01,2.94460e-02,9.99999e-01,9.99999e-01,2.94460e-02,9.99999e-01
5.210282418e-01,3.15694e-02,9.99999e-01,9.99999e-01,3.15694e-02,9.99999e-01
5.236333830e-01,3.37995e-02,9.99999e-01,9.99999e-01,3.37995e-02,9.99999e-01
5.262515499e-01,3.61383e-02,9.99999e-01,9.99999e-01,3.61383e-02,9.99999e-01
5.288828077e-01,3.85879e-02,9.99999e-01,9.99999e-01,3.85879e-02,9.99999e-01
5.315272217e-01,4.11503e-02,9.99999e-01,9.99999e-01,4.11503e-02,9.99999e-01
5.341848578e-01,4.38270e-02,9.99999e-01,9.99999e-01,4.38270e-02,9.99999e-01
5.368557821e-01,4.66199e-02,9.99999e-01,9.99999e-01,4.66199e-02,9.99999e-01
5.395400610e-01,4.95302e-02,9.99999e-01,9.99999e-01,4.95302e-02,9.99999e-01
5.422377613e-01,5.25593e-02,9.99999e-01,9.99999e-01,5.25593e-02,9.99999e-01
5.449489501e-01,5.57083e-02,9.99999e-01,9.99999e-01,5.57083e-02,9.99999e-01
5.476736949e-01,5.89781e-02,9.99999e-01,9.99999e-01,5.89781e-02,9.99999e-01
5.504120634e-01,6.23696e-02,9.99999e-01,9.99999e-01,6.23696e-02,9.99999e-01
5.531641237e-01,6.58833e-02,9.99999e-01,9.99999e-01,6.58833e-02,9.99999e-01
5.559299443e-01,6.95196e-02,9.99999e-01,9.99999e-01,6.95196e-02,9.99999e-01
5.587095940e-01,7.32788e-02,9.99999e-01,9.99999e-01,7.32788e-02,9.99999e-01
5.615031420e-01,7.71610e-02,9.99999e-01,9.99999e-01,7.71610e-02,9.99999e-01
5.643106577e-01,8.11661e-02,9.99999e-01,9.99999e-01,8.11661e-02,9.99999e-01
5.671322110e-01,8.52938e-02,9.99999e-01,9.99999e-01,8.52938e-02,9.99999e-01
5.699678720e-01,8.95435e-02,9.99999e-01,9.99999e-01,8.95435e-02,9.99999e-01
5.728177114e-01,9.39148e-02,9.99999e-01,9.99999e-01,9.39148e-02,9.99999e-01
5.756818000e-01,9.84068e-02,9.99999e-01,9.99999e-01,9.84068e-02,9.99999e-01
5.785602090e-01,1.03019e-01,9.99999e-01,9.99999e-01,1.03019e-01,9.99999e-01
5.814530100e-01,1.07749e-01,9.99999e-01,9.99999e-01,1.07749e-01,9.99999e-01
5.843602750e-01,1.12597e-01,9.99999e-01,9.99999e-01,1.12597e-01,9.99999e-01
5.872820764e-01,1.17560e-01,9.99999e-01,9.99999e-01,1.17560e-01,9.99999e-01
5.902184868e-01,1.22638e-01,9.99999e-01,9.99999e-01,1.22638e-01,9.99999e-01
5.931695792e-01,1.27828e-01,9.99999e-01,9.99999e-01,1.27828e-01,9.99999e-01
5.961354271e-01,1.33129e-01,9.99999e-01,9.99999e-01,1.33129e-01,9.99999e-01
5.991161043e-01,1.38539e-01,9.99999e-01,9.99999e-01,1.38539e-01,9.99999e-01
6.021116848e-01,1.44054e-01,9.99999e-01,9.99999e-01,1.44054e-01,9.99999e-01
6.051222432e-01,1.49674e-01,9.99999e-01,9.99999e-01,1.49674e-01,9.99999e-01
6.081478544e-01,1.55396e-01,9.99999e-01,9.99999e-01,1.55396e-01,9.99999e-01
6.111885937e-01,1.61217e-01,9.99999e-01,9.99999e-01,1.61217e-01,9.99999e-01
6.142445367e-01,1.67135e-01,9.99999e-01,9.99999e-01,1.67135e-01,9.99999e-01
6.173157594e-01,1.73146e-01,9.99999e-01,9.99999e-01,1.73146e-01,9.99999e-01
6.204023382e-01,1.79249e-01,9.99999e-01,9.99999e-01,1.79249e-01,9.99999e-01
6.235043498e-01,1.85440e-01,9.99999e-01,9.99999e-01,1.85440e-01,9.99999e-01
6.266218716e-01,1.91716e-01,9.99999e-01,9.99999e-01,1.91716e-01,9.99999e-01
6.297549810e-01,1.98074e-01,9.99999e-01,9.99999e-01,1.98074e-01,9.99999e-01
6.329037559e-01,2.04511e-01,9.99999e-01,9.99999e-01,2.04511e-01,9.99999e-01
6.360682746e-01,2.11024e-01,9.99999e-01,9.99999e-01,2.11024e-01,9.99999e-01
6.392486160e-01,2.17609e-01,9.99999e-01,9.99999e-01,2.17609e-01,9.99999e-01
6.424448591e-01,2.24264e-01,9.99999e-01,9.99999e-01,2.24264e-01,9.99999e-01
6.456570834e-01,2.30985e-01,9.99999e-01,9.99999e-01,2.30985e-01,9.99999e-01
6.488853688e-01,2.37769e-01,9.99999e-01,9.99999e-01,2.37769e-01,9.99999e-01
6.521297956e-01,2.44612e-01,9.99999e-01,9.99999e-01,2.44612e-01,9.99999e-01
6.553904446e-01,2.51511e-01,9.99999e-01,9.99999e-01,2.51511e-01,9.99999e-01
6.586673968e-01,2.58462e-01,9.99999e-01,9.99999e-01,2.58462e-01,9.99999e-01
6.619607338e-01,2.65463e-01,9.99999e-01,9.99999e-01,2.65463e-01,9.99999e-01
6.652705375e-01,2.72509e-01,9.99999e-01,9.99999e-01,2.72509e-01,9.99999e-01
6.685968902e-01,2.79598e-01,9.99999e-01,9.99999e-01,2.79598e-01,9.99999e-01
6.719398746e-01,2.86725e-01,9.99999e-01,9.99999e-01,2.86725e-01,9.99999e-01
6.752995740e-01,2.93888e-01,9.99999e-01,9.99999e-01,2.93888e-01,9.99999e-01
6.786760719e-01,3.01083e-01,9.99999e-01,9.99999e-01,3.01083e-01,9.99999e-01
6.820694522e-01,3.08308e-01,9.99999e-01,9.99999e-01,3.08308e-01,9.99999e-01
6.854797995e-01,3.15557e-01,9.99999e-01,9.99999e-01,3.15557e-01,9.99999e-01
6.889071985e-01,3.22829e-01,9.99999e-01,9.99999e-01,3.22829e-01,9.99999e-01
6.923517345e-01,3.30120e-01,9.99999e-01,9.99999e-01,3.30120e-01,9.99999e-01
6.958134932e-01,3.37426e-01,9.99999e-01,9.99999e-01,3.37426e-01,9.99999e-01
6.992925606e-01,3.44745e-01,9.99999e-01,9.99999e-01,3.44745e-01,9.99999e-01
7.027890234e-01,3.52074e-01,9.99999e-01,9.99999e-01,3.52074e-01,9.99999e-01
7.063029686e-01,3.59409e-01,9.99999e-01,9.99999e-01,3.59409e-01,9.99999e-01
7.098344834e-01,3.66748e-01,9.99999e-01,9.99999e-01,3.66748e-01,9.99999e-01
7.133836558e-01,3.74087e-01,9.99999e-01,9.99999e-01,3.74087e-01,9.99999e-01
7.169505741e-01,3.81423e-01,9.99999e-01,9.99999e-01,3.81423e-01,9.99999e-01
7.205353270e-01,3.88754e-01,9.99999e-01,9.99999e-01,3.88754e-01,9.99999e-01
7.241380036e-01,3.96077e-01,9.99999e-01,9.99999e-01,3.96077e-01,9.99999e-01
7.277586936e-01,4.03390e-01,9.99999e-01,9.99999e-01,4.03390e-01,9.99999e-01
7.313974871e-01,4.10689e-01,9.99999e-01,9.99999e-01,4.10689e-01,9.99999e-01
7.350544745e-01,4.17972e-01,9.99999e-01,9.99999e-01,4.17972e-01,9.99999e-01
7.387297469e-01,4.25236e-01,9.99999e-01,9.99999e-01,4.25236e-01,9.99999e-01
7.424233956e-01,4.32480e-01,9.99999e-01,9.99999e-01,4.32480e-01,9.99999e-01
7.461355126e-01,4.39700e-01,9.99999e-01,9.99999e-01,4.39700e-01,9.99999e-01
7.498661902e-01,4.46894e-01,9.99999e-01,9.99999e-01,4.46894e-01,9.99999e-01
7.536155211e-01,4.54061e-01,9.99999e-01,9.99999e-01,4.54061e-01,9.99999e-01
7.573835987e-01,4.61198e-01,9.99999e-01,9.99999e-01,4.61198e-01,9.99999e-01
7.611705167e-01,4.68302e-01,9.99999e-01,9.99999e-01,4.68302e-01,9.99999e-01
7.649763693e-01,4.75372e-01,9.99999e-01,9.99999e-01,4.75372e-01,9.99999e-01
7.688012511e-01,4.82407e-01,9.99999e-01,9.99999e-01,4.82407e-01,9.99999e-01
7.726452574e-01,4.89403e-01,9.99999e-01,9.99999e-01,4.89403e-01,9.99999e-01
7.765084837e-01,4.96360e-01,9.99999e-01,9.99999e-01,4.96360e-01,9.99999e-01
7.803910261e-01,4.87106e-01,9.99999e-01,9.67872e-01,5.03275e-01,9.99999e-01
7.842929812e-01,4.41071e-01,9.99999e-01,8.64595e-01,5.10147e-01,9.99999e-01
7.882144461e-01,4.42489e-01,9.99999e-01,8.55919e-01,5.16974e-01,9.99999e-01
7.921555184e-01,4.78389e-01,9.99999e-01,9.13381e-01,5.23756e-01,9.99999e-01
7.961162960e-01,4.99216e-01,9.99999e-01,9.41047e-01,5.30489e-01,9.99999e-01
8.000968774e-01,5.19782e-01,9.99999e-01,9.67622e-01,5.37174e-01,9.99999e-01
8.040973618e-01,5.34607e-01,9.99999e-01,9.83079e-01,5.43808e-01,9.99999e-01
8.081178486e-01,5.46102e-01,9.99999e-01,9.92207e-01,5.50391e-01,9.99999e-01
8.121584379e-01,5.55575e-01,9.99999e-01,9.97581e-01,5.56921e-01,9.99999e-01
8.162192301e-01,5.63097e-01,9.99999e-01,9.99465e-01,5.63398e-01,9.99999e-01
8.203003262e-01,5.69814e-01,9.99999e-01,9.99991e-01,5.69819e-01,9.99999e-01
8.244018279e-01,5.76185e-01,9.99999e-01,9.99999e-01,5.76185e-01,9.99999e-01
8.285238370e-01,5.82494e-01,9.99999e-01,9.99999e-01,5.82494e-01,9.99999e-01
8.326664562e-01,5.88745e-01,9.99999e-01,9.99999e-01,5.88745e-01,9.99999e-01
8.368297885e-01,5.94938e-01,9.99999e-01,9.99999e-01,5.94938e-01,9.99999e-01
8.410139374e-01,6.01072e-01,9.99999e-01,9.99999e-01,6.01072e-01,9.99999e-01
8.452190071e-01,6.07146e-01,9.99999e-01,9.99999e-01,6.07146e-01,9.99999e-01
8.494451021e-01,6.13160e-01,9.99999e-01,9.99999e-01,6.13160e-01,9.99999e-01
8.536923276e-01,6.19113e-01,9.99999e-01,9.99999e-01,6.19113e-01,9.99999e-01
8.579607893e-01,6.25004e-01,9.99999e-01,9.99999e-01,6.25004e-01,9.99999e-01
8.622505932e-01,6.30833e-01,9.99999e-01,9.99999e-01,6.30833e-01,9.99999e-01
8.665618462e-01,5.90736e-01,9.99999e-01,9.27953e-01,6.36600e-01,9.99999e-01
8.708946554e-01,4.43883e-01,9.99999e-01,6.91078e-01,6.42304e-01,9.99999e-01
8.752491287e-01,4.81101e-01,9.99999e-01,7.42501e-01,6.47946e-01,9.99999e-01
8.796253743e-01,5.54967e-01,9.99999e-01,8.49191e-01,6.53523e-01,9.99999e-01
8.840235012e-01,6.05507e-01,9.99999e-01,9.18774e-01,6.59037e-01,9.99999e-01
8.884436187e-01,6.42655e-01,9.99999e-01,9.67142e-01,6.64488e-01,9.99999e-01
8.928858368e-01,6.60879e-01,9.99999e-01,9.86571e-01,6.69874e-01,9.99999e-01
8.973502660e-01,6.72981e-01,9.99999e-01,9.96717e-01,6.75197e-01,9.99999e-01
9.018370173e-01,6.80209e-01,9.99999e-01,9.99637e-01,6.80455e-01,9.99999e-01
9.063462024e-01,6.79349e-01,9.99999e-01,9.90810e-01,6.85650e-01,9.99999e-01
9.108779334e-01,6.76207e-01,9.99999e-01,9.78904e-01,6.90780e-01,9.99999e-01
9.154323231e-01,6.92365e-01,9.99999e-01,9.94996e-01,6.95846e-01,9.99999e-01
9.200094847e-01,6.51751e-01,9.99999e-01,9.29945e-01,7.00848e-01,9.99999e-01
9.246095321e-01,6.35846e-01,9.99999e-01,9.00904e-01,7.05786e-01,9.99999e-01
9.292325798e-01,6.54984e-01,9.99999e-01,9.21655e-01,7.10660e-01,9.99999e-01
9.338787427e-01,6.61086e-01,9.99999e-01,9.23986e-01,7.15471e-01,9.99999e-01
9.385481364e-01,6.79585e-01,9.99999e-01,9.43580e-01,7.20219e-01,9.99999e-01
9.432408771e-01,6.99570e-01,9.99999e-01,9.65053e-01,7.24903e-01,9.99999e-01
9.479570815e-01,7.16342e-01,9.99999e-01,9.81930e-01,7.29524e-01,9.99999e-01
9.526968669e-01,7.27655e-01,9.99999e-01,9.91243e-01,7.34083e-01,9.99999e-01
9.574603512e-01,7.35807e-01,9.99999e-01,9.96246e-01,7.38579e-01,9.99999e-01
9.622476530e-01,7.42142e-01,9.99999e-01,9.98827e-01,7.43013e-01,9.99999e-01
9.670588912e-01,7.47122e-01,9.99999e-01,9.99648e-01,7.47385e-01,9.99999e-01
9.718941857e-01,7.51677e-01,9.99999e-01,9.99974e-01,7.51696e-01,9.99999e-01
9.767536566e-01,7.55946e-01,9.99999e-01,9.99999e-01,7.55946e-01,9.99999e-01
9.816374249e-01,7.60135e-01,9.99999e-01,9.99999e-01,7.60135e-01,9.99999e-01
9.865456120e-01,7.64264e-01,9.99999e-01,9.99999e-01,7.64264e-01,9.99999e-01
9.914783401e-01,7.68333e-01,9.99999e-01,9.99999e-01,7.68333e-01,9.99999e-01
9.964357318e-01,7.72343e-01,9.99999e-01,9.99999e-01,7.72343e-01,9.99999e-01
1.001417910e+00,7.76294e-01,9.99999e-01,9.99999e-01,7.76294e-01,9.99999e-01
1.006425000e+00,7.80187e-01,9.99999e-01,9.99999e-01,7.80187e-01,9.99999e-01
1.011457125e+00,7.84021e-01,9.99999e-01,9.99999e-01,7.84021e-01,9.99999e-01
1.016514411e+00,7.87799e-01,9.99999e-01,9.99999e-01,7.87799e-01,9.99999e-01
1.021596983e+00,7.91481e-01,9.99999e-01,9.99952e-01,7.91519e-01,9.99999e-01
1.026704968e+00,7.92332e-01,9.99999e-01,9.96415e-01,7.95183e-01,9.99999e-01
1.031838492e+00,7.65065e-01,9.99999e-01,9.57778e-01,7.98791e-01,9.99999e-01
1.036997685e+00,1.27561e-01,9.99999e-01,1.58986e-01,8.02343e-01,9.99999e-01
1.042182673e+00,1.04206e-01,9.99999e-01,1.29313e-01,8.05841e-01,9.99999e-01
1.047393587e+00,1.21869e-01,9.99999e-01,1.50588e-01,8.09284e-01,9.99999e-01
1.052630555e+00,3.82856e-03,9.99999e-01,4.71106e-03,8.12674e-01,9.99999e-01
1.057893707e+00,9.53279e-03,9.99999e-01,1.16822e-02,8.16010e-01,9.99999e-01
1.063183176e+00,3.08825e-02,9.99999e-01,3.76939e-02,8.19294e-01,9.99999e-01
1.068499092e+00,8.47842e-02,9.99999e-01,1.03078e-01,8.22526e-01,9.99999e-01
1.073841587e+00,1.96205e-01,9.99999e-01,2.37621e-01,8.25706e-01,9.99999e-01
1.079210795e+00,3.33692e-01,9.99999e-01,4.02602e-01,8.28836e-01,9.99999e-01
1.084606849e+00,5.04189e-01,9.99999e-01,6.06058e-01,8.31915e-01,9.99999e-01
1.090029883e+00,6.43871e-01,9.99999e-01,7.71154e-01,8.34944e-01,9.99999e-01
1.095480033e+00,7.37191e-01,9.99999e-01,8.79781e-01,8.37925e-01,9.99999e-01
1.100957433e+00,7.90552e-01,9.99999e-01,9.40174e-01,8.40856e-01,9.99999e-01
1.106462220e+00,8.22483e-01,9.99999e-01,9.74805e-01,8.43740e-01,9.99999e-01
1.111994531e+00,8.38609e-01,9.99999e-01,9.90587e-01,8.46577e-01,9.99999e-01
1.117554504e+00,8.47406e-01,9.99999e-01,9.97691e-01,8.49366e-01,9.99999e-01
1.123142276e+00,8.51981e-01,9.99999e-01,9.99847e-01,8.52110e-01,9.99999e-01
1.128757988e+00,8.54808e-01,9.99999e-01,9.99999e-01,8.54808e-01,9.99999e-01
1.134401778e+00,8.57461e-01,9.99999e-01,9.99999e-01,8.57461e-01,9.99999e-01
1.140073787e+00,8.60069e-01,9.99999e-01,9.99999e-01,8.60069e-01,9.99999e-01
1.145774156e+00,8.62634e-01,9.99999e-01,9.99999e-01,8.62634e-01,9.99999e-01
1.151503026e+00,8.65155e-01,9.99999e-01,9.99999e-01,8.65155e-01,9.99999e-01
1.157260541e+00,8.67634e-01,9.99999e-01,9.99999e-01,8.67634e-01,9.99999e-01
1.163046844e+00,8.70071e-01,9.99999e-01,9.99999e-01,8.70071e-01,9.99999e-01
1.168862078e+00,8.72466e-01,9.99999e-01,9.99999e-01,8.72466e-01,9.99999e-01
1.174706389e+00,8.74821e-01,9.99999e-01,9.99999e-01,8.74821e-01,9.99999e-01
1.180579921e+00,8.77135e-01,9.99999e-01,9.99999e-01,8.77135e-01,9.99999e-01
1.186482820e+00,8.79403e-01,9.99999e-01,9.99993e-01,8.79409e-01,9.99999e-01
1.192415234e+00,8.70416e-01,9.99999e-01,9.87264e-01,8.81644e-01,9.99999e-01
1.198377311e+00,4.97411e-01,9.99999e-01,5.62783e-01,8.83840e-01,9.99999e-01
1.204369197e+00,7.09557e-11,9.99999e-01,8.00856e-11,8.85998e-01,9.99999e-01
1.210391043e+00,2.62083e-39,9.99999e-01,2.95098e-39,8.88119e-01,9.99999e-01
1.216442998e+00,3.17966e-34,9.99999e-01,3.57183e-34,8.90203e-01,9.99999e-01
1.222525213e+00,9.85006e-34,9.99999e-01,1.10396e-33,8.92251e-01,9.99999e-01
1.228637839e+00,3.99561e-26,9.99999e-01,4.46805e-26,8.94262e-01,9.99999e-01
1.234781029e+00,5.38740e-17,9.99999e-01,6.01112e-17,8.96238e-01,9.99999e-01
1.240954934e+00,1.71476e-11,9.99999e-01,1.90915e-11,8.98180e-01,9.99999e-01
1.247159708e+00,1.92357e-06,9.99999e-01,2.13710e-06,9.00087e-01,9.99999e-01
1.253395507e+00,3.76999e-04,9.99999e-01,4.17977e-04,9.01960e-01,9.99999e-01
1.259662485e+00,1.04422e-02,9.99999e-01,1.15536e-02,9.03800e-01,9.99999e-01
1.265960797e+00,6.82892e-02,9.99999e-01,7.54069e-02,9.05608e-01,9.99999e-01
1.272290601e+00,3.04856e-01,9.99999e-01,3.35972e-01,9.07383e-01,9.99999e-01
1.278652054e+00,2.61863e-01,9.99999e-01,2.88038e-01,9.09127e-01,9.99999e-01
1.285045314e+00,7.58886e-03,9.99999e-01,8.33171e-03,9.10839e-01,9.99999e-01
1.291470541e+00,2.66875e-05,9.99999e-01,2.92458e-05,9.12521e-01,9.99999e-01
1.297927893e+00,5.09729e-03,9.99999e-01,5.57584e-03,9.14173e-01,9.99999e-01
1.304417533e+00,1.25834e-01,9.99999e-01,1.37404e-01,9.15794e-01,9.99999e-01
1.310939621e+00,3.10178e-02,9.99999e-01,3.38110e-02,9.17387e-01,9.99999e-01
1.317494319e+00,5.55431e-14,9.99999e-01,6.04419e-14,9.18951e-01,9.99999e-01
1.324081790e+00,1.00579e-09,9.99999e-01,1.09267e-09,9.20486e-01,9.99999e-01
1.330702199e+00,9.50867e-06,9.99999e-01,1.03131e-05,9.21994e-01,9.99999e-01
1.337355710e+00,1.17441e-05,9.99999e-01,1.27173e-05,9.23474e-01,9.99999e-01
1.344042489e+00,3.55918e-06,9.99999e-01,3.84806e-06,9.24927e-01,9.99999e-01
1.350762701e+00,5.95711e-06,9.99999e-01,6.43069e-06,9.26354e-01,9.99999e-01
1.357516515e+00,4.31303e-04,9.99999e-01,4.64888e-04,9.27755e-01,9.99999e-01
1.364304097e+00,6.34620e-03,9.99999e-01,6.83025e-03,9.29130e-01,9.99999e-01
1.371125618e+00,6.89160e-02,9.99999e-01,7.40649e-02,9.30480e-01,9.99999e-01
1.377981246e+00,1.10572e-01,9.99999e-01,1.18664e-01,9.31805e-01,9.99999e-01
1.384871152e+00,2.69901e-01,9.99999e-01,2.89250e-01,9.33106e-01,9.99999e-01
1.391795508e+00,2.96906e-01,9.99999e-01,3.17756e-01,9.34383e-01,9.99999e-01
1.398754485e+00,4.61168e-01,9.99999e-01,4.92891e-01,9.35637e-01,9.99999e-01
1.405748258e+00,5.56395e-01,9.99999e-01,5.93888e-01,9.36867e-01,9.99999e-01
1.412776999e+00,6.74942e-01,9.99999e-01,7.19497e-01,9.38075e-01,9.99999e-01
1.419840884e+00,6.09593e-01,9.99999e-01,6.49014e-01,9.39260e-01,9.99999e-01
1.426940089e+00,5.79342e-02,9.99999e-01,6.16043e-02,9.40423e-01,9.99999e-01
1.434074789e+00,0.00000e+00,9.99999e-01,0.00000e+00,9.41565e-01,9.99999e-01
1.441245163e+00,0.00000e+00,9.99999e-01,0.00000e+00,9.42685e-01,9.99999e-01
1.448451389e+00,0.00000e+00,9.99999e-01,0.00000e+00,9.43785e-01,9.99999e-01
1.455693646e+00,5.35184e-315,9.99999e-01,5.66413e-315,9.44864e-01,9.99999e-01
1.462972114e+00,1.13755e-152,9.99999e-01,1.20258e-152,9.45923e-01,9.99999e-01
1.470286975e+00,3.82043e-64,9.99999e-01,4.03440e-64,9.46962e-01,9.99999e-01
