#,Wave/freq,Total,O2,CO2,Rayleigh,CIA
4.000000000e-01,1.73384e-10,9.99999e-01,9.99999e-01,1.73384e-10,9.99999e-01
4.020000000e-01,2.70406e-10,9.99999e-01,9.99999e-01,2.70406e-10,9.99999e-01
4.040100000e-01,4.17837e-10,9.99999e-01,9.99999e-01,4.17837e-10,9.99999e-01
4.060300500e-01,6.40126e-10,9.99999e-01,9.99999e-01,6.40126e-10,9.99999e-01
4.080602003e-01,9.72444e-10,9.99999e-01,9.99999e-01,9.72444e-10,9.99999e-01
4.101005013e-01,1.46513e-09,9.99999e-01,9.99999e-01,1.46513e-09,9.99999e-01
4.121510038e-01,2.18964e-09,9.99999e-01,9.99999e-01,2.18964e-09,9.99999e-01
4.142117588e-01,3.24655e-09,9.99999e-01,9.99999e-01,3.24655e-09,9.99999e-01
4.162828176e-01,4.77631e-09,9.99999e-01,9.99999e-01,4.77631e-09,9.99999e-01
4.183642317e-01,6.97350e-09,9.99999e-01,9.99999e-01,6.97350e-09,9.99999e-01
4.204560528e-01,1.01056e-08,9.99999e-01,9.99999e-01,1.01056e-08,9.99999e-01
4.225583331e-01,1.45376e-08,9.99999e-01,9.99999e-01,1.45376e-08,9.99999e-01
4.246711247e-01,2.07636e-08,9.99999e-01,9.99999e-01,2.07636e-08,9.99999e-01
4.267944804e-01,2.94479e-08,9.99999e-01,9.99999e-01,2.94479e-08,9.99999e-01
4.289284528e-01,4.14772e-08,9.99999e-01,9.99999e-01,4.14772e-08,9.99999e-01
4.310730950e-01,5.80265e-08,9.99999e-01,9.99999e-01,5.80265e-08,9.99999e-01
4.332284605e-01,8.06422e-08,9.99999e-01,9.99999e-01,8.06422e-08,9.99999e-01
4.353946028e-01,1.11346e-07,9.99999e-01,9.99999e-01,1.11346e-07,9.99999e-01
4.375715758e-01,1.52764e-07,9.99999e-01,9.99999e-01,1.52764e-07,9.99999e-01
4.397594337e-01,2.08283e-07,9.99999e-01,9.99999e-01,2.08283e-07,9.99999e-01
4.419582309e-01,2.82245e-07,9.99999e-01,9.99999e-01,2.82245e-07,9.99999e-01
4.441680220e-01,3.80183e-07,9.99999e-01,9.99999e-01,3.80183e-07,9.99999e-01
4.463888621e-01,5.09101e-07,9.99999e-01,9.99999e-01,5.09101e-07,9.99999e-01
4.486208064e-01,6.77813e-07,9.99999e-01,9.99999e-01,6.77813e-07,9.99999e-01
4.508639105e-01,8.97348e-07,9.99999e-01,9.99999e-01,8.97348e-07,9.99999e-01
4.531182300e-01,1.18142e-06,9.99999e-01,9.99999e-01,1.18142e-06,9.99999e-01
4.553838212e-01,1.54700e-06,9.99999e-01,9.99999e-01,1.54700e-06,9.99999e-01
4.576607403e-01,2.01494e-06,9.99999e-01,9.99999e-01,2.01494e-06,9.99999e-01
4.599490440e-01,2.61076e-06,9.99999e-01,9.99999e-01,2.61076e-06,9.99999e-01
4.622487892e-01,3.36550e-06,9.99999e-01,9.99999e-01,3.36550e-06,9.99999e-01
4.645600332e-01,4.31672e-06,9.99999e-01,9.99999e-01,4.31672e-06,9.99999e-01
4.668828333e-01,5.50963e-06,9.99999e-01,9.99999e-01,5.50963e-06,9.99999e-01
4.692172475e-01,6.99839e-06,9.99999e-01,9.99999e-01,6.99839e-06,9.99999e-01
4.715633337e-01,8.84754e-06,9.99999e-01,9.99999e-01,8.84754e-06,9.99999e-01
4.739211504e-01,1.11336e-05,9.99999e-01,9.99999e-01,1.11336e-05,9.99999e-01
4.762907561e-01,1.39469e-05,9.99999e-01,9.99999e-01,1.39469e-05,9.99999e-01
4.786722099e-01,1.73934e-05,9.99999e-01,9.99999e-01,1.73934e-05,9.99999e-01
4.810655710e-01,2.15973e-05,9.99999e-01,9.99999e-01,2.15973e-05,9.99999e-01
4.834708988e-01,2.67028e-05,9.99999e-01,9.99999e-01,2.67028e-05,9.99999e-01
4.858882533e-01,3.28771e-05,9.99999e-01,9.99999e-01,3.28771e-05,9.99999e-01
4.883176946e-01,4.03131e-05,9.99999e-01,9.99999e-01,4.03131e-05,9.99999e-01
4.907592831e-01,4.92322e-05,9.99999e-01,9.99999e-01,4.92322e-05,9.99999e-01
4.932130795e-01,5.98877e-05,9.99999e-01,9.99999e-01,5.98877e-05,9.99999e-01
4.956791449e-01,7.25681e-05,9.99999e-01,9.99999e-01,7.25681e-05,9.99999e-01
4.981575406e-01,8.76005e-05,9.99999e-01,9.99999e-01,8.76005e-05,9.99999e-01
5.006483283e-01,1.05354e-04,9.99999e-01,9.99999e-01,1.05354e-04,9.99999e-01
5.031515699e-01,1.26245e-04,9.99999e-01,9.99999e-01,1.26245e-04,9.99999e-01
5.056673278e-01,1.50739e-04,9.99999e-01,9.99999e-01,1.50739e-04,9.99999e-01
5.081956644e-01,1.79355e-04,9.99999e-01,9.99999e-01,1.79355e-04,9.99999e-01
5.107366428e-01,2.12673e-04,9.99999e-01,9.99999e-01,2.12673e-04,9.99999e-01
5.132903260e-01,2.51333e-04,9.99999e-01,9.99999e-01,2.51333e-04,9.99999e-01
5.158567776e-01,2.96042e-04,9.99999e-01,9.99999e-01,2.96042e-04,9.99999e-01
5.184360615e-01,3.47579e-04,9.99999e-01,9.99999e-01,3.47579e-04,9.99999e-01
5.210282418e-01,4.06795e-04,9.99999e-01,9.99999e-01,4.06795e-04,9.99999e-01
5.236333830e-01,4.74623e-04,9.99999e-01,9.99999e-01,4.74623e-04,9.99999e-01
5.262515499e-01,5.52077e-04,9.99999e-01,9.99999e-01,5.52077e-04,9.99999e-01
5.288828077e-01,6.40255e-04,9.99999e-01,9.99999e-01,6.40255e-04,9.99999e-01
5.315272217e-01,7.40347e-04,9.99999e-01,9.99999e-01,7.40347e-04,9.99999e-01
5.341848578e-01,8.53634e-04,9.99999e-01,9.99999e-01,8.53634e-04,9.99999e-01
5.368557821e-01,9.81492e-04,9.99999e-01,9.99999e-01,9.81492e-04,9.99999e-01
5.395400610e-01,1.12539e-03,9.99999e-01,9.99999e-01,1.12539e-03,9.99999e-01
5.422377613e-01,1.28691e-03,9.99999e-01,9.99999e-01,1.28691e-03,9.99999e-01
5.449489501e-01,1.46772e-03,9.99999e-01,9.99999e-01,1.46772e-03,9.99999e-01
5.476736949e-01,1.66958e-03,9.99999e-01,9.99999e-01,1.66958e-03,9.99999e-01
5.504120634e-01,1.89439e-03,9.99999e-01,9.99999e-01,1.89439e-03,9.99999e-01
5.531641237e-01,2.14410e-03,9.99999e-01,9.99999e-01,2.14410e-03,9.99999e-01
5.559299443e-01,2.42080e-03,9.99999e-01,9.99999e-01,2.42080e-03,9.99999e-01
5.587095940e-01,2.72667e-03,9.99999e-01,9.99999e-01,2.72667e-03,9.99999e-01
5.615031420e-01,3.06398e-03,9.99999e-01,9.99999e-01,3.06398e-03,9.99999e-01
5.643106577e-01,3.43509e-03,9.99999e-01,9.99999e-01,3.43509e-03,9.99999e-01
5.671322110e-01,3.84246e-03,9.99999e-01,9.99999e-01,3.84246e-03,9.99999e-01
5.699678720e-01,4.28863e-03,9.99999e-01,9.99999e-01,4.28863e-03,9.99999e-01
5.728177114e-01,4.77624e-03,9.99999e-01,9.99999e-01,4.77624e-03,9.99999e-01
5.756818000e-01,5.30799e-03,9.99999e-01,9.99999e-01,5.30799e-03,9.99999e-01
5.785602090e-01,5.88665e-03,9.99999e-01,9.99999e-01,5.88665e-03,9.99999e-01
5.814530100e-01,6.51507e-03,9.99999e-01,9.99999e-01,6.51507e-03,9.99999e-01
5.843602750e-01,7.19614e-03,9.99999e-01,9.99999e-01,7.19614e-03,9.99999e-01
5.872820764e-01,7.93281e-03,9.99999e-01,9.99999e-01,7.93281e-03,9.99999e-01
5.902184868e-01,8.72808e-03,9.99999e-01,9.99999e-01,8.72808e-03,9.99999e-01
5.931695792e-01,9.58497e-03,9.99999e-01,9.99999e-01,9.58497e-03,9.99999e-01
5.961354271e-01,1.05065e-02,9.99999e-01,9.99999e-01,1.05065e-02,9.99999e-01
5.991161043e-01,1.14958e-02,9.99999e-01,9.99999e-01,1.14958e-02,9.99999e-01
6.021116848e-01,1.25559e-02,9.99999e-01,9.99999e-01,1.25559e-02,9.99999e-01
6.051222432e-01,1.36899e-02,9.99999e-01,9.99999e-01,1.36899e-02,9.99999e-01
6.081478544e-01,1.49009e-02,9.99999e-01,9.99999e-01,1.49009e-02,9.99999e-01
6.111885937e-01,1.61918e-02,9.99999e-01,9.99999e-01,1.61918e-02,9.99999e-01
6.142445367e-01,1.75658e-02,9.99999e-01,9.99999e-01,1.75658e-02,9.99999e-01
6.173157594e-01,1.90256e-02,9.99999e-01,9.99999e-01,1.90256e-02,9.99999e-01
6.204023382e-01,2.05744e-02,9.99999e-01,9.99999e-01,2.05744e-02,9.99999e-01
6.235043498e-01,2.22148e-02,9.99999e-01,9.99999e-01,2.22148e-02,9.99999e-01
6.266218716e-01,2.39497e-02,9.99999e-01,9.99999e-01,2.39497e-02,9.99999e-01
6.297549810e-01,2.57818e-02,9.99999e-01,9.99999e-01,2.57818e-02,9.99999e-01
6.329037559e-01,2.77136e-02,9.99999e-01,9.99999e-01,2.77136e-02,9.99999e-01
6.360682746e-01,2.97478e-02,9.99999e-01,9.99999e-01,2.97478e-02,9.99999e-01
6.392486160e-01,3.18865e-02,9.99999e-01,9.99999e-01,3.18865e-02,9.99999e-01
6.424448591e-01,3.41322e-02,9.99999e-01,9.99999e-01,3.41322e-02,9.99999e-01
6.456570834e-01,3.64870e-02,9.99999e-01,9.99999e-01,3.64870e-02,9.99999e-01
6.488853688e-01,3.89529e-02,9.99999e-01,9.99999e-01,3.89529e-02,9.99999e-01
6.521297956e-01,4.15317e-02,9.99999e-01,9.99999e-01,4.15317e-02,9.99999e-01
6.553904446e-01,4.42253e-02,9.99999e-01,9.99999e-01,4.42253e-02,9.99999e-01
6.586673968e-01,4.70351e-02,9.99999e-01,9.99999e-01,4.70351e-02,9.99999e-01
6.619607338e-01,4.99626e-02,9.99999e-01,9.99999e-01,4.99626e-02,9.99999e-01
6.652705375e-01,5.30090e-02,9.99999e-01,9.99999e-01,5.30090e-02,9.99999e-01
6.685968902e-01,5.61755e-02,9.99999e-01,9.99999e-01,5.61755e-02,9.99999e-01
6.719398746e-01,5.94630e-02,9.99999e-01,9.99999e-01,5.94630e-02,9.99999e-01
6.752995740e-01,6.28721e-02,9.99999e-01,9.99999e-01,6.28721e-02,9.99999e-01
6.786760719e-01,6.64036e-02,9.99999e-01,9.99999e-01,6.64036e-02,9.99999e-01
6.820694522e-01,7.00578e-02,9.99999e-01,9.99999e-01,7.00578e-02,9.99999e-01
6.854797995e-01,7.38348e-02,9.99999e-01,9.99999e-01,7.38348e-02,9.99999e-01
6.889071985e-01,7.77349e-02,9.99999e-01,9.99999e-01,7.77349e-02,9.99999e-01
6.923517345e-01,8.17578e-02,9.99999e-01,9.99999e-01,8.17578e-02,9.99999e-01
6.958134932e-01,8.59032e-02,9.99999e-01,9.99999e-01,8.59032e-02,9.99999e-01
6.992925606e-01,9.01707e-02,9.99999e-01,9.99999e-01,9.01707e-02,9.99999e-01
7.027890234e-01,9.45595e-02,9.99999e-01,9.99999e-01,9.45595e-02,9.99999e-01
7.063029686e-01,9.90690e-02,9.99999e-01,9.99999e-01,9.90690e-02,9.99999e-01
7.098344834e-01,1.03698e-01,9.99999e-01,9.99999e-01,1.03698e-01,9.99999e-01
7.133836558e-01,1.08445e-01,9.99999e-01,9.99999e-01,1.08445e-01,9.99999e-01
7.169505741e-01,1.13310e-01,9.99999e-01,9.99999e-01,1.13310e-01,9.99999e-01
7.205353270e-01,1.18290e-01,9.99999e-01,9.99999e-01,1.18290e-01,9.99999e-01
7.241380036e-01,1.23384e-01,9.99999e-01,9.99999e-01,1.23384e-01,9.99999e-01
7.277586936e-01,1.28591e-01,9.99999e-01,9.99999e-01,1.28591e-01,9.99999e-01
7.313974871e-01,1.33908e-01,9.99999e-01,9.99999e-01,1.33908e-01,9.99999e-01
7.350544745e-01,1.39333e-01,9.99999e-01,9.99999e-01,1.39333e-01,9.99999e-01
7.387297469e-01,1.44864e-01,9.99999e-01,9.99999e-01,1.44864e-01,9.99999e-01
7.424233956e-01,1.50499e-01,9.99999e-01,9.99999e-01,1.50499e-01,9.99999e-01
7.461355126e-01,1.56235e-01,9.99999e-01,9.99999e-01,1.56235e-01,9.99999e-01
7.498661902e-01,1.62071e-01,9.99999e-01,9.99999e-01,1.62071e-01,9.99999e-01
7.536155211e-01,1.68002e-01,9.99999e-01,9.99999e-01,1.68002e-01,9.99999e-01
7.573835987e-01,1.74027e-01,9.99999e-01,9.99999e-01,1.74027e-01,9.99999e-01
7.611705167e-01,1.80142e-01,9.99999e-01,9.99999e-01,1.80142e-01,9.99999e-01
7.649763693e-01,1.86346e-01,9.99999e-01,9.99999e-01,1.86346e-01,9.99999e-01
7.688012511e-01,1.92634e-01,9.99999e-01,9.99999e-01,1.92634e-01,9.99999e-01
7.726452574e-01,1.99003e-01,9.99999e-01,9.99999e-01,1.99003e-01,9.99999e-01
7.765084837e-01,2.05452e-01,9.99999e-01,9.99999e-01,2.05452e-01,9.99999e-01
7.803910261e-01,1.98606e-01,9.99999e-01,9.36929e-01,2.11975e-01,9.99999e-01
7.842929812e-01,1.58958e-01,9.99999e-01,7.27259e-01,2.18571e-01,9.99999e-01
7.882144461e-01,1.60880e-01,9.99999e-01,7.14274e-01,2.25236e-01,9.99999e-01
7.921555184e-01,1.89464e-01,9.99999e-01,8.16773e-01,2.31966e-01,9.99999e-01
7.961162960e-01,2.08147e-01,9.99999e-01,8.71788e-01,2.38759e-01,9.99999e-01
8.000968774e-01,2.28012e-01,9.99999e-01,9.28347e-01,2.45610e-01,9.99999e-01
8.040973618e-01,2.42934e-01,9.99999e-01,9.62048e-01,2.52517e-01,9.99999e-01
8.081178486e-01,2.54922e-01,9.99999e-01,9.82452e-01,2.59476e-01,9.99999e-01
8.121584379e-01,2.65020e-01,9.99999e-01,9.94508e-01,2.66483e-01,9.99999e-01
8.162192301e-01,2.73203e-01,9.99999e-01,9.98784e-01,2.73536e-01,9.99999e-01
8.203003262e-01,2.80625e-01,9.99999e-01,9.99979e-01,2.80630e-01,9.99999e-01
8.244018279e-01,2.87763e-01,9.99999e-01,9.99999e-01,2.87763e-01,9.99999e-01
8.285238370e-01,2.94931e-01,9.99999e-01,9.99999e-01,2.94931e-01,9.99999e-01
8.326664562e-01,3.02131e-01,9.99999e-01,9.99999e-01,3.02131e-01,9.99999e-01
8.368297885e-01,3.09359e-01,9.99999e-01,9.99999e-01,3.09359e-01,9.99999e-01
8.410139374e-01,3.16612e-01,9.99999e-01,9.99999e-01,3.16612e-01,9.99999e-01
8.452190071e-01,3.23886e-01,9.99999e-01,9.99999e-01,3.23886e-01,9.99999e-01
8.494451021e-01,3.31180e-01,9.99999e-01,9.99999e-01,3.31180e-01,9.99999e-01
8.536923276e-01,3.38488e-01,9.99999e-01,9.99999e-01,3.38488e-01,9.99999e-01
8.579607893e-01,3.45809e-01,9.99999e-01,9.99999e-01,3.45809e-01,9.99999e-01
8.622505932e-01,3.53139e-01,9.99999e-01,9.99999e-01,3.53139e-01,9.99999e-01
8.665618462e-01,3.21286e-01,9.99999e-01,8.91286e-01,3.60474e-01,9.99999e-01
8.708946554e-01,1.67252e-01,9.99999e-01,4.54719e-01,3.67813e-01,9.99999e-01
8.752491287e-01,1.95758e-01,9.99999e-01,5.21809e-01,3.75152e-01,9.99999e-01
8.796253743e-01,2.65834e-01,9.99999e-01,6.95011e-01,3.82488e-01,9.99999e-01
8.840235012e-01,3.22167e-01,9.99999e-01,8.26453e-01,3.89818e-01,9.99999e-01
8.884436187e-01,3.68198e-01,9.99999e-01,9.27122e-01,3.97140e-01,9.99999e-01
8.928858368e-01,3.92254e-01,9.99999e-01,9.69842e-01,4.04450e-01,9.99999e-01
8.973502660e-01,4.08680e-01,9.99999e-01,9.92549e-01,4.11747e-01,9.99999e-01
9.018370173e-01,4.18682e-01,9.99999e-01,9.99174e-01,4.19028e-01,9.99999e-01
9.063462024e-01,4.17687e-01,9.99999e-01,9.79820e-01,4.26289e-01,9.99999e-01
9.108779334e-01,4.13135e-01,9.99999e-01,9.52956e-01,4.33529e-01,9.99999e-01
9.154323231e-01,4.35748e-01,9.99999e-01,9.88658e-01,4.40746e-01,9.99999e-01
9.200094847e-01,3.85451e-01,9.99999e-01,8.60503e-01,4.47937e-01,9.99999e-01
9.246095321e-01,3.59861e-01,9.99999e-01,7.90730e-01,4.55099e-01,9.99999e-01
9.292325798e-01,3.85864e-01,9.99999e-01,8.34785e-01,4.62231e-01,9.99999e-01
9.338787427e-01,3.93134e-01,9.99999e-01,8.37648e-01,4.69331e-01,9.99999e-01
9.385481364e-01,4.17989e-01,9.99999e-01,8.77398e-01,4.76396e-01,9.99999e-01
9.432408771e-01,4.46011e-01,9.99999e-01,9.22606e-01,4.83425e-01,9.99999e-01
9.479570815e-01,4.70600e-01,9.99999e-01,9.59594e-01,4.90416e-01,9.99999e-01
9.526968669e-01,4.87564e-01,9.99999e-01,9.80290e-01,4.97366e-01,9.99999e-01
9.574603512e-01,4.99997e-01,9.99999e-01,9.91516e-01,5.04275e-01,9.99999e-01
9.622476530e-01,5.09784e-01,9.99999e-01,9.97343e-01,5.11141e-01,9.99999e-01
9.670588912e-01,5.17549e-01,9.99999e-01,9.99201e-01,5.17962e-01,9.99999e-01
9.718941857e-01,5.24706e-01,9.99999e-01,9.99942e-01,5.24736e-01,9.99999e-01
9.767536566e-01,5.31463e-01,9.99999e-01,9.99999e-01,5.31463e-01,9.99999e-01
9.816374249e-01,5.38140e-01,9.99999e-01,9.99999e-01,5.38140e-01,9.99999e-01
9.865456120e-01,5.44767e-01,9.99999e-01,9.99999e-01,5.44767e-01,9.99999e-01
9.914783401e-01,5.51343e-01,9.99999e-01,9.99999e-01,5.51343e-01,9.99999e-01
9.964357318e-01,5.57865e-01,9.99999e-01,9.99999e-01,5.57865e-01,9.99999e-01
1.001417910e+00,5.64333e-01,9.99999e-01,9.99999e-01,5.64333e-01,9.99999e-01
1.006425000e+00,5.70747e-01,9.99999e-01,9.99999e-01,5.70747e-01,9.99999e-01
1.011457125e+00,5.77104e-01,9.99999e-01,9.99999e-01,5.77104e-01,9.99999e-01
1.016514411e+00,5.83405e-01,9.99999e-01,9.99999e-01,5.83405e-01,9.99999e-01
1.021596983e+00,5.89589e-01,9.99999e-01,9.99899e-01,5.89648e-01,9.99999e-01
1.026704968e+00,5.91097e-01,9.99999e-01,9.92052e-01,5.95832e-01,9.99999e-01
1.031838492e+00,5.59228e-01,9.99999e-01,9.29015e-01,6.01958e-01,9.99999e-01
1.036997685e+00,4.60668e-02,9.99999e-01,7.57648e-02,6.08023e-01,9.99999e-01
1.042182673e+00,9.08541e-03,9.99999e-01,1.47964e-02,6.14028e-01,9.99999e-01
1.047393587e+00,1.83731e-02,9.99999e-01,2.96354e-02,6.19972e-01,9.99999e-01
1.052630555e+00,2.12712e-05,9.99999e-01,3.39874e-05,6.25854e-01,9.99999e-01
1.057893707e+00,7.43216e-05,9.99999e-01,1.17658e-04,6.31674e-01,9.99999e-01
1.063183176e+00,7.54572e-04,9.99999e-01,1.18377e-03,6.37432e-01,9.99999e-01
1.068499092e+00,4.65054e-03,9.99999e-01,7.23113e-03,6.43127e-01,9.99999e-01
1.073841587e+00,2.77268e-02,9.99999e-01,4.27382e-02,6.48759e-01,9.99999e-01
1.079210795e+00,8.93722e-02,9.99999e-01,1.36586e-01,6.54328e-01,9.99999e-01
1.084606849e+00,2.15770e-01,9.99999e-01,3.27006e-01,6.59833e-01,9.99999e-01
1.090029883e+00,3.71311e-01,9.99999e-01,5.58132e-01,6.65274e-01,9.99999e-01
1.095480033e+00,5.02661e-01,9.99999e-01,7.49511e-01,6.70651e-01,9.99999e-01
1.100957433e+00,5.88051e-01,9.99999e-01,8.69943e-01,6.75964e-01,9.99999e-01
1.106462220e+00,6.43003e-01,9.99999e-01,9.43907e-01,6.81213e-01,9.99999e-01
1.111994531e+00,6.71859e-01,9.99999e-01,9.78817e-01,6.86398e-01,9.99999e-01
1.117554504e+00,6.87901e-01,9.99999e-01,9.94766e-01,6.91519e-01,9.99999e-01
1.123142276e+00,6.96335e-01,9.99999e-01,9.99653e-01,6.96576e-01,9.99999e-01
1.128757988e+00,7.01569e-01,9.99999e-01,9.99999e-01,7.01569e-01,9.99999e-01
1.134401778e+00,7.06498e-01,9.99999e-01,9.99999e-01,7.06498e-01,9.99999e-01
1.140073787e+00,7.11363e-01,9.99999e-01,9.99999e-01,7.11363e-01,9.99999e-01
1.145774156e+00,7.16164e-01,9.99999e-01,9.99999e-01,7.16164e-01,9.99999e-01
1.151503026e+00,7.20903e-01,9.99999e-01,9.99999e-01,7.20903e-01,9.99999e-01
1.157260541e+00,7.25578e-01,9.99999e-01,9.99999e-01,7.25578e-01,9.99999e-01
1.163046844e+00,7.30190e-01,9.99999e-01,9.99999e-01,7.30190e-01,9.99999e-01
1.168862078e+00,7.34739e-01,9.99999e-01,9.99999e-01,7.34739e-01,9.99999e-01
1.174706389e+00,7.39226e-01,9.99999e-01,9.99999e-01,7.39226e-01,9.99999e-01
1.180579921e+00,7.43651e-01,9.99999e-01,9.99999e-01,7.43651e-01,9.99999e-01
1.186482820e+00,7.48007e-01,9.99999e-01,9.99988e-01,7.48015e-01,9.99999e-01
1.192415234e+00,7.31673e-01,9.99999e-01,9.72558e-01,7.52317e-01,9.99999e-01
1.198377311e+00,4.06446e-01,9.99999e-01,5.37230e-01,7.56558e-01,9.99999e-01
1.204369197e+00,9.81859e-22,9.99999e-01,1.29066e-21,7.60738e-01,9.99999e-01
1.210391043e+00,5.81990e-86,9.99999e-01,7.60911e-86,7.64859e-01,9.99999e-01
1.216442998e+00,1.77606e-74,9.99999e-01,2.30981e-74,7.68919e-01,9.99999e-01
1.222525213e+00,2.27837e-73,9.99999e-01,2.94774e-73,7.72920e-01,9.99999e-01
1.228637839e+00,1.04640e-56,9.99999e-01,1.34696e-56,7.76863e-01,9.99999e-01
1.234781029e+00,1.47114e-35,9.99999e-01,1.88427e-35,7.80747e-01,9.99999e-01
1.240954934e+00,9.83873e-24,9.99999e-01,1.25402e-23,7.84573e-01,9.99999e-01
1.247159708e+00,8.06300e-12,9.99999e-01,1.02278e-11,7.88342e-01,9.99999e-01
1.253395507e+00,5.60158e-08,9.99999e-01,7.07221e-08,7.92054e-01,9.99999e-01
1.259662485e+00,3.70839e-05,9.99999e-01,4.66048e-05,7.95710e-01,9.99999e-01
1.265960797e+00,3.96059e-03,9.99999e-01,4.95501e-03,7.99310e-01,9.99999e-01
1.272290601e+00,6.17250e-02,9.99999e-01,7.68819e-02,8.02854e-01,9.99999e-01
1.278652054e+00,6.53009e-02,9.99999e-01,8.09839e-02,8.06344e-01,9.99999e-01
1.285045314e+00,2.98856e-04,9.99999e-01,3.69058e-04,8.09780e-01,9.99999e-01
1.291470541e+00,1.67466e-10,9.99999e-01,2.05944e-10,8.13161e-01,9.99999e-01
1.297927893e+00,6.31133e-05,9.99999e-01,7.72982e-05,8.16490e-01,9.99999e-01
1.304417533e+00,1.02469e-02,9.99999e-01,1.24998e-02,8.19766e-01,9.99999e-01
1.310939621e+00,2.55505e-03,9.99999e-01,3.10459e-03,8.22991e-01,9.99999e-01
1.317494319e+00,1.32629e-29,9.99999e-01,1.60536e-29,8.26164e-01,9.99999e-01
1.324081790e+00,1.16697e-19,9.99999e-01,1.40720e-19,8.29286e-01,9.99999e-01
1.330702199e+00,1.11243e-11,9.99999e-01,1.33648e-11,8.32358e-01,9.99999e-01
1.337355710e+00,7.01970e-11,9.99999e-01,8.40299e-11,8.35380e-01,9.99999e-01
1.344042489e+00,3.12231e-11,9.99999e-01,3.72434e-11,8.38353e-01,9.99999e-01
1.350762701e+00,5.79147e-12,9.99999e-01,6.88412e-12,8.41278e-01,9.99999e-01
1.357516515e+00,1.37320e-07,9.99999e-01,1.62671e-07,8.44155e-01,9.99999e-01
1.364304097e+00,1.60401e-05,9.99999e-01,1.89379e-05,8.46985e-01,9.99999e-01
1.371125618e+00,3.23483e-03,9.99999e-01,3.80672e-03,8.49768e-01,9.99999e-01
1.377981246e+00,7.39764e-03,9.99999e-01,8.67753e-03,8.52504e-01,9.99999e-01
1.384871152e+00,5.38988e-02,9.99999e-01,6.30250e-02,8.55196e-01,9.99999e-01
1.391795508e+00,6.65850e-02,9.99999e-01,7.76191e-02,8.57842e-01,9.99999e-01
1.398754485e+00,1.74501e-01,9.99999e-01,2.02804e-01,8.60444e-01,9.99999e-01
1.405748258e+00,2.68356e-01,9.99999e-01,3.10956e-01,8.63003e-01,9.99999e-01
1.412776999e+00,4.12091e-01,9.99999e-01,4.76121e-01,8.65518e-01,9.99999e-01
1.419840884e+00,3.79042e-01,9.99999e-01,4.36688e-01,8.67991e-01,9.99999e-01
1.426940089e+00,1.87521e-02,9.99999e-01,2.15437e-02,8.70421e-01,9.99999e-01
1.434074789e+00,0.00000e+00,9.99999e-01,0.00000e+00,8.72811e-01,9.99999e-01
1.441245163e+00,0.00000e+00,9.99999e-01,0.00000e+00,8.75159e-01,9.99999e-01
1.448451389e+00,0.00000e+00,9.99999e-01,0.00000e+00,8.77467e-01,9.99999e-01
1.455693646e+00,0.00000e+00,9.99999e-01,0.00000e+00,8.79736e-01,9.99999e-01
1.462972114e+00,0.00000e+00,9.99999e-01,0.00000e+00,8.81965e-01,9.99999e-01
1.470286975e+00,4.64537e-142,9.99999e-01,5.25402e-142,8.84156e-01,9.99999e-01
