#,Wave/freq,Total,O2,CO2,Rayleigh,CIA
4.000000000e-01,1.11153e-02,9.99999e-01,9.99999e-01,1.11153e-02,9.99999e-01
4.020000000e-01,1.21495e-02,9.99999e-01,9.99999e-01,1.21495e-02,9.99999e-01
4.040100000e-01,1.32554e-02,9.99999e-01,9.99999e-01,1.32554e-02,9.99999e-01
4.060300500e-01,1.44372e-02,9.99999e-01,9.99999e-01,1.44372e-02,9.99999e-01
4.080602003e-01,1.56977e-02,9.99999e-01,9.99999e-01,1.56977e-02,9.99999e-01
4.101005013e-01,1.70401e-02,9.99999e-01,9.99999e-01,1.70401e-02,9.99999e-01
4.121510038e-01,1.84674e-02,9.99999e-01,9.99999e-01,1.84674e-02,9.99999e-01
4.142117588e-01,1.99825e-02,9.99999e-01,9.99999e-01,1.99825e-02,9.99999e-01
4.162828176e-01,2.15881e-02,9.99999e-01,9.99999e-01,2.15881e-02,9.99999e-01
4.183642317e-01,2.32873e-02,9.99999e-01,9.99999e-01,2.32873e-02,9.99999e-01
4.204560528e-01,2.50826e-02,9.99999e-01,9.99999e-01,2.50826e-02,9.99999e-01
4.225583331e-01,2.69767e-02,9.99999e-01,9.99999e-01,2.69767e-02,9.99999e-01
4.246711247e-01,2.89721e-02,9.99999e-01,9.99999e-01,2.89721e-02,9.99999e-01
4.267944804e-01,3.10713e-02,9.99999e-01,9.99999e-01,3.10713e-02,9.99999e-01
4.289284528e-01,3.32766e-02,9.99999e-01,9.99999e-01,3.32766e-02,9.99999e-01
4.310730950e-01,3.55902e-02,9.99999e-01,9.99999e-01,3.55902e-02,9.99999e-01
4.332284605e-01,3.80142e-02,9.99999e-01,9.99999e-01,3.80142e-02,9.99999e-01
4.353946028e-01,4.05504e-02,9.99999e-01,9.99999e-01,4.05504e-02,9.99999e-01
4.375715758e-01,4.32007e-02,9.99999e-01,9.99999e-01,4.32007e-02,9.99999e-01
4.397594337e-01,4.59667e-02,9.99999e-01,9.99999e-01,4.59667e-02,9.99999e-01
4.419582309e-01,4.88499e-02,9.99999e-01,9.99999e-01,4.88499e-02,9.99999e-01
4.441680220e-01,5.18515e-02,9.99999e-01,9.99999e-01,5.18515e-02,9.99999e-01
4.463888621e-01,5.49728e-02,9.99999e-01,9.99999e-01,5.49728e-02,9.99999e-01
4.486208064e-01,5.82148e-02,9.99999e-01,9.99999e-01,5.82148e-02,9.99999e-01
4.508639105e-01,6.15782e-02,9.99999e-01,9.99999e-01,6.15782e-02,9.99999e-01
4.531182300e-01,6.50637e-02,9.99999e-01,9.99999e-01,6.50637e-02,9.99999e-01
4.553838212e-01,6.86718e-02,9.99999e-01,9.99999e-01,6.86718e-02,9.99999e-01
4.576607403e-01,7.24027e-02,9.99999e-01,9.99999e-01,7.24027e-02,9.99999e-01
4.599490440e-01,7.62566e-02,9.99999e-01,9.99999e-01,7.62566e-02,9.99999e-01
4.622487892e-01,8.02334e-02,9.99999e-01,9.99999e-01,8.02334e-02,9.99999e-01
4.645600332e-01,8.43329e-02,9.99999e-01,9.99999e-01,8.43329e-02,9.99999e-01
4.668828333e-01,8.85546e-02,9.99999e-01,9.99999e-01,8.85546e-02,9.99999e-01
4.692172475e-01,9.28980e-02,9.99999e-01,9.99999e-01,9.28980e-02,9.99999e-01
4.715633337e-01,9.73623e-02,9.99999e-01,9.99999e-01,9.73623e-02,9.99999e-01
4.739211504e-01,1.01947e-01,9.99999e-01,9.99999e-01,1.01947e-01,9.99999e-01
4.762907561e-01,1.06650e-01,9.99999e-01,9.99999e-01,1.06650e-01,9.99999e-01
4.786722099e-01,1.11470e-01,9.99999e-01,9.99999e-01,1.11470e-01,9.99999e-01
4.810655710e-01,1.16407e-01,9.99999e-01,9.99999e-01,1.16407e-01,9.99999e-01
4.834708988e-01,1.21459e-01,9.99999e-01,9.99999e-01,1.21459e-01,9.99999e-01
4.858882533e-01,1.26624e-01,9.99999e-01,9.99999e-01,1.26624e-01,9.99999e-01
4.883176946e-01,1.31899e-01,9.99999e-01,9.99999e-01,1.31899e-01,9.99999e-01
4.907592831e-01,1.37284e-01,9.99999e-01,9.99999e-01,1.37284e-01,9.99999e-01
4.932130795e-01,1.42776e-01,9.99999e-01,9.99999e-01,1.42776e-01,9.99999e-01
4.956791449e-01,1.48372e-01,9.99999e-01,9.99999e-01,1.48372e-01,9.99999e-01
4.981575406e-01,1.54070e-01,9.99999e-01,9.99999e-01,1.54070e-01,9.99999e-01
5.006483283e-01,1.59869e-01,9.99999e-01,9.99999e-01,1.59869e-01,9.99999e-01
5.031515699e-01,1.65764e-01,9.99999e-01,9.99999e-01,1.65764e-01,9.99999e-01
5.056673278e-01,1.71755e-01,9.99999e-01,9.99999e-01,1.71755e-01,9.99999e-01
5.081956644e-01,1.77837e-01,9.99999e-01,9.99999e-01,1.77837e-01,9.99999e-01
5.107366428e-01,1.84007e-01,9.99999e-01,9.99999e-01,1.84007e-01,9.99999e-01
5.132903260e-01,1.90264e-01,9.99999e-01,9.99999e-01,1.90264e-01,9.99999e-01
5.158567776e-01,1.96603e-01,9.99999e-01,9.99999e-01,1.96603e-01,9.99999e-01
5.184360615e-01,2.03022e-01,9.99999e-01,9.99999e-01,2.03022e-01,9.99999e-01
5.210282418e-01,2.09518e-01,9.99999e-01,9.99999e-01,2.09518e-01,9.99999e-01
5.236333830e-01,2.16087e-01,9.99999e-01,9.99999e-01,2.16087e-01,9.99999e-01
5.262515499e-01,2.22727e-01,9.99999e-01,9.99999e-01,2.22727e-01,9.99999e-01
5.288828077e-01,2.29433e-01,9.99999e-01,9.99999e-01,2.29433e-01,9.99999e-01
5.315272217e-01,2.36202e-01,9.99999e-01,9.99999e-01,2.36202e-01,9.99999e-01
5.341848578e-01,2.43032e-01,9.99999e-01,9.99999e-01,2.43032e-01,9.99999e-01
5.368557821e-01,2.49918e-01,9.99999e-01,9.99999e-01,2.49918e-01,9.99999e-01
5.395400610e-01,2.56858e-01,9.99999e-01,9.99999e-01,2.56858e-01,9.99999e-01
5.422377613e-01,2.63847e-01,9.99999e-01,9.99999e-01,2.63847e-01,9.99999e-01
5.449489501e-01,2.70883e-01,9.99999e-01,9.99999e-01,2.70883e-01,9.99999e-01
5.476736949e-01,2.77963e-01,9.99999e-01,9.99999e-01,2.77963e-01,9.99999e-01
5.504120634e-01,2.85081e-01,9.99999e-01,9.99999e-01,2.85081e-01,9.99999e-01
5.531641237e-01,2.92237e-01,9.99999e-01,9.99999e-01,2.92237e-01,9.99999e-01
5.559299443e-01,2.99425e-01,9.99999e-01,9.99999e-01,2.99425e-01,9.99999e-01
5.587095940e-01,3.06642e-01,9.99999e-01,9.99999e-01,3.06642e-01,9.99999e-01
5.615031420e-01,3.13886e-01,9.99999e-01,9.99999e-01,3.13886e-01,9.99999e-01
5.643106577e-01,3.21153e-01,9.99999e-01,9.99999e-01,3.21153e-01,9.99999e-01
5.671322110e-01,3.28440e-01,9.99999e-01,9.99999e-01,3.28440e-01,9.99999e-01
5.699678720e-01,3.35743e-01,9.99999e-01,9.99999e-01,3.35743e-01,9.99999e-01
5.728177114e-01,3.43060e-01,9.99999e-01,9.99999e-01,3.43060e-01,9.99999e-01
5.756818000e-01,3.50387e-01,9.99999e-01,9.99999e-01,3.50387e-01,9.99999e-01
5.785602090e-01,3.57720e-01,9.99999e-01,9.99999e-01,3.57720e-01,9.99999e-01
5.814530100e-01,3.65058e-01,9.99999e-01,9.99999e-01,3.65058e-01,9.99999e-01
5.843602750e-01,3.72398e-01,9.99999e-01,9.99999e-01,3.72398e-01,9.99999e-01
5.872820764e-01,3.79735e-01,9.99999e-01,9.99999e-01,3.79735e-01,9.99999e-01
5.902184868e-01,3.87068e-01,9.99999e-01,9.99999e-01,3.87068e-01,9.99999e-01
5.931695792e-01,3.94393e-01,9.99999e-01,9.99999e-01,3.94393e-01,9.99999e-01
5.961354271e-01,4.01708e-01,9.99999e-01,9.99999e-01,4.01708e-01,9.99999e-01
5.991161043e-01,4.09010e-01,9.99999e-01,9.99999e-01,4.09010e-01,9.99999e-01
6.021116848e-01,4.16297e-01,9.99999e-01,9.99999e-01,4.16297e-01,9.99999e-01
6.051222432e-01,4.23566e-01,9.99999e-01,9.99999e-01,4.23566e-01,9.99999e-01
6.081478544e-01,4.30814e-01,9.99999e-01,9.99999e-01,4.30814e-01,9.99999e-01
6.111885937e-01,4.38040e-01,9.99999e-01,9.99999e-01,4.38040e-01,9.99999e-01
6.142445367e-01,4.45241e-01,9.99999e-01,9.99999e-01,4.45241e-01,9.99999e-01
6.173157594e-01,4.52414e-01,9.99999e-01,9.99999e-01,4.52414e-01,9.99999e-01
6.204023382e-01,4.59558e-01,9.99999e-01,9.99999e-01,4.59558e-01,9.99999e-01
6.235043498e-01,4.66670e-01,9.99999e-01,9.99999e-01,4.66670e-01,9.99999e-01
6.266218716e-01,4.73748e-01,9.99999e-01,9.99999e-01,4.73748e-01,9.99999e-01
6.297549810e-01,4.80791e-01,9.99999e-01,9.99999e-01,4.80791e-01,9.99999e-01
6.329037559e-01,4.87796e-01,9.99999e-01,9.99999e-01,4.87796e-01,9.99999e-01
6.360682746e-01,4.94762e-01,9.99999e-01,9.99999e-01,4.94762e-01,9.99999e-01
6.392486160e-01,5.01687e-01,9.99999e-01,9.99999e-01,5.01687e-01,9.99999e-01
6.424448591e-01,5.08569e-01,9.99999e-01,9.99999e-01,5.08569e-01,9.99999e-01
6.456570834e-01,5.15407e-01,9.99999e-01,9.99999e-01,5.15407e-01,9.99999e-01
6.488853688e-01,5.22199e-01,9.99999e-01,9.99999e-01,5.22199e-01,9.99999e-01
6.521297956e-01,5.28944e-01,9.99999e-01,9.99999e-01,5.28944e-01,9.99999e-01
6.553904446e-01,5.35640e-01,9.99999e-01,9.99999e-01,5.35640e-01,9.99999e-01
6.586673968e-01,5.42286e-01,9.99999e-01,9.99999e-01,5.42286e-01,9.99999e-01
6.619607338e-01,5.48881e-01,9.99999e-01,9.99999e-01,5.48881e-01,9.99999e-01
6.652705375e-01,5.55423e-01,9.99999e-01,9.99999e-01,5.55423e-01,9.99999e-01
6.685968902e-01,5.61912e-01,9.99999e-01,9.99999e-01,5.61912e-01,9.99999e-01
6.719398746e-01,5.68346e-01,9.99999e-01,9.99999e-01,5.68346e-01,9.99999e-01
6.752995740e-01,5.74725e-01,9.99999e-01,9.99999e-01,5.74725e-01,9.99999e-01
6.786760719e-01,5.81047e-01,9.99999e-01,9.99999e-01,5.81047e-01,9.99999e-01
6.820694522e-01,5.87311e-01,9.99999e-01,9.99999e-01,5.87311e-01,9.99999e-01
6.854797995e-01,5.93518e-01,9.99999e-01,9.99999e-01,5.93518e-01,9.99999e-01
6.889071985e-01,5.99666e-01,9.99999e-01,9.99999e-01,5.99666e-01,9.99999e-01
6.923517345e-01,6.05754e-01,9.99999e-01,9.99999e-01,6.05754e-01,9.99999e-01
6.958134932e-01,6.11781e-01,9.99999e-01,9.99999e-01,6.11781e-01,9.99999e-01
6.992925606e-01,6.17748e-01,9.99999e-01,9.99999e-01,6.17748e-01,9.99999e-01
7.027890234e-01,6.23654e-01,9.99999e-01,9.99999e-01,6.23654e-01,9.99999e-01
7.063029686e-01,6.29497e-01,9.99999e-01,9.99999e-01,6.29497e-01,9.99999e-01
7.098344834e-01,6.35278e-01,9.99999e-01,9.99999e-01,6.35278e-01,9.99999e-01
7.133836558e-01,6.40997e-01,9.99999e-01,9.99999e-01,6.40997e-01,9.99999e-01
7.169505741e-01,6.46653e-01,9.99999e-01,9.99999e-01,6.46653e-01,9.99999e-01
7.205353270e-01,6.52245e-01,9.99999e-01,9.99999e-01,6.52245e-01,9.99999e-01
7.241380036e-01,6.57774e-01,9.99999e-01,9.99999e-01,6.57774e-01,9.99999e-01
7.277586936e-01,6.63239e-01,9.99999e-01,9.99999e-01,6.63239e-01,9.99999e-01
7.313974871e-01,6.68640e-01,9.99999e-01,9.99999e-01,6.68640e-01,9.99999e-01
7.350544745e-01,6.73978e-01,9.99999e-01,9.99999e-01,6.73978e-01,9.99999e-01
7.387297469e-01,6.79251e-01,9.99999e-01,9.99999e-01,6.79251e-01,9.99999e-01
7.424233956e-01,6.84460e-01,9.99999e-01,9.99999e-01,6.84460e-01,9.99999e-01
7.461355126e-01,6.89605e-01,9.99999e-01,9.99999e-01,6.89605e-01,9.99999e-01
7.498661902e-01,6.94685e-01,9.99999e-01,9.99999e-01,6.94685e-01,9.99999e-01
7.536155211e-01,6.99702e-01,9.99999e-01,9.99999e-01,6.99702e-01,9.99999e-01
7.573835987e-01,7.04655e-01,9.99999e-01,9.99999e-01,7.04655e-01,9.99999e-01
7.611705167e-01,7.09544e-01,9.99999e-01,9.99999e-01,7.09544e-01,9.99999e-01
7.649763693e-01,7.14370e-01,9.99999e-01,9.99999e-01,7.14370e-01,9.99999e-01
7.688012511e-01,7.19132e-01,9.99999e-01,9.99999e-01,7.19132e-01,9.99999e-01
7.726452574e-01,7.23830e-01,9.99999e-01,9.99999e-01,7.23830e-01,9.99999e-01
7.765084837e-01,7.28466e-01,9.99999e-01,9.99999e-01,7.28466e-01,9.99999e-01
7.803910261e-01,7.21868e-01,9.99999e-01,9.84760e-01,7.33039e-01,9.99999e-01
7.842929812e-01,6.89723e-01,9.99999e-01,9.35154e-01,7.37549e-01,9.99999e-01
7.882144461e-01,6.90577e-01,9.99999e-01,9.30699e-01,7.41998e-01,9.99999e-01
7.921555184e-01,7.16294e-01,9.99999e-01,9.59685e-01,7.46384e-01,9.99999e-01
7.961162960e-01,7.30296e-01,9.99999e-01,9.72807e-01,7.50709e-01,9.99999e-01
8.000968774e-01,7.43794e-01,9.99999e-01,9.85191e-01,7.54973e-01,9.99999e-01
8.040973618e-01,7.53323e-01,9.99999e-01,9.92290e-01,7.59176e-01,9.99999e-01
8.081178486e-01,7.60620e-01,9.99999e-01,9.96463e-01,7.63319e-01,9.99999e-01
8.121584379e-01,7.66559e-01,9.99999e-01,9.98901e-01,7.67402e-01,9.99999e-01
8.162192301e-01,7.71238e-01,9.99999e-01,9.99757e-01,7.71425e-01,9.99999e-01
8.203003262e-01,7.75387e-01,9.99999e-01,9.99995e-01,7.75390e-01,9.99999e-01
8.244018279e-01,7.79296e-01,9.99999e-01,9.99999e-01,7.79296e-01,9.99999e-01
8.285238370e-01,7.83144e-01,9.99999e-01,9.99999e-01,7.83144e-01,9.99999e-01
8.326664562e-01,7.86934e-01,9.99999e-01,9.99999e-01,7.86934e-01,9.99999e-01
8.368297885e-01,7.90668e-01,9.99999e-01,9.99999e-01,7.90668e-01,9.99999e-01
8.410139374e-01,7.94344e-01,9.99999e-01,9.99999e-01,7.94344e-01,9.99999e-01
8.452190071e-01,7.97965e-01,9.99999e-01,9.99999e-01,7.97965e-01,9.99999e-01
8.494451021e-01,8.01530e-01,9.99999e-01,9.99999e-01,8.01530e-01,9.99999e-01
8.536923276e-01,8.05040e-01,9.99999e-01,9.99999e-01,8.05040e-01,9.99999e-01
8.579607893e-01,8.08496e-01,9.99999e-01,9.99999e-01,8.08496e-01,9.99999e-01
8.622505932e-01,8.11898e-01,9.99999e-01,9.99999e-01,8.11898e-01,9.99999e-01
8.665618462e-01,7.81518e-01,9.99999e-01,9.58627e-01,8.15247e-01,9.99999e-01
8.708946554e-01,6.88629e-01,9.99999e-01,8.41285e-01,8.18543e-01,9.99999e-01
8.752491287e-01,7.16239e-01,9.99999e-01,8.71562e-01,8.21787e-01,9.99999e-01
8.796253743e-01,7.65633e-01,9.99999e-01,9.28062e-01,8.24979e-01,9.99999e-01
8.840235012e-01,7.96860e-01,9.99999e-01,9.62251e-01,8.28120e-01,9.99999e-01
8.884436187e-01,8.18702e-01,9.99999e-01,9.84950e-01,8.31211e-01,9.99999e-01
8.928858368e-01,8.29155e-01,9.99999e-01,9.93890e-01,8.34251e-01,9.99999e-01
8.973502660e-01,8.35995e-01,9.99999e-01,9.98508e-01,8.37243e-01,9.99999e-01
9.018370173e-01,8.40048e-01,9.99999e-01,9.99835e-01,8.40186e-01,9.99999e-01
9.063462024e-01,8.39568e-01,9.99999e-01,9.95832e-01,8.43081e-01,9.99999e-01
9.108779334e-01,8.37792e-01,9.99999e-01,9.90381e-01,8.45928e-01,9.99999e-01
9.154323231e-01,8.46797e-01,9.99999e-01,9.97723e-01,8.48728e-01,9.99999e-01
9.200094847e-01,8.23038e-01,9.99999e-01,9.66593e-01,8.51483e-01,9.99999e-01
9.246095321e-01,8.14668e-01,9.99999e-01,9.53730e-01,8.54191e-01,9.99999e-01
9.292325798e-01,8.25630e-01,9.99999e-01,9.63558e-01,8.56854e-01,9.99999e-01
9.338787427e-01,8.29124e-01,9.99999e-01,9.64688e-01,8.59473e-01,9.99999e-01
9.385481364e-01,8.39638e-01,9.99999e-01,9.74003e-01,8.62048e-01,9.99999e-01
9.432408771e-01,8.50750e-01,9.99999e-01,9.84004e-01,8.64579e-01,9.99999e-01
9.479570815e-01,8.59938e-01,9.99999e-01,9.91776e-01,8.67067e-01,9.99999e-01
9.526968669e-01,8.66056e-01,9.99999e-01,9.96022e-01,8.69514e-01,9.99999e-01
9.574603512e-01,8.70434e-01,9.99999e-01,9.98297e-01,8.71919e-01,9.99999e-01
9.622476530e-01,8.73818e-01,9.99999e-01,9.99468e-01,8.74282e-01,9.99999e-01
9.670588912e-01,8.76466e-01,9.99999e-01,9.99840e-01,8.76605e-01,9.99999e-01
9.718941857e-01,8.78879e-01,9.99999e-01,9.99988e-01,8.78889e-01,9.99999e-01
9.767536566e-01,8.81133e-01,9.99999e-01,9.99999e-01,8.81133e-01,9.99999e-01
9.816374249e-01,8.83338e-01,9.99999e-01,9.99999e-01,8.83338e-01,9.99999e-01
9.865456120e-01,8.85505e-01,9.99999e-01,9.99999e-01,8.85505e-01,9.99999e-01
9.914783401e-01,8.87634e-01,9.99999e-01,9.99999e-01,8.87634e-01,9.99999e-01
9.964357318e-01,8.89727e-01,9.99999e-01,9.99999e-01,8.89727e-01,9.99999e-01
1.001417910e+00,8.91782e-01,9.99999e-01,9.99999e-01,8.91782e-01,9.99999e-01
1.006425000e+00,8.93802e-01,9.99999e-01,9.99999e-01,8.93802e-01,9.99999e-01
1.011457125e+00,8.95787e-01,9.99999e-01,9.99999e-01,8.95787e-01,9.99999e-01
1.016514411e+00,8.97736e-01,9.99999e-01,9.99999e-01,8.97736e-01,9.99999e-01
1.021596983e+00,8.99632e-01,9.99999e-01,9.99978e-01,8.99651e-01,9.99999e-01
1.026704968e+00,9.00075e-01,9.99999e-01,9.98383e-01,9.01532e-01,9.99999e-01
1.031838492e+00,8.82072e-01,9.99999e-01,9.76412e-01,9.03380e-01,9.99999e-01
1.036997685e+00,2.83415e-01,9.99999e-01,3.13098e-01,9.05195e-01,9.99999e-01
1.042182673e+00,3.43228e-01,9.99999e-01,3.78430e-01,9.06977e-01,9.99999e-01
1.047393587e+00,3.15118e-01,9.99999e-01,3.46768e-01,9.08728e-01,9.99999e-01
1.052630555e+00,5.61845e-02,9.99999e-01,6.17108e-02,9.10448e-01,9.99999e-01
1.057893707e+00,1.01658e-01,9.99999e-01,1.11450e-01,9.12137e-01,9.99999e-01
1.063183176e+00,1.87277e-01,9.99999e-01,2.04944e-01,9.13795e-01,9.99999e-01
1.068499092e+00,3.19905e-01,9.99999e-01,3.49461e-01,9.15424e-01,9.99999e-01
1.073841587e+00,4.72049e-01,9.99999e-01,5.14762e-01,9.17023e-01,9.99999e-01
1.079210795e+00,6.04590e-01,9.99999e-01,6.58169e-01,9.18593e-01,9.99999e-01
1.084606849e+00,7.32344e-01,9.99999e-01,7.95908e-01,9.20135e-01,9.99999e-01
1.090029883e+00,8.19024e-01,9.99999e-01,8.88650e-01,9.21649e-01,9.99999e-01
1.095480033e+00,8.70989e-01,9.99999e-01,9.43511e-01,9.23136e-01,9.99999e-01
1.100957433e+00,8.99100e-01,9.99999e-01,9.72424e-01,9.24595e-01,9.99999e-01
1.106462220e+00,9.15381e-01,9.99999e-01,9.88501e-01,9.26028e-01,9.99999e-01
1.111994531e+00,9.23470e-01,9.99999e-01,9.95724e-01,9.27435e-01,9.99999e-01
1.117554504e+00,9.27843e-01,9.99999e-01,9.98952e-01,9.28816e-01,9.99999e-01
1.123142276e+00,9.30108e-01,9.99999e-01,9.99930e-01,9.30172e-01,9.99999e-01
1.128757988e+00,9.31503e-01,9.99999e-01,9.99999e-01,9.31503e-01,9.99999e-01
1.134401778e+00,9.32809e-01,9.99999e-01,9.99999e-01,9.32809e-01,9.99999e-01
1.140073787e+00,9.34091e-01,9.99999e-01,9.99999e-01,9.34091e-01,9.99999e-01
1.145774156e+00,9.35350e-01,9.99999e-01,9.99999e-01,9.35350e-01,9.99999e-01
1.151503026e+00,9.36586e-01,9.99999e-01,9.99999e-01,9.36586e-01,9.99999e-01
1.157260541e+00,9.37799e-01,9.99999e-01,9.99999e-01,9.37799e-01,9.99999e-01
1.163046844e+00,9.38989e-01,9.99999e-01,9.99999e-01,9.38989e-01,9.99999e-01
1.168862078e+00,9.40157e-01,9.99999e-01,9.99999e-01,9.40157e-01,9.99999e-01
1.174706389e+00,9.41304e-01,9.99999e-01,9.99999e-01,9.41304e-01,9.99999e-01
1.180579921e+00,9.42429e-01,9.99999e-01,9.99999e-01,9.42429e-01,9.99999e-01
1.186482820e+00,9.43531e-01,9.99999e-01,9.99997e-01,9.43534e-01,9.99999e-01
1.192415234e+00,9.39140e-01,9.99999e-01,9.94200e-01,9.44617e-01,9.99999e-01
1.198377311e+00,5.59985e-01,9.99999e-01,5.92150e-01,9.45681e-01,9.99999e-01
1.204369197e+00,3.79390e-06,9.99999e-01,4.00739e-06,9.46725e-01,9.99999e-01
1.210391043e+00,5.19968e-19,9.99999e-01,5.48634e-19,9.47749e-01,9.99999e-01
1.216442998e+00,1.05800e-16,9.99999e-01,1.11514e-16,9.48754e-01,9.99999e-01
1.222525213e+00,1.87867e-16,9.99999e-01,1.97809e-16,9.49741e-01,9.99999e-01
1.228637839e+00,1.24328e-12,9.99999e-01,1.30773e-12,9.50709e-01,9.99999e-01
1.234781029e+00,6.97169e-09,9.99999e-01,7.32583e-09,9.51658e-01,9.99999e-01
1.240954934e+00,4.74162e-06,9.99999e-01,4.97761e-06,9.52590e-01,9.99999e-01
1.247159708e+00,1.02710e-03,9.99999e-01,1.07718e-03,9.53504e-01,9.99999e-01
1.253395507e+00,2.25862e-02,9.99999e-01,2.36653e-02,9.54402e-01,9.99999e-01
1.259662485e+00,1.14625e-01,9.99999e-01,1.19991e-01,9.55282e-01,9.99999e-01
1.265960797e+00,2.79423e-01,9.99999e-01,2.92239e-01,9.56145e-01,9.99999e-01
1.272290601e+00,5.56056e-01,9.99999e-01,5.81044e-01,9.56993e-01,9.99999e-01
1.278652054e+00,5.18693e-01,9.99999e-01,5.41532e-01,9.57824e-01,9.99999e-01
1.285045314e+00,5.06595e-02,9.99999e-01,5.28451e-02,9.58640e-01,9.99999e-01
1.291470541e+00,6.55147e-03,9.99999e-01,6.82843e-03,9.59440e-01,9.99999e-01
1.297927893e+00,5.59447e-02,9.99999e-01,5.82620e-02,9.60225e-01,9.99999e-01
1.304417533e+00,3.86652e-01,9.99999e-01,4.02345e-01,9.60995e-01,9.99999e-01
1.310939621e+00,1.14866e-01,9.99999e-01,1.19434e-01,9.61750e-01,9.99999e-01
1.317494319e+00,5.91857e-07,9.99999e-01,6.14922e-07,9.62492e-01,9.99999e-01
1.324081790e+00,3.25376e-05,9.99999e-01,3.37801e-05,9.63219e-01,9.99999e-01
1.330702199e+00,4.36021e-03,9.99999e-01,4.52335e-03,9.63932e-01,9.99999e-01
1.337355710e+00,2.97295e-03,9.99999e-01,3.08196e-03,9.64631e-01,9.99999e-01
1.344042489e+00,1.12023e-03,9.99999e-01,1.16047e-03,9.65318e-01,9.99999e-01
1.350762701e+00,3.44348e-03,9.99999e-01,3.56471e-03,9.65991e-01,9.99999e-01
1.357516515e+00,2.32408e-02,9.99999e-01,2.40426e-02,9.66651e-01,9.99999e-01
1.364304097e+00,9.65777e-02,9.99999e-01,9.98425e-02,9.67299e-01,9.99999e-01
1.371125618e+00,2.85061e-01,9.99999e-01,2.94505e-01,9.67935e-01,9.99999e-01
1.377981246e+00,3.66963e-01,9.99999e-01,3.78875e-01,9.68558e-01,9.99999e-01
1.384871152e+00,5.50605e-01,9.99999e-01,5.68120e-01,9.69169e-01,9.99999e-01
1.391795508e+00,5.75386e-01,9.99999e-01,5.93322e-01,9.69769e-01,9.99999e-01
1.398754485e+00,7.04181e-01,9.99999e-01,7.25692e-01,9.70357e-01,9.99999e-01
1.405748258e+00,7.66123e-01,9.99999e-01,7.89057e-01,9.70934e-01,9.99999e-01
1.412776999e+00,8.36736e-01,9.99999e-01,8.61282e-01,9.71500e-01,9.99999e-01
1.419840884e+00,7.81685e-01,9.99999e-01,8.04157e-01,9.72055e-01,9.99999e-01
1.426940089e+00,1.09451e-01,9.99999e-01,1.12535e-01,9.72599e-01,9.99999e-01
1.434074789e+00,1.62910e-264,9.99999e-01,1.67407e-264,9.73133e-01,9.99999e-01
1.441245163e+00,0.00000e+00,9.99999e-01,0.00000e+00,9.73657e-01,9.99999e-01
1.448451389e+00,1.12746e-320,9.99999e-01,1.15710e-320,9.74170e-01,9.99999e-01
1.455693646e+00,1.05665e-143,9.99999e-01,1.08411e-143,9.74674e-01,9.99999e-01
1.462972114e+00,2.77338e-70,9.99999e-01,2.84400e-70,9.75168e-01,9.99999e-01
1.470286975e+00,3.05613e-30,9.99999e-01,3.13239e-30,9.75652e-01,9.99999e-01
