#,Wave/freq,Total,O2,CO2,Rayleigh,CIA
4.000000000e-01,1.78547e-17,9.99999e-01,9.99999e-01,1.78547e-17,9.99999e-01
4.020000000e-01,3.82740e-17,9.99999e-01,9.99999e-01,3.82740e-17,9.99999e-01
4.040100000e-01,8.07574e-17,9.99999e-01,9.99999e-01,8.07574e-17,9.99999e-01
4.060300500e-01,1.67902e-16,9.99999e-01,9.99999e-01,1.67902e-16,9.99999e-01
4.080602003e-01,3.44072e-16,9.99999e-01,9.99999e-01,3.44072e-16,9.99999e-01
4.101005013e-01,6.95167e-16,9.99999e-01,9.99999e-01,6.95167e-16,9.99999e-01
4.121510038e-01,1.38515e-15,9.99999e-01,9.99999e-01,1.38515e-15,9.99999e-01
4.142117588e-01,2.72263e-15,9.99999e-01,9.99999e-01,2.72263e-15,9.99999e-01
4.162828176e-01,5.28060e-15,9.99999e-01,9.99999e-01,5.28060e-15,9.99999e-01
4.183642317e-01,1.01087e-14,9.99999e-01,9.99999e-01,1.01087e-14,9.99999e-01
4.204560528e-01,1.91046e-14,9.99999e-01,9.99999e-01,1.91046e-14,9.99999e-01
4.225583331e-01,3.56549e-14,9.99999e-01,9.99999e-01,3.56549e-14,9.99999e-01
4.246711247e-01,6.57276e-14,9.99999e-01,9.99999e-01,6.57276e-14,9.99999e-01
4.267944804e-01,1.19710e-13,9.99999e-01,9.99999e-01,1.19710e-13,9.99999e-01
4.289284528e-01,2.15461e-13,9.99999e-01,9.99999e-01,2.15461e-13,9.99999e-01
4.310730950e-01,3.83324e-13,9.99999e-01,9.99999e-01,3.83324e-13,9.99999e-01
4.332284605e-01,6.74251e-13,9.99999e-01,9.99999e-01,6.74251e-13,9.99999e-01
4.353946028e-01,1.17282e-12,9.99999e-01,9.99999e-01,1.17282e-12,9.99999e-01
4.375715758e-01,2.01788e-12,9.99999e-01,9.99999e-01,2.01788e-12,9.99999e-01
4.397594337e-01,3.43480e-12,9.99999e-01,9.99999e-01,3.43480e-12,9.99999e-01
4.419582309e-01,5.78557e-12,9.99999e-01,9.99999e-01,5.78557e-12,9.99999e-01
4.441680220e-01,9.64535e-12,9.99999e-01,9.99999e-01,9.64535e-12,9.99999e-01
4.463888621e-01,1.59186e-11,9.99999e-01,9.99999e-01,1.59186e-11,9.99999e-01
4.486208064e-01,2.60132e-11,9.99999e-01,9.99999e-01,2.60132e-11,9.99999e-01
4.508639105e-01,4.20988e-11,9.99999e-01,9.99999e-01,4.20988e-11,9.99999e-01
4.531182300e-01,6.74864e-11,9.99999e-01,9.99999e-01,6.74864e-11,9.99999e-01
4.553838212e-01,1.07180e-10,9.99999e-01,9.99999e-01,1.07180e-10,9.99999e-01
4.576607403e-01,1.68673e-10,9.99999e-01,9.99999e-01,1.68673e-10,9.99999e-01
4.599490440e-01,2.63078e-10,9.99999e-01,9.99999e-01,2.63078e-10,9.99999e-01
4.622487892e-01,4.06735e-10,9.99999e-01,9.99999e-01,4.06735e-10,9.99999e-01
4.645600332e-01,6.23449e-10,9.99999e-01,9.99999e-01,6.23449e-10,9.99999e-01
4.668828333e-01,9.47603e-10,9.99999e-01,9.99999e-01,9.47603e-10,9.99999e-01
4.692172475e-01,1.42844e-09,9.99999e-01,9.99999e-01,1.42844e-09,9.99999e-01
4.715633337e-01,2.13587e-09,9.99999e-01,9.99999e-01,2.13587e-09,9.99999e-01
4.739211504e-01,3.16837e-09,9.99999e-01,9.99999e-01,3.16837e-09,9.99999e-01
4.762907561e-01,4.66354e-09,9.99999e-01,9.99999e-01,4.66354e-09,9.99999e-01
4.786722099e-01,6.81207e-09,9.99999e-01,9.99999e-01,6.81207e-09,9.99999e-01
4.810655710e-01,9.87626e-09,9.99999e-01,9.99999e-01,9.87626e-09,9.99999e-01
4.834708988e-01,1.42141e-08,9.99999e-01,9.99999e-01,1.42141e-08,9.99999e-01
4.858882533e-01,2.03106e-08,9.99999e-01,9.99999e-01,2.03106e-08,9.99999e-01
4.883176946e-01,2.88180e-08,9.99999e-01,9.99999e-01,2.88180e-08,9.99999e-01
4.907592831e-01,4.06073e-08,9.99999e-01,9.99999e-01,4.06073e-08,9.99999e-01
4.932130795e-01,5.68332e-08,9.99999e-01,9.99999e-01,5.68332e-08,9.99999e-01
4.956791449e-01,7.90164e-08,9.99999e-01,9.99999e-01,7.90164e-08,9.99999e-01
4.981575406e-01,1.09145e-07,9.99999e-01,9.99999e-01,1.09145e-07,9.99999e-01
5.006483283e-01,1.49803e-07,9.99999e-01,9.99999e-01,1.49803e-07,9.99999e-01
5.031515699e-01,2.04325e-07,9.99999e-01,9.99999e-01,2.04325e-07,9.99999e-01
5.056673278e-01,2.76987e-07,9.99999e-01,9.99999e-01,2.76987e-07,9.99999e-01
5.081956644e-01,3.73239e-07,9.99999e-01,9.99999e-01,3.73239e-07,9.99999e-01
5.107366428e-01,4.99984e-07,9.99999e-01,9.99999e-01,4.99984e-07,9.99999e-01
5.132903260e-01,6.65913e-07,9.99999e-01,9.99999e-01,6.65913e-07,9.99999e-01
5.158567776e-01,8.81902e-07,9.99999e-01,9.99999e-01,8.81902e-07,9.99999e-01
5.184360615e-01,1.16148e-06,9.99999e-01,9.99999e-01,1.16148e-06,9.99999e-01
5.210282418e-01,1.52140e-06,9.99999e-01,9.99999e-01,1.52140e-06,9.99999e-01
5.236333830e-01,1.98225e-06,9.99999e-01,9.99999e-01,1.98225e-06,9.99999e-01
5.262515499e-01,2.56924e-06,9.99999e-01,9.99999e-01,2.56924e-06,9.99999e-01
5.288828077e-01,3.31302e-06,9.99999e-01,9.99999e-01,3.31302e-06,9.99999e-01
5.315272217e-01,4.25073e-06,9.99999e-01,9.99999e-01,4.25073e-06,9.99999e-01
5.341848578e-01,5.42706e-06,9.99999e-01,9.99999e-01,5.42706e-06,9.99999e-01
5.368557821e-01,6.89557e-06,9.99999e-01,9.99999e-01,6.89557e-06,9.99999e-01
5.395400610e-01,8.72009e-06,9.99999e-01,9.99999e-01,8.72009e-06,9.99999e-01
5.422377613e-01,1.09764e-05,9.99999e-01,9.99999e-01,1.09764e-05,9.99999e-01
5.449489501e-01,1.37538e-05,9.99999e-01,9.99999e-01,1.37538e-05,9.99999e-01
5.476736949e-01,1.71573e-05,9.99999e-01,9.99999e-01,1.71573e-05,9.99999e-01
5.504120634e-01,2.13099e-05,9.99999e-01,9.99999e-01,2.13099e-05,9.99999e-01
5.531641237e-01,2.63544e-05,9.99999e-01,9.99999e-01,2.63544e-05,9.99999e-01
5.559299443e-01,3.24566e-05,9.99999e-01,9.99999e-01,3.24566e-05,9.99999e-01
5.587095940e-01,3.98076e-05,9.99999e-01,9.99999e-01,3.98076e-05,9.99999e-01
5.615031420e-01,4.86270e-05,9.99999e-01,9.99999e-01,4.86270e-05,9.99999e-01
5.643106577e-01,5.91660e-05,9.99999e-01,9.99999e-01,5.91660e-05,9.99999e-01
5.671322110e-01,7.17107e-05,9.99999e-01,9.99999e-01,7.17107e-05,9.99999e-01
5.699678720e-01,8.65858e-05,9.99999e-01,9.99999e-01,8.65858e-05,9.99999e-01
5.728177114e-01,1.04158e-04,9.99999e-01,9.99999e-01,1.04158e-04,9.99999e-01
5.756818000e-01,1.24840e-04,9.99999e-01,9.99999e-01,1.24840e-04,9.99999e-01
5.785602090e-01,1.49094e-04,9.99999e-01,9.99999e-01,1.49094e-04,9.99999e-01
5.814530100e-01,1.77436e-04,9.99999e-01,9.99999e-01,1.77436e-04,9.99999e-01
5.843602750e-01,2.10443e-04,9.99999e-01,9.99999e-01,2.10443e-04,9.99999e-01
5.872820764e-01,2.48749e-04,9.99999e-01,9.99999e-01,2.48749e-04,9.99999e-01
5.902184868e-01,2.93058e-04,9.99999e-01,9.99999e-01,2.93058e-04,9.99999e-01
5.931695792e-01,3.44144e-04,9.99999e-01,9.99999e-01,3.44144e-04,9.99999e-01
5.961354271e-01,4.02854e-04,9.99999e-01,9.99999e-01,4.02854e-04,9.99999e-01
5.991161043e-01,4.70116e-04,9.99999e-01,9.99999e-01,4.70116e-04,9.99999e-01
6.021116848e-01,5.46936e-04,9.99999e-01,9.99999e-01,5.46936e-04,9.99999e-01
6.051222432e-01,6.34411e-04,9.99999e-01,9.99999e-01,6.34411e-04,9.99999e-01
6.081478544e-01,7.33722e-04,9.99999e-01,9.99999e-01,7.33722e-04,9.99999e-01
6.111885937e-01,8.46146e-04,9.99999e-01,9.99999e-01,8.46146e-04,9.99999e-01
6.142445367e-01,9.73051e-04,9.99999e-01,9.99999e-01,9.73051e-04,9.99999e-01
6.173157594e-01,1.11591e-03,9.99999e-01,9.99999e-01,1.11591e-03,9.99999e-01
6.204023382e-01,1.27627e-03,9.99999e-01,9.99999e-01,1.27627e-03,9.99999e-01
6.235043498e-01,1.45582e-03,9.99999e-01,9.99999e-01,1.45582e-03,9.99999e-01
6.266218716e-01,1.65632e-03,9.99999e-01,9.99999e-01,1.65632e-03,9.99999e-01
6.297549810e-01,1.87963e-03,9.99999e-01,9.99999e-01,1.87963e-03,9.99999e-01
6.329037559e-01,2.12773e-03,9.99999e-01,9.99999e-01,2.12773e-03,9.99999e-01
6.360682746e-01,2.40269e-03,9.99999e-01,9.99999e-01,2.40269e-03,9.99999e-01
6.392486160e-01,2.70667e-03,9.99999e-01,9.99999e-01,2.70667e-03,9.99999e-01
6.424448591e-01,3.04194e-03,9.99999e-01,9.99999e-01,3.04194e-03,9.99999e-01
6.456570834e-01,3.41087e-03,9.99999e-01,9.99999e-01,3.41087e-03,9.99999e-01
6.488853688e-01,3.81590e-03,9.99999e-01,9.99999e-01,3.81590e-03,9.99999e-01
6.521297956e-01,4.25958e-03,9.99999e-01,9.99999e-01,4.25958e-03,9.99999e-01
6.553904446e-01,4.74452e-03,9.99999e-01,9.99999e-01,4.74452e-03,9.99999e-01
6.586673968e-01,5.27343e-03,9.99999e-01,9.99999e-01,5.27343e-03,9.99999e-01
6.619607338e-01,5.84908e-03,9.99999e-01,9.99999e-01,5.84908e-03,9.99999e-01
6.652705375e-01,6.47430e-03,9.99999e-01,9.99999e-01,6.47430e-03,9.99999e-01
6.685968902e-01,7.15200e-03,9.99999e-01,9.99999e-01,7.15200e-03,9.99999e-01
6.719398746e-01,7.88511e-03,9.99999e-01,9.99999e-01,7.88511e-03,9.99999e-01
6.752995740e-01,8.67663e-03,9.99999e-01,9.99999e-01,8.67663e-03,9.99999e-01
6.786760719e-01,9.52958e-03,9.99999e-01,9.99999e-01,9.52958e-03,9.99999e-01
6.820694522e-01,1.04470e-02,9.99999e-01,9.99999e-01,1.04470e-02,9.99999e-01
6.854797995e-01,1.14320e-02,9.99999e-01,9.99999e-01,1.14320e-02,9.99999e-01
6.889071985e-01,1.24876e-02,9.99999e-01,9.99999e-01,1.24876e-02,9.99999e-01
6.923517345e-01,1.36169e-02,9.99999e-01,9.99999e-01,1.36169e-02,9.99999e-01
6.958134932e-01,1.48229e-02,9.99999e-01,9.99999e-01,1.48229e-02,9.99999e-01
6.992925606e-01,1.61088e-02,9.99999e-01,9.99999e-01,1.61088e-02,9.99999e-01
7.027890234e-01,1.74774e-02,9.99999e-01,9.99999e-01,1.74774e-02,9.99999e-01
7.063029686e-01,1.89319e-02,9.99999e-01,9.99999e-01,1.89319e-02,9.99999e-01
7.098344834e-01,2.04750e-02,9.99999e-01,9.99999e-01,2.04750e-02,9.99999e-01
7.133836558e-01,2.21096e-02,9.99999e-01,9.99999e-01,2.21096e-02,9.99999e-01
7.169505741e-01,2.38385e-02,9.99999e-01,9.99999e-01,2.38385e-02,9.99999e-01
7.205353270e-01,2.56645e-02,9.99999e-01,9.99999e-01,2.56645e-02,9.99999e-01
7.241380036e-01,2.75900e-02,9.99999e-01,9.99999e-01,2.75900e-02,9.99999e-01
7.277586936e-01,2.96177e-02,9.99999e-01,9.99999e-01,2.96177e-02,9.99999e-01
7.313974871e-01,3.17498e-02,9.99999e-01,9.99999e-01,3.17498e-02,9.99999e-01
7.350544745e-01,3.39888e-02,9.99999e-01,9.99999e-01,3.39888e-02,9.99999e-01
7.387297469e-01,3.63367e-02,9.99999e-01,9.99999e-01,3.63367e-02,9.99999e-01
7.424233956e-01,3.87956e-02,9.99999e-01,9.99999e-01,3.87956e-02,9.99999e-01
7.461355126e-01,4.13673e-02,9.99999e-01,9.99999e-01,4.13673e-02,9.99999e-01
7.498661902e-01,4.40536e-02,9.99999e-01,9.99999e-01,4.40536e-02,9.99999e-01
7.536155211e-01,4.68561e-02,9.99999e-01,9.99999e-01,4.68561e-02,9.99999e-01
7.573835987e-01,4.97762e-02,9.99999e-01,9.99999e-01,4.97762e-02,9.99999e-01
7.611705167e-01,5.28152e-02,9.99999e-01,9.99999e-01,5.28152e-02,9.99999e-01
7.649763693e-01,5.59742e-02,9.99999e-01,9.99999e-01,5.59742e-02,9.99999e-01
7.688012511e-01,5.92540e-02,9.99999e-01,9.99999e-01,5.92540e-02,9.99999e-01
7.726452574e-01,6.26556e-02,9.99999e-01,9.99999e-01,6.26556e-02,9.99999e-01
7.765084837e-01,6.61794e-02,9.99999e-01,9.99999e-01,6.61794e-02,9.99999e-01
7.803910261e-01,6.26891e-02,9.99999e-01,8.97790e-01,6.98259e-02,9.99999e-01
7.842929812e-01,4.36627e-02,9.99999e-01,5.93280e-01,7.35953e-02,9.99999e-01
7.882144461e-01,4.45924e-02,9.99999e-01,5.75477e-01,7.74877e-02,9.99999e-01
7.921555184e-01,5.77742e-02,9.99999e-01,7.08860e-01,8.15029e-02,9.99999e-01
7.961162960e-01,6.79023e-02,9.99999e-01,7.92873e-01,8.56407e-02,9.99999e-01
8.000968774e-01,7.92366e-02,9.99999e-01,8.81380e-01,8.99005e-02,9.99999e-01
8.040973618e-01,8.83216e-02,9.99999e-01,9.36782e-01,9.42818e-02,9.99999e-01
8.081178486e-01,9.58512e-02,9.99999e-01,9.70313e-01,9.87838e-02,9.99999e-01
8.121584379e-01,1.02457e-01,9.99999e-01,9.90830e-01,1.03405e-01,9.99999e-01
8.162192301e-01,1.07926e-01,9.99999e-01,9.97966e-01,1.08145e-01,9.99999e-01
8.203003262e-01,1.13000e-01,9.99999e-01,9.99971e-01,1.13003e-01,9.99999e-01
8.244018279e-01,1.17976e-01,9.99999e-01,9.99999e-01,1.17976e-01,9.99999e-01
8.285238370e-01,1.23063e-01,9.99999e-01,9.99999e-01,1.23063e-01,9.99999e-01
8.326664562e-01,1.28262e-01,9.99999e-01,9.99999e-01,1.28262e-01,9.99999e-01
8.368297885e-01,1.33572e-01,9.99999e-01,9.99999e-01,1.33572e-01,9.99999e-01
8.410139374e-01,1.38991e-01,9.99999e-01,9.99999e-01,1.38991e-01,9.99999e-01
8.452190071e-01,1.44515e-01,9.99999e-01,9.99999e-01,1.44515e-01,9.99999e-01
8.494451021e-01,1.50144e-01,9.99999e-01,9.99999e-01,1.50144e-01,9.99999e-01
8.536923276e-01,1.55874e-01,9.99999e-01,9.99999e-01,1.55874e-01,9.99999e-01
8.579607893e-01,1.61703e-01,9.99999e-01,9.99999e-01,1.61703e-01,9.99999e-01
8.622505932e-01,1.67629e-01,9.99999e-01,9.99999e-01,1.67629e-01,9.99999e-01
8.665618462e-01,1.48341e-01,9.99999e-01,8.54261e-01,1.73648e-01,9.99999e-01
8.708946554e-01,4.98864e-02,9.99999e-01,2.77520e-01,1.79758e-01,9.99999e-01
8.752491287e-01,6.35531e-02,9.99999e-01,3.41765e-01,1.85956e-01,9.99999e-01
8.796253743e-01,1.04924e-01,9.99999e-01,5.45803e-01,1.92239e-01,9.99999e-01
8.840235012e-01,1.44040e-01,9.99999e-01,7.25265e-01,1.98603e-01,9.99999e-01
8.884436187e-01,1.80558e-01,9.99999e-01,8.80571e-01,2.05047e-01,9.99999e-01
8.928858368e-01,2.00885e-01,9.99999e-01,9.49515e-01,2.11566e-01,9.99999e-01
8.973502660e-01,2.15443e-01,9.99999e-01,9.87559e-01,2.18157e-01,9.99999e-01
9.018370173e-01,2.24509e-01,9.99999e-01,9.98625e-01,2.24818e-01,9.99999e-01
9.063462024e-01,2.23421e-01,9.99999e-01,9.64919e-01,2.31544e-01,9.99999e-01
9.108779334e-01,2.19628e-01,9.99999e-01,9.21519e-01,2.38333e-01,9.99999e-01
9.154323231e-01,2.40566e-01,9.99999e-01,9.81179e-01,2.45180e-01,9.99999e-01
9.200094847e-01,1.98272e-01,9.99999e-01,7.86532e-01,2.52084e-01,9.99999e-01
9.246095321e-01,1.74077e-01,9.99999e-01,6.72009e-01,2.59039e-01,9.99999e-01
9.292325798e-01,1.95612e-01,9.99999e-01,7.35261e-01,2.66044e-01,9.99999e-01
9.338787427e-01,2.02507e-01,9.99999e-01,7.41529e-01,2.73094e-01,9.99999e-01
9.385481364e-01,2.24400e-01,9.99999e-01,8.00895e-01,2.80186e-01,9.99999e-01
9.432408771e-01,2.50648e-01,9.99999e-01,8.72376e-01,2.87316e-01,9.99999e-01
9.479570815e-01,2.74495e-01,9.99999e-01,9.32128e-01,2.94482e-01,9.99999e-01
9.526968669e-01,2.91661e-01,9.99999e-01,9.66787e-01,3.01680e-01,9.99999e-01
9.574603512e-01,3.04475e-01,9.99999e-01,9.85655e-01,3.08906e-01,9.99999e-01
9.622476530e-01,3.14738e-01,9.99999e-01,9.95507e-01,3.16158e-01,9.99999e-01
9.670588912e-01,3.22996e-01,9.99999e-01,9.98654e-01,3.23431e-01,9.99999e-01
9.718941857e-01,3.30693e-01,9.99999e-01,9.99906e-01,3.30723e-01,9.99999e-01
9.767536566e-01,3.38031e-01,9.99999e-01,9.99999e-01,3.38031e-01,9.99999e-01
9.816374249e-01,3.45351e-01,9.99999e-01,9.99999e-01,3.45351e-01,9.99999e-01
9.865456120e-01,3.52681e-01,9.99999e-01,9.99999e-01,3.52681e-01,9.99999e-01
9.914783401e-01,3.60016e-01,9.99999e-01,9.99999e-01,3.60016e-01,9.99999e-01
9.964357318e-01,3.67355e-01,9.99999e-01,9.99999e-01,3.67355e-01,9.99999e-01
1.001417910e+00,3.74694e-01,9.99999e-01,9.99999e-01,3.74694e-01,9.99999e-01
1.006425000e+00,3.82030e-01,9.99999e-01,9.99999e-01,3.82030e-01,9.99999e-01
1.011457125e+00,3.89360e-01,9.99999e-01,9.99999e-01,3.89360e-01,9.99999e-01
1.016514411e+00,3.96683e-01,9.99999e-01,9.99999e-01,3.96683e-01,9.99999e-01
1.021596983e+00,4.03906e-01,9.99999e-01,9.99781e-01,4.03994e-01,9.99999e-01
1.026704968e+00,4.05486e-01,9.99999e-01,9.85883e-01,4.11292e-01,9.99999e-01
1.031838492e+00,3.72320e-01,9.99999e-01,8.89496e-01,4.18573e-01,9.99999e-01
1.036997685e+00,1.73878e-02,9.99999e-01,4.08320e-02,4.25836e-01,9.99999e-01
1.042182673e+00,6.89855e-04,9.99999e-01,1.59291e-03,4.33078e-01,9.99999e-01
1.047393587e+00,1.91354e-03,9.99999e-01,4.34603e-03,4.40296e-01,9.99999e-01
1.052630555e+00,5.96143e-08,9.99999e-01,1.33220e-07,4.47488e-01,9.99999e-01
1.057893707e+00,2.29116e-07,9.99999e-01,5.03936e-07,4.54652e-01,9.99999e-01
1.063183176e+00,1.08426e-05,9.99999e-01,2.34796e-05,4.61786e-01,9.99999e-01
1.068499092e+00,1.40012e-04,9.99999e-01,2.98604e-04,4.68888e-01,9.99999e-01
1.073841587e+00,2.48561e-03,9.99999e-01,5.22234e-03,4.75956e-01,9.99999e-01
1.079210795e+00,1.80683e-02,9.99999e-01,3.74095e-02,4.82987e-01,9.99999e-01
1.084606849e+00,7.50601e-02,9.99999e-01,1.53190e-01,4.89980e-01,9.99999e-01
1.090029883e+00,1.85467e-01,9.99999e-01,3.73223e-01,4.96933e-01,9.99999e-01
1.095480033e+00,3.09427e-01,9.99999e-01,6.14131e-01,5.03845e-01,9.99999e-01
1.100957433e+00,4.03118e-01,9.99999e-01,7.89323e-01,5.10713e-01,9.99999e-01
1.106462220e+00,4.69270e-01,9.99999e-01,9.06736e-01,5.17537e-01,9.99999e-01
1.111994531e+00,5.05598e-01,9.99999e-01,9.64302e-01,5.24315e-01,9.99999e-01
1.117554504e+00,5.26377e-01,9.99999e-01,9.91210e-01,5.31044e-01,9.99999e-01
1.123142276e+00,5.37416e-01,9.99999e-01,9.99424e-01,5.37725e-01,9.99999e-01
1.128757988e+00,5.44355e-01,9.99999e-01,9.99999e-01,5.44355e-01,9.99999e-01
1.134401778e+00,5.50933e-01,9.99999e-01,9.99999e-01,5.50933e-01,9.99999e-01
1.140073787e+00,5.57459e-01,9.99999e-01,9.99999e-01,5.57459e-01,9.99999e-01
1.145774156e+00,5.63931e-01,9.99999e-01,9.99999e-01,5.63931e-01,9.99999e-01
1.151503026e+00,5.70348e-01,9.99999e-01,9.99999e-01,5.70348e-01,9.99999e-01
1.157260541e+00,5.76709e-01,9.99999e-01,9.99999e-01,5.76709e-01,9.99999e-01
1.163046844e+00,5.83013e-01,9.99999e-01,9.99999e-01,5.83013e-01,9.99999e-01
1.168862078e+00,5.89260e-01,9.99999e-01,9.99999e-01,5.89260e-01,9.99999e-01
1.174706389e+00,5.95448e-01,9.99999e-01,9.99999e-01,5.95448e-01,9.99999e-01
1.180579921e+00,6.01577e-01,9.99999e-01,9.99999e-01,6.01577e-01,9.99999e-01
1.186482820e+00,6.07626e-01,9.99999e-01,9.99966e-01,6.07646e-01,9.99999e-01
1.192415234e+00,5.84411e-01,9.99999e-01,9.52344e-01,6.13655e-01,9.99999e-01
1.198377311e+00,3.12080e-01,9.99999e-01,5.03677e-01,6.19602e-01,9.99999e-01
1.204369197e+00,1.08454e-35,9.99999e-01,1.73390e-35,6.25489e-01,9.99999e-01
1.210391043e+00,6.29902e-146,9.99999e-01,9.97765e-146,6.31313e-01,9.99999e-01
1.216442998e+00,3.24459e-126,9.99999e-01,5.09294e-126,6.37074e-01,9.99999e-01
1.222525213e+00,2.58683e-124,9.99999e-01,4.02447e-124,6.42773e-01,9.99999e-01
1.228637839e+00,8.37018e-96,9.99999e-01,1.29088e-95,6.48409e-01,9.99999e-01
1.234781029e+00,2.02991e-59,9.99999e-01,3.10392e-59,6.53982e-01,9.99999e-01
1.240954934e+00,2.72214e-39,9.99999e-01,4.12763e-39,6.59491e-01,9.99999e-01
1.247159708e+00,1.12457e-18,9.99999e-01,1.69125e-18,6.64936e-01,9.99999e-01
1.253395507e+00,1.03720e-12,9.99999e-01,1.54733e-12,6.70317e-01,9.99999e-01
1.259662485e+00,1.68006e-07,9.99999e-01,2.48663e-07,6.75634e-01,9.99999e-01
1.265960797e+00,1.79241e-04,9.99999e-01,2.63246e-04,6.80887e-01,9.99999e-01
1.272290601e+00,1.31235e-02,9.99999e-01,1.91284e-02,6.86076e-01,9.99999e-01
1.278652054e+00,1.23728e-02,9.99999e-01,1.79004e-02,6.91201e-01,9.99999e-01
1.285045314e+00,5.92912e-06,9.99999e-01,8.51564e-06,6.96262e-01,9.99999e-01
1.291470541e+00,5.92129e-17,9.99999e-01,8.44379e-17,7.01259e-01,9.99999e-01
1.297927893e+00,7.08447e-06,9.99999e-01,1.00319e-05,7.06192e-01,9.99999e-01
1.304417533e+00,4.73882e-04,9.99999e-01,6.66443e-04,7.11061e-01,9.99999e-01
1.310939621e+00,9.44021e-05,9.99999e-01,1.31871e-04,7.15866e-01,9.99999e-01
1.317494319e+00,3.87394e-50,9.99999e-01,5.37592e-50,7.20608e-01,9.99999e-01
1.324081790e+00,9.11585e-23,9.99999e-01,1.25686e-22,7.25287e-01,9.99999e-01
1.330702199e+00,3.61950e-19,9.99999e-01,4.95888e-19,7.29903e-01,9.99999e-01
1.337355710e+00,1.99484e-17,9.99999e-01,2.71607e-17,7.34457e-01,9.99999e-01
1.344042489e+00,1.14400e-17,9.99999e-01,1.54814e-17,7.38948e-01,9.99999e-01
1.350762701e+00,1.76674e-19,9.99999e-01,2.37664e-19,7.43377e-01,9.99999e-01
1.357516515e+00,1.02698e-11,9.99999e-01,1.37343e-11,7.47744e-01,9.99999e-01
1.364304097e+00,1.12022e-08,9.99999e-01,1.48956e-08,7.52050e-01,9.99999e-01
1.371125618e+00,8.02936e-05,9.99999e-01,1.06167e-04,7.56295e-01,9.99999e-01
1.377981246e+00,2.64966e-04,9.99999e-01,3.48420e-04,7.60479e-01,9.99999e-01
1.384871152e+00,7.21411e-03,9.99999e-01,9.43510e-03,7.64603e-01,9.99999e-01
1.391795508e+00,1.07244e-02,9.99999e-01,1.39519e-02,7.68667e-01,9.99999e-01
1.398754485e+00,5.09011e-02,9.99999e-01,6.58767e-02,7.72672e-01,9.99999e-01
1.405748258e+00,1.08262e-01,9.99999e-01,1.39402e-01,7.76618e-01,9.99999e-01
1.412776999e+00,2.22033e-01,9.99999e-01,2.84473e-01,7.80506e-01,9.99999e-01
1.419840884e+00,2.12121e-01,9.99999e-01,2.70447e-01,7.84336e-01,9.99999e-01
1.426940089e+00,6.74555e-03,9.99999e-01,8.55916e-03,7.88108e-01,9.99999e-01
1.434074789e+00,0.00000e+00,9.99999e-01,0.00000e+00,7.91824e-01,9.99999e-01
1.441245163e+00,0.00000e+00,9.99999e-01,0.00000e+00,7.95483e-01,9.99999e-01
1.448451389e+00,0.00000e+00,9.99999e-01,0.00000e+00,7.99086e-01,9.99999e-01
1.455693646e+00,0.00000e+00,9.99999e-01,0.00000e+00,8.02634e-01,9.99999e-01
1.462972114e+00,0.00000e+00,9.99999e-01,0.00000e+00,8.06128e-01,9.99999e-01
1.470286975e+00,3.34252e-242,9.99999e-01,4.12878e-242,8.09566e-01,9.99999e-01
