#,Wave/freq,Total,O2,CO2,Rayleigh,CIA
4.000000000e-01,2.14831e-04,9.99999e-01,9.99999e-01,2.14831e-04,9.99999e-01
4.020000000e-01,2.53876e-04,9.99999e-01,9.99999e-01,2.53876e-04,9.99999e-01
4.040100000e-01,2.98978e-04,9.99999e-01,9.99999e-01,2.98978e-04,9.99999e-01
4.060300500e-01,3.50957e-04,9.99999e-01,9.99999e-01,3.50957e-04,9.99999e-01
4.080602003e-01,4.10670e-04,9.99999e-01,9.99999e-01,4.10670e-04,9.99999e-01
4.101005013e-01,4.79055e-04,9.99999e-01,9.99999e-01,4.79055e-04,9.99999e-01
4.121510038e-01,5.57129e-04,9.99999e-01,9.99999e-01,5.57129e-04,9.99999e-01
4.142117588e-01,6.45998e-04,9.99999e-01,9.99999e-01,6.45998e-04,9.99999e-01
4.162828176e-01,7.46857e-04,9.99999e-01,9.99999e-01,7.46857e-04,9.99999e-01
4.183642317e-01,8.60991e-04,9.99999e-01,9.99999e-01,8.60991e-04,9.99999e-01
4.204560528e-01,9.89783e-04,9.99999e-01,9.99999e-01,9.89783e-04,9.99999e-01
4.225583331e-01,1.13471e-03,9.99999e-01,9.99999e-01,1.13471e-03,9.99999e-01
4.246711247e-01,1.29735e-03,9.99999e-01,9.99999e-01,1.29735e-03,9.99999e-01
4.267944804e-01,1.47939e-03,9.99999e-01,9.99999e-01,1.47939e-03,9.99999e-01
4.289284528e-01,1.68260e-03,9.99999e-01,9.99999e-01,1.68260e-03,9.99999e-01
4.310730950e-01,1.90886e-03,9.99999e-01,9.99999e-01,1.90886e-03,9.99999e-01
4.332284605e-01,2.16016e-03,9.99999e-01,9.99999e-01,2.16016e-03,9.99999e-01
4.353946028e-01,2.43858e-03,9.99999e-01,9.99999e-01,2.43858e-03,9.99999e-01
4.375715758e-01,2.74629e-03,9.99999e-01,9.99999e-01,2.74629e-03,9.99999e-01
4.397594337e-01,3.08559e-03,9.99999e-01,9.99999e-01,3.08559e-03,9.99999e-01
4.419582309e-01,3.45884e-03,9.99999e-01,9.99999e-01,3.45884e-03,9.99999e-01
4.441680220e-01,3.86850e-03,9.99999e-01,9.99999e-01,3.86850e-03,9.99999e-01
4.463888621e-01,4.31712e-03,9.99999e-01,9.99999e-01,4.31712e-03,9.99999e-01
4.486208064e-01,4.80734e-03,9.99999e-01,9.99999e-01,4.80734e-03,9.99999e-01
4.508639105e-01,5.34187e-03,9.99999e-01,9.99999e-01,5.34187e-03,9.99999e-01
4.531182300e-01,5.92348e-03,9.99999e-01,9.99999e-01,5.92348e-03,9.99999e-01
4.553838212e-01,6.55502e-03,9.99999e-01,9.99999e-01,6.55502e-03,9.99999e-01
4.576607403e-01,7.23939e-03,9.99999e-01,9.99999e-01,7.23939e-03,9.99999e-01
4.599490440e-01,7.97954e-03,9.99999e-01,9.99999e-01,7.97954e-03,9.99999e-01
4.622487892e-01,8.77848e-03,9.99999e-01,9.99999e-01,8.77848e-03,9.99999e-01
4.645600332e-01,9.63922e-03,9.99999e-01,9.99999e-01,9.63922e-03,9.99999e-01
4.668828333e-01,1.05648e-02,9.99999e-01,9.99999e-01,1.05648e-02,9.99999e-01
4.692172475e-01,1.15583e-02,9.99999e-01,9.99999e-01,1.15583e-02,9.99999e-01
4.715633337e-01,1.26229e-02,9.99999e-01,9.99999e-01,1.26229e-02,9.99999e-01
4.739211504e-01,1.37615e-02,9.99999e-01,9.99999e-01,1.37615e-02,9.99999e-01
4.762907561e-01,1.49772e-02,9.99999e-01,9.99999e-01,1.49772e-02,9.99999e-01
4.786722099e-01,1.62731e-02,9.99999e-01,9.99999e-01,1.62731e-02,9.99999e-01
4.810655710e-01,1.76522e-02,9.99999e-01,9.99999e-01,1.76522e-02,9.99999e-01
4.834708988e-01,1.91174e-02,9.99999e-01,9.99999e-01,1.91174e-02,9.99999e-01
4.858882533e-01,2.06716e-02,9.99999e-01,9.99999e-01,2.06716e-02,9.99999e-01
4.883176946e-01,2.23177e-02,9.99999e-01,9.99999e-01,2.23177e-02,9.99999e-01
4.907592831e-01,2.40585e-02,9.99999e-01,9.99999e-01,2.40585e-02,9.99999e-01
4.932130795e-01,2.58966e-02,9.99999e-01,9.99999e-01,2.58966e-02,9.99999e-01
4.956791449e-01,2.78346e-02,9.99999e-01,9.99999e-01,2.78346e-02,9.99999e-01
4.981575406e-01,2.98750e-02,9.99999e-01,9.99999e-01,2.98750e-02,9.99999e-01
5.006483283e-01,3.20202e-02,9.99999e-01,9.99999e-01,3.20202e-02,9.99999e-01
5.031515699e-01,3.42725e-02,9.99999e-01,9.99999e-01,3.42725e-02,9.99999e-01
5.056673278e-01,3.66340e-02,9.99999e-01,9.99999e-01,3.66340e-02,9.99999e-01
5.081956644e-01,3.91067e-02,9.99999e-01,9.99999e-01,3.91067e-02,9.99999e-01
5.107366428e-01,4.16925e-02,9.99999e-01,9.99999e-01,4.16925e-02,9.99999e-01
5.132903260e-01,4.43931e-02,9.99999e-01,9.99999e-01,4.43931e-02,9.99999e-01
5.158567776e-01,4.72100e-02,9.99999e-01,9.99999e-01,4.72100e-02,9.99999e-01
5.184360615e-01,5.01447e-02,9.99999e-01,9.99999e-01,5.01447e-02,9.99999e-01
5.210282418e-01,5.31984e-02,9.99999e-01,9.99999e-01,5.31984e-02,9.99999e-01
5.236333830e-01,5.63723e-02,9.99999e-01,9.99999e-01,5.63723e-02,9.99999e-01
5.262515499e-01,5.96671e-02,9.99999e-01,9.99999e-01,5.96671e-02,9.99999e-01
5.288828077e-01,6.30837e-02,9.99999e-01,9.99999e-01,6.30837e-02,9.99999e-01
5.315272217e-01,6.66226e-02,9.99999e-01,9.99999e-01,6.66226e-02,9.99999e-01
5.341848578e-01,7.02843e-02,9.99999e-01,9.99999e-01,7.02843e-02,9.99999e-01
5.368557821e-01,7.40689e-02,9.99999e-01,9.99999e-01,7.40689e-02,9.99999e-01
5.395400610e-01,7.79764e-02,9.99999e-01,9.99999e-01,7.79764e-02,9.99999e-01
5.422377613e-01,8.20068e-02,9.99999e-01,9.99999e-01,8.20068e-02,9.99999e-01
5.449489501e-01,8.61596e-02,9.99999e-01,9.99999e-01,8.61596e-02,9.99999e-01
5.476736949e-01,9.04345e-02,9.99999e-01,9.99999e-01,9.04345e-02,9.99999e-01
5.504120634e-01,9.48307e-02,9.99999e-01,9.99999e-01,9.48307e-02,9.99999e-01
5.531641237e-01,9.93475e-02,9.99999e-01,9.99999e-01,9.93475e-02,9.99999e-01
5.559299443e-01,1.03984e-01,9.99999e-01,9.99999e-01,1.03984e-01,9.99999e-01
5.587095940e-01,1.08738e-01,9.99999e-01,9.99999e-01,1.08738e-01,9.99999e-01
5.615031420e-01,1.13610e-01,9.99999e-01,9.99999e-01,1.13610e-01,9.99999e-01
5.643106577e-01,1.18597e-01,9.99999e-01,9.99999e-01,1.18597e-01,9.99999e-01
5.671322110e-01,1.23698e-01,9.99999e-01,9.99999e-01,1.23698e-01,9.99999e-01
5.699678720e-01,1.28912e-01,9.99999e-01,9.99999e-01,1.28912e-01,9.99999e-01
5.728177114e-01,1.34235e-01,9.99999e-01,9.99999e-01,1.34235e-01,9.99999e-01
5.756818000e-01,1.39667e-01,9.99999e-01,9.99999e-01,1.39667e-01,9.99999e-01
5.785602090e-01,1.45204e-01,9.99999e-01,9.99999e-01,1.45204e-01,9.99999e-01
5.814530100e-01,1.50845e-01,9.99999e-01,9.99999e-01,1.50845e-01,9.99999e-01
5.843602750e-01,1.56588e-01,9.99999e-01,9.99999e-01,1.56588e-01,9.99999e-01
5.872820764e-01,1.62429e-01,9.99999e-01,9.99999e-01,1.62429e-01,9.99999e-01
5.902184868e-01,1.68366e-01,9.99999e-01,9.99999e-01,1.68366e-01,9.99999e-01
5.931695792e-01,1.74397e-01,9.99999e-01,9.99999e-01,1.74397e-01,9.99999e-01
5.961354271e-01,1.80518e-01,9.99999e-01,9.99999e-01,1.80518e-01,9.99999e-01
5.991161043e-01,1.86726e-01,9.99999e-01,9.99999e-01,1.86726e-01,9.99999e-01
6.021116848e-01,1.93019e-01,9.99999e-01,9.99999e-01,1.93019e-01,9.99999e-01
6.051222432e-01,1.99394e-01,9.99999e-01,9.99999e-01,1.99394e-01,9.99999e-01
6.081478544e-01,2.05847e-01,9.99999e-01,9.99999e-01,2.05847e-01,9.99999e-01
6.111885937e-01,2.12375e-01,9.99999e-01,9.99999e-01,2.12375e-01,9.99999e-01
6.142445367e-01,2.18975e-01,9.99999e-01,9.99999e-01,2.18975e-01,9.99999e-01
6.173157594e-01,2.25644e-01,9.99999e-01,9.99999e-01,2.25644e-01,9.99999e-01
6.204023382e-01,2.32378e-01,9.99999e-01,9.99999e-01,2.32378e-01,9.99999e-01
6.235043498e-01,2.39174e-01,9.99999e-01,9.99999e-01,2.39174e-01,9.99999e-01
6.266218716e-01,2.46029e-01,9.99999e-01,9.99999e-01,2.46029e-01,9.99999e-01
6.297549810e-01,2.52939e-01,9.99999e-01,9.99999e-01,2.52939e-01,9.99999e-01
6.329037559e-01,2.59901e-01,9.99999e-01,9.99999e-01,2.59901e-01,9.99999e-01
6.360682746e-01,2.66911e-01,9.99999e-01,9.99999e-01,2.66911e-01,9.99999e-01
6.392486160e-01,2.73967e-01,9.99999e-01,9.99999e-01,2.73967e-01,9.99999e-01
6.424448591e-01,2.81063e-01,9.99999e-01,9.99999e-01,2.81063e-01,9.99999e-01
6.456570834e-01,2.88199e-01,9.99999e-01,9.99999e-01,2.88199e-01,9.99999e-01
6.488853688e-01,2.95369e-01,9.99999e-01,9.99999e-01,2.95369e-01,9.99999e-01
6.521297956e-01,3.02570e-01,9.99999e-01,9.99999e-01,3.02570e-01,9.99999e-01
6.553904446e-01,3.09800e-01,9.99999e-01,9.99999e-01,3.09800e-01,9.99999e-01
6.586673968e-01,3.17054e-01,9.99999e-01,9.99999e-01,3.17054e-01,9.99999e-01
6.619607338e-01,3.24330e-01,9.99999e-01,9.99999e-01,3.24330e-01,9.99999e-01
6.652705375e-01,3.31624e-01,9.99999e-01,9.99999e-01,3.31624e-01,9.99999e-01
6.685968902e-01,3.38934e-01,9.99999e-01,9.99999e-01,3.38934e-01,9.99999e-01
6.719398746e-01,3.46255e-01,9.99999e-01,9.99999e-01,3.46255e-01,9.99999e-01
6.752995740e-01,3.53585e-01,9.99999e-01,9.99999e-01,3.53585e-01,9.99999e-01
6.786760719e-01,3.60921e-01,9.99999e-01,9.99999e-01,3.60921e-01,9.99999e-01
6.820694522e-01,3.68260e-01,9.99999e-01,9.99999e-01,3.68260e-01,9.99999e-01
6.854797995e-01,3.75599e-01,9.99999e-01,9.99999e-01,3.75599e-01,9.99999e-01
6.889071985e-01,3.82935e-01,9.99999e-01,9.99999e-01,3.82935e-01,9.99999e-01
6.923517345e-01,3.90264e-01,9.99999e-01,9.99999e-01,3.90264e-01,9.99999e-01
6.958134932e-01,3.97585e-01,9.99999e-01,9.99999e-01,3.97585e-01,9.99999e-01
6.992925606e-01,4.04895e-01,9.99999e-01,9.99999e-01,4.04895e-01,9.99999e-01
7.027890234e-01,4.12191e-01,9.99999e-01,9.99999e-01,4.12191e-01,9.99999e-01
7.063029686e-01,4.19470e-01,9.99999e-01,9.99999e-01,4.19470e-01,9.99999e-01
7.098344834e-01,4.26731e-01,9.99999e-01,9.99999e-01,4.26731e-01,9.99999e-01
7.133836558e-01,4.33970e-01,9.99999e-01,9.99999e-01,4.33970e-01,9.99999e-01
7.169505741e-01,4.41185e-01,9.99999e-01,9.99999e-01,4.41185e-01,9.99999e-01
7.205353270e-01,4.48374e-01,9.99999e-01,9.99999e-01,4.48374e-01,9.99999e-01
7.241380036e-01,4.55534e-01,9.99999e-01,9.99999e-01,4.55534e-01,9.99999e-01
7.277586936e-01,4.62664e-01,9.99999e-01,9.99999e-01,4.62664e-01,9.99999e-01
7.313974871e-01,4.69762e-01,9.99999e-01,9.99999e-01,4.69762e-01,9.99999e-01
7.350544745e-01,4.76825e-01,9.99999e-01,9.99999e-01,4.76825e-01,9.99999e-01
7.387297469e-01,4.83852e-01,9.99999e-01,9.99999e-01,4.83852e-01,9.99999e-01
7.424233956e-01,4.90840e-01,9.99999e-01,9.99999e-01,4.90840e-01,9.99999e-01
7.461355126e-01,4.97788e-01,9.99999e-01,9.99999e-01,4.97788e-01,9.99999e-01
7.498661902e-01,5.04695e-01,9.99999e-01,9.99999e-01,5.04695e-01,9.99999e-01
7.536155211e-01,5.11558e-01,9.99999e-01,9.99999e-01,5.11558e-01,9.99999e-01
7.573835987e-01,5.18376e-01,9.99999e-01,9.99999e-01,5.18376e-01,9.99999e-01
7.611705167e-01,5.25147e-01,9.99999e-01,9.99999e-01,5.25147e-01,9.99999e-01
7.649763693e-01,5.31871e-01,9.99999e-01,9.99999e-01,5.31871e-01,9.99999e-01
7.688012511e-01,5.38545e-01,9.99999e-01,9.99999e-01,5.38545e-01,9.99999e-01
7.726452574e-01,5.45169e-01,9.99999e-01,9.99999e-01,5.45169e-01,9.99999e-01
7.765084837e-01,5.51741e-01,9.99999e-01,9.99999e-01,5.51741e-01,9.99999e-01
7.803910261e-01,5.42214e-01,9.99999e-01,9.71256e-01,5.58260e-01,9.99999e-01
7.842929812e-01,4.99126e-01,9.99999e-01,8.83837e-01,5.64726e-01,9.99999e-01
7.882144461e-01,5.00017e-01,9.99999e-01,8.75478e-01,5.71136e-01,9.99999e-01
7.921555184e-01,5.34611e-01,9.99999e-01,9.25750e-01,5.77490e-01,9.99999e-01
7.961162960e-01,5.54574e-01,9.99999e-01,9.49959e-01,5.83787e-01,9.99999e-01
8.000968774e-01,5.73818e-01,9.99999e-01,9.72528e-01,5.90026e-01,9.99999e-01
8.040973618e-01,5.87692e-01,9.99999e-01,9.85716e-01,5.96207e-01,9.99999e-01
8.081178486e-01,5.98355e-01,9.99999e-01,9.93401e-01,6.02329e-01,9.99999e-01
8.121584379e-01,6.07156e-01,9.99999e-01,9.97970e-01,6.08391e-01,9.99999e-01
8.162192301e-01,6.14116e-01,9.99999e-01,9.99551e-01,6.14392e-01,9.99999e-01
8.203003262e-01,6.20328e-01,9.99999e-01,9.99993e-01,6.20332e-01,9.99999e-01
8.244018279e-01,6.26210e-01,9.99999e-01,9.99999e-01,6.26210e-01,9.99999e-01
8.285238370e-01,6.32027e-01,9.99999e-01,9.99999e-01,6.32027e-01,9.99999e-01
8.326664562e-01,6.37781e-01,9.99999e-01,9.99999e-01,6.37781e-01,9.99999e-01
8.368297885e-01,6.43472e-01,9.99999e-01,9.99999e-01,6.43472e-01,9.99999e-01
8.410139374e-01,6.49100e-01,9.99999e-01,9.99999e-01,6.49100e-01,9.99999e-01
8.452190071e-01,6.54665e-01,9.99999e-01,9.99999e-01,6.54665e-01,9.99999e-01
8.494451021e-01,6.60166e-01,9.99999e-01,9.99999e-01,6.60166e-01,9.99999e-01
8.536923276e-01,6.65603e-01,9.99999e-01,9.99999e-01,6.65603e-01,9.99999e-01
8.579607893e-01,6.70977e-01,9.99999e-01,9.99999e-01,6.70977e-01,9.99999e-01
8.622505932e-01,6.76286e-01,9.99999e-01,9.99999e-01,6.76286e-01,9.99999e-01
8.665618462e-01,6.35793e-01,9.99999e-01,9.32888e-01,6.81531e-01,9.99999e-01
8.708946554e-01,5.00505e-01,9.99999e-01,7.28842e-01,6.86712e-01,9.99999e-01
8.752491287e-01,5.37130e-01,9.99999e-01,7.76391e-01,6.91829e-01,9.99999e-01
8.796253743e-01,6.06795e-01,9.99999e-01,8.70727e-01,6.96882e-01,9.99999e-01
8.840235012e-01,6.53340e-01,9.99999e-01,9.30854e-01,7.01871e-01,9.99999e-01
8.884436187e-01,6.87178e-01,9.99999e-01,9.72243e-01,7.06796e-01,9.99999e-01
8.928858368e-01,7.03585e-01,9.99999e-01,9.88657e-01,7.11657e-01,9.99999e-01
8.973502660e-01,7.14481e-01,9.99999e-01,9.97244e-01,7.16455e-01,9.99999e-01
9.018370173e-01,7.20970e-01,9.99999e-01,9.99696e-01,7.21189e-01,9.99999e-01
9.063462024e-01,7.20090e-01,9.99999e-01,9.92049e-01,7.25860e-01,9.99999e-01
9.108779334e-01,7.17415e-01,9.99999e-01,9.82129e-01,7.30469e-01,9.99999e-01
9.154323231e-01,7.31932e-01,9.99999e-01,9.95805e-01,7.35014e-01,9.99999e-01
9.200094847e-01,6.94357e-01,9.99999e-01,9.38957e-01,7.39498e-01,9.99999e-01
9.246095321e-01,6.80991e-01,9.99999e-01,9.15410e-01,7.43919e-01,9.99999e-01
9.292325798e-01,6.97792e-01,9.99999e-01,9.32529e-01,7.48278e-01,9.99999e-01
9.338787427e-01,7.03802e-01,9.99999e-01,9.35189e-01,7.52577e-01,9.99999e-01
9.385481364e-01,7.20470e-01,9.99999e-01,9.51977e-01,7.56814e-01,9.99999e-01
9.432408771e-01,7.38457e-01,9.99999e-01,9.70388e-01,7.60991e-01,9.99999e-01
9.479570815e-01,7.53386e-01,9.99999e-01,9.84679e-01,7.65108e-01,9.99999e-01
9.526968669e-01,7.63469e-01,9.99999e-01,9.92594e-01,7.69165e-01,9.99999e-01
9.574603512e-01,7.70711e-01,9.99999e-01,9.96829e-01,7.73162e-01,9.99999e-01
9.622476530e-01,7.76333e-01,9.99999e-01,9.99010e-01,7.77101e-01,9.99999e-01
9.670588912e-01,7.80751e-01,9.99999e-01,9.99703e-01,7.80982e-01,9.99999e-01
9.718941857e-01,7.84788e-01,9.99999e-01,9.99978e-01,7.84805e-01,9.99999e-01
9.767536566e-01,7.88570e-01,9.99999e-01,9.99999e-01,7.88570e-01,9.99999e-01
9.816374249e-01,7.92278e-01,9.99999e-01,9.99999e-01,7.92278e-01,9.99999e-01
9.865456120e-01,7.95931e-01,9.99999e-01,9.99999e-01,7.95931e-01,9.99999e-01
9.914783401e-01,7.99527e-01,9.99999e-01,9.99999e-01,7.99527e-01,9.99999e-01
9.964357318e-01,8.03068e-01,9.99999e-01,9.99999e-01,8.03068e-01,9.99999e-01
1.001417910e+00,8.06555e-01,9.99999e-01,9.99999e-01,8.06555e-01,9.99999e-01
1.006425000e+00,8.09987e-01,9.99999e-01,9.99999e-01,8.09987e-01,9.99999e-01
1.011457125e+00,8.13366e-01,9.99999e-01,9.99999e-01,8.13366e-01,9.99999e-01
1.016514411e+00,8.16691e-01,9.99999e-01,9.99999e-01,8.16691e-01,9.99999e-01
1.021596983e+00,8.19927e-01,9.99999e-01,9.99953e-01,8.19964e-01,9.99999e-01
1.026704968e+00,8.20626e-01,9.99999e-01,9.96890e-01,8.23186e-01,9.99999e-01
1.031838492e+00,7.92950e-01,9.99999e-01,9.59575e-01,8.26355e-01,9.99999e-01
1.036997685e+00,1.51436e-01,9.99999e-01,1.82568e-01,8.29474e-01,9.99999e-01
1.042182673e+00,1.44162e-01,9.99999e-01,1.73159e-01,8.32543e-01,9.99999e-01
1.047393587e+00,1.54685e-01,9.99999e-01,1.85127e-01,8.35563e-01,9.99999e-01
1.052630555e+00,7.69253e-03,9.99999e-01,9.17379e-03,8.38533e-01,9.99999e-01
1.057893707e+00,1.80142e-02,9.99999e-01,2.14084e-02,8.41455e-01,9.99999e-01
1.063183176e+00,5.02070e-02,9.99999e-01,5.94638e-02,8.44329e-01,9.99999e-01
1.068499092e+00,1.21578e-01,9.99999e-01,1.43513e-01,8.47156e-01,9.99999e-01
1.073841587e+00,2.50103e-01,9.99999e-01,2.94260e-01,8.49936e-01,9.99999e-01
1.079210795e+00,3.93164e-01,9.99999e-01,4.61097e-01,8.52670e-01,9.99999e-01
1.084606849e+00,5.59510e-01,9.99999e-01,6.54123e-01,8.55358e-01,9.99999e-01
1.090029883e+00,6.88356e-01,9.99999e-01,8.02277e-01,8.58002e-01,9.99999e-01
1.095480033e+00,7.72189e-01,9.99999e-01,8.97266e-01,8.60601e-01,9.99999e-01
1.100957433e+00,8.19246e-01,9.99999e-01,9.49127e-01,8.63157e-01,9.99999e-01
1.106462220e+00,8.47202e-01,9.99999e-01,9.78665e-01,8.65670e-01,9.99999e-01
1.111994531e+00,8.61230e-01,9.99999e-01,9.92039e-01,8.68140e-01,9.99999e-01
1.117554504e+00,8.68877e-01,9.99999e-01,9.98057e-01,8.70568e-01,9.99999e-01
1.123142276e+00,8.72844e-01,9.99999e-01,9.99872e-01,8.72955e-01,9.99999e-01
1.128757988e+00,8.75301e-01,9.99999e-01,9.99999e-01,8.75301e-01,9.99999e-01
1.134401778e+00,8.77606e-01,9.99999e-01,9.99999e-01,8.77606e-01,9.99999e-01
1.140073787e+00,8.79873e-01,9.99999e-01,9.99999e-01,8.79873e-01,9.99999e-01
1.145774156e+00,8.82100e-01,9.99999e-01,9.99999e-01,8.82100e-01,9.99999e-01
1.151503026e+00,8.84288e-01,9.99999e-01,9.99999e-01,8.84288e-01,9.99999e-01
1.157260541e+00,8.86439e-01,9.99999e-01,9.99999e-01,8.86439e-01,9.99999e-01
1.163046844e+00,8.88552e-01,9.99999e-01,9.99999e-01,8.88552e-01,9.99999e-01
1.168862078e+00,8.90628e-01,9.99999e-01,9.99999e-01,8.90628e-01,9.99999e-01
1.174706389e+00,8.92668e-01,9.99999e-01,9.99999e-01,8.92668e-01,9.99999e-01
1.180579921e+00,8.94672e-01,9.99999e-01,9.99999e-01,8.94672e-01,9.99999e-01
1.186482820e+00,8.96635e-01,9.99999e-01,9.99992e-01,8.96641e-01,9.99999e-01
1.192415234e+00,8.88583e-01,9.99999e-01,9.88879e-01,8.98576e-01,9.99999e-01
1.198377311e+00,5.09930e-01,9.99999e-01,5.66289e-01,9.00476e-01,9.99999e-01
1.204369197e+00,1.42008e-09,9.99999e-01,1.57377e-09,9.02342e-01,9.99999e-01
1.210391043e+00,1.02126e-33,9.99999e-01,1.12949e-33,9.04176e-01,9.99999e-01
1.216442998e+00,2.11911e-29,9.99999e-01,2.33903e-29,9.05976e-01,9.99999e-01
1.222525213e+00,5.54630e-29,9.99999e-01,6.10997e-29,9.07745e-01,9.99999e-01
1.228637839e+00,1.97271e-22,9.99999e-01,2.16905e-22,9.09482e-01,9.99999e-01
1.234781029e+00,9.04802e-15,9.99999e-01,9.92990e-15,9.11188e-01,9.99999e-01
1.240954934e+00,5.45507e-10,9.99999e-01,5.97577e-10,9.12864e-01,9.99999e-01
1.247159708e+00,9.33744e-06,9.99999e-01,1.02103e-05,9.14509e-01,9.99999e-01
1.253395507e+00,1.14781e-03,9.99999e-01,1.25290e-03,9.16125e-01,9.99999e-01
1.259662485e+00,2.00371e-02,9.99999e-01,2.18337e-02,9.17711e-01,9.99999e-01
1.265960797e+00,1.00487e-01,9.99999e-01,1.09312e-01,9.19269e-01,9.99999e-01
1.272290601e+00,3.64225e-01,9.99999e-01,3.95552e-01,9.20799e-01,9.99999e-01
1.278652054e+00,3.11514e-01,9.99999e-01,3.37757e-01,9.22301e-01,9.99999e-01
1.285045314e+00,8.56975e-03,9.99999e-01,9.27686e-03,9.23776e-01,9.99999e-01
1.291470541e+00,1.18210e-04,9.99999e-01,1.27763e-04,9.25224e-01,9.99999e-01
1.297927893e+00,1.69628e-02,9.99999e-01,1.83056e-02,9.26645e-01,9.99999e-01
1.304417533e+00,1.71702e-01,9.99999e-01,1.85015e-01,9.28040e-01,9.99999e-01
1.310939621e+00,2.90196e-02,9.99999e-01,3.12236e-02,9.29410e-01,9.99999e-01
1.317494319e+00,4.04048e-12,9.99999e-01,4.34107e-12,9.30755e-01,9.99999e-01
1.324081790e+00,1.70821e-08,9.99999e-01,1.83270e-08,9.32075e-01,9.99999e-01
1.330702199e+00,5.04976e-05,9.99999e-01,5.41023e-05,9.33371e-01,9.99999e-01
1.337355710e+00,5.27086e-05,9.99999e-01,5.63943e-05,9.34643e-01,9.99999e-01
1.344042489e+00,1.52304e-05,9.99999e-01,1.62737e-05,9.35892e-01,9.99999e-01
1.350762701e+00,3.37151e-05,9.99999e-01,3.59774e-05,9.37118e-01,9.99999e-01
1.357516515e+00,1.26484e-03,9.99999e-01,1.34799e-03,9.38321e-01,9.99999e-01
1.364304097e+00,1.34270e-02,9.99999e-01,1.42916e-02,9.39501e-01,9.99999e-01
1.371125618e+00,1.01975e-01,9.99999e-01,1.08408e-01,9.40660e-01,9.99999e-01
1.377981246e+00,1.54036e-01,9.99999e-01,1.63555e-01,9.41797e-01,9.99999e-01
1.384871152e+00,3.28924e-01,9.99999e-01,3.48837e-01,9.42914e-01,9.99999e-01
1.391795508e+00,3.56890e-01,9.99999e-01,3.78058e-01,9.44009e-01,9.99999e-01
1.398754485e+00,5.18810e-01,9.99999e-01,5.48956e-01,9.45084e-01,9.99999e-01
1.405748258e+00,6.08402e-01,9.99999e-01,6.43036e-01,9.46139e-01,9.99999e-01
1.412776999e+00,7.16816e-01,9.99999e-01,7.56793e-01,9.47174e-01,9.99999e-01
1.419840884e+00,6.46808e-01,9.99999e-01,6.82150e-01,9.48190e-01,9.99999e-01
1.426940089e+00,6.73912e-02,9.99999e-01,7.09988e-02,9.49187e-01,9.99999e-01
1.434074789e+00,0.00000e+00,9.99999e-01,0.00000e+00,9.50165e-01,9.99999e-01
1.441245163e+00,0.00000e+00,9.99999e-01,0.00000e+00,9.51125e-01,9.99999e-01
1.448451389e+00,0.00000e+00,9.99999e-01,0.00000e+00,9.52067e-01,9.99999e-01
1.455693646e+00,8.10605e-268,9.99999e-01,8.50590e-268,9.52991e-01,9.99999e-01
1.462972114e+00,5.59449e-130,9.99999e-01,5.86487e-130,9.53898e-01,9.99999e-01
1.470286975e+00,8.30465e-55,9.99999e-01,8.69789e-55,9.54788e-01,9.99999e-01
