#,Wave/freq,Total,O2,CO2,Rayleigh,CIA
4.000000000e-01,1.58000e-19,9.99999e-01,9.99999e-01,1.58000e-19,9.99999e-01
4.020000000e-01,3.71881e-19,9.99999e-01,9.99999e-01,3.71881e-19,9.99999e-01
4.040100000e-01,8.59873e-19,9.99999e-01,9.99999e-01,8.59873e-19,9.99999e-01
4.060300500e-01,1.95557e-18,9.99999e-01,9.99999e-01,1.95557e-18,9.99999e-01
4.080602003e-01,4.37588e-18,9.99999e-01,9.99999e-01,4.37588e-18,9.99999e-01
4.101005013e-01,9.63711e-18,9.99999e-01,9.99999e-01,9.63711e-18,9.99999e-01
4.121510038e-01,2.08957e-17,9.99999e-01,9.99999e-01,2.08957e-17,9.99999e-01
4.142117588e-01,4.46197e-17,9.99999e-01,9.99999e-01,4.46197e-17,9.99999e-01
4.162828176e-01,9.38618e-17,9.99999e-01,9.99999e-01,9.38618e-17,9.99999e-01
4.183642317e-01,1.94568e-16,9.99999e-01,9.99999e-01,1.94568e-16,9.99999e-01
4.204560528e-01,3.97559e-16,9.99999e-01,9.99999e-01,3.97559e-16,9.99999e-01
4.225583331e-01,8.00943e-16,9.99999e-01,9.99999e-01,8.00943e-16,9.99999e-01
4.246711247e-01,1.59145e-15,9.99999e-01,9.99999e-01,1.59145e-15,9.99999e-01
4.267944804e-01,3.11957e-15,9.99999e-01,9.99999e-01,3.11957e-15,9.99999e-01
4.289284528e-01,6.03423e-15,9.99999e-01,9.99999e-01,6.03423e-15,9.99999e-01
4.310730950e-01,1.15210e-14,9.99999e-01,9.99999e-01,1.15210e-14,9.99999e-01
4.332284605e-01,2.17175e-14,9.99999e-01,9.99999e-01,2.17175e-14,9.99999e-01
4.353946028e-01,4.04289e-14,9.99999e-01,9.99999e-01,4.04289e-14,9.99999e-01
4.375715758e-01,7.43434e-14,9.99999e-01,9.99999e-01,7.43434e-14,9.99999e-01
4.397594337e-01,1.35073e-13,9.99999e-01,9.99999e-01,1.35073e-13,9.99999e-01
4.419582309e-01,2.42533e-13,9.99999e-01,9.99999e-01,2.42533e-13,9.99999e-01
4.441680220e-01,4.30480e-13,9.99999e-01,9.99999e-01,4.30480e-13,9.99999e-01
4.463888621e-01,7.55463e-13,9.99999e-01,9.99999e-01,7.55463e-13,9.99999e-01
4.486208064e-01,1.31114e-12,9.99999e-01,9.99999e-01,1.31114e-12,9.99999e-01
4.508639105e-01,2.25089e-12,9.99999e-01,9.99999e-01,2.25089e-12,9.99999e-01
4.531182300e-01,3.82318e-12,9.99999e-01,9.99999e-01,3.82318e-12,9.99999e-01
4.553838212e-01,6.42613e-12,9.99999e-01,9.99999e-01,6.42613e-12,9.99999e-01
4.576607403e-01,1.06911e-11,9.99999e-01,9.99999e-01,1.06911e-11,9.99999e-01
4.599490440e-01,1.76086e-11,9.99999e-01,9.99999e-01,1.76086e-11,9.99999e-01
4.622487892e-01,2.87176e-11,9.99999e-01,9.99999e-01,2.87176e-11,9.99999e-01
4.645600332e-01,4.63848e-11,9.99999e-01,9.99999e-01,4.63848e-11,9.99999e-01
4.668828333e-01,7.42148e-11,9.99999e-01,9.99999e-01,7.42148e-11,9.99999e-01
4.692172475e-01,1.17645e-10,9.99999e-01,9.99999e-01,1.17645e-10,9.99999e-01
4.715633337e-01,1.84801e-10,9.99999e-01,9.99999e-01,1.84801e-10,9.99999e-01
4.739211504e-01,2.87714e-10,9.99999e-01,9.99999e-01,2.87714e-10,9.99999e-01
4.762907561e-01,4.44038e-10,9.99999e-01,9.99999e-01,4.44038e-10,9.99999e-01
4.786722099e-01,6.79449e-10,9.99999e-01,9.99999e-01,6.79449e-10,9.99999e-01
4.810655710e-01,1.03097e-09,9.99999e-01,9.99999e-01,1.03097e-09,9.99999e-01
4.834708988e-01,1.55151e-09,9.99999e-01,9.99999e-01,1.55151e-09,9.99999e-01
4.858882533e-01,2.31611e-09,9.99999e-01,9.99999e-01,2.31611e-09,9.99999e-01
4.883176946e-01,3.43026e-09,9.99999e-01,9.99999e-01,3.43026e-09,9.99999e-01
4.907592831e-01,5.04110e-09,9.99999e-01,9.99999e-01,5.04110e-09,9.99999e-01
4.932130795e-01,7.35226e-09,9.99999e-01,9.99999e-01,7.35226e-09,9.99999e-01
4.956791449e-01,1.06434e-08,9.99999e-01,9.99999e-01,1.06434e-08,9.99999e-01
4.981575406e-01,1.52955e-08,9.99999e-01,9.99999e-01,1.52955e-08,9.99999e-01
5.006483283e-01,2.18242e-08,9.99999e-01,9.99999e-01,2.18242e-08,9.99999e-01
5.031515699e-01,3.09217e-08,9.99999e-01,9.99999e-01,3.09217e-08,9.99999e-01
5.056673278e-01,4.35110e-08,9.99999e-01,9.99999e-01,4.35110e-08,9.99999e-01
5.081956644e-01,6.08142e-08,9.99999e-01,9.99999e-01,6.08142e-08,9.99999e-01
5.107366428e-01,8.44382e-08,9.99999e-01,9.99999e-01,8.44382e-08,9.99999e-01
5.132903260e-01,1.16482e-07,9.99999e-01,9.99999e-01,1.16482e-07,9.99999e-01
5.158567776e-01,1.59667e-07,9.99999e-01,9.99999e-01,1.59667e-07,9.99999e-01
5.184360615e-01,2.17505e-07,9.99999e-01,9.99999e-01,2.17505e-07,9.99999e-01
5.210282418e-01,2.94490e-07,9.99999e-01,9.99999e-01,2.94490e-07,9.99999e-01
5.236333830e-01,3.96344e-07,9.99999e-01,9.99999e-01,3.96344e-07,9.99999e-01
5.262515499e-01,5.30306e-07,9.99999e-01,9.99999e-01,5.30306e-07,9.99999e-01
5.288828077e-01,7.05477e-07,9.99999e-01,9.99999e-01,7.05477e-07,9.99999e-01
5.315272217e-01,9.33234e-07,9.99999e-01,9.99999e-01,9.33234e-07,9.99999e-01
5.341848578e-01,1.22772e-06,9.99999e-01,9.99999e-01,1.22772e-06,9.99999e-01
5.368557821e-01,1.60640e-06,9.99999e-01,9.99999e-01,1.60640e-06,9.99999e-01
5.395400610e-01,2.09075e-06,9.99999e-01,9.99999e-01,2.09075e-06,9.99999e-01
5.422377613e-01,2.70701e-06,9.99999e-01,9.99999e-01,2.70701e-06,9.99999e-01
5.449489501e-01,3.48708e-06,9.99999e-01,9.99999e-01,3.48708e-06,9.99999e-01
5.476736949e-01,4.46953e-06,9.99999e-01,9.99999e-01,4.46953e-06,9.99999e-01
5.504120634e-01,5.70076e-06,9.99999e-01,9.99999e-01,5.70076e-06,9.99999e-01
5.531641237e-01,7.23629e-06,9.99999e-01,9.99999e-01,7.23629e-06,9.99999e-01
5.559299443e-01,9.14225e-06,9.99999e-01,9.99999e-01,9.14225e-06,9.99999e-01
5.587095940e-01,1.14970e-05,9.99999e-01,9.99999e-01,1.14970e-05,9.99999e-01
5.615031420e-01,1.43930e-05,9.99999e-01,9.99999e-01,1.43930e-05,9.99999e-01
5.643106577e-01,1.79386e-05,9.99999e-01,9.99999e-01,1.79386e-05,9.99999e-01
5.671322110e-01,2.22607e-05,9.99999e-01,9.99999e-01,2.22607e-05,9.99999e-01
5.699678720e-01,2.75065e-05,9.99999e-01,9.99999e-01,2.75065e-05,9.99999e-01
5.728177114e-01,3.38469e-05,9.99999e-01,9.99999e-01,3.38469e-05,9.99999e-01
5.756818000e-01,4.14784e-05,9.99999e-01,9.99999e-01,4.14784e-05,9.99999e-01
5.785602090e-01,5.06268e-05,9.99999e-01,9.99999e-01,5.06268e-05,9.99999e-01
5.814530100e-01,6.15502e-05,9.99999e-01,9.99999e-01,6.15502e-05,9.99999e-01
5.843602750e-01,7.45423e-05,9.99999e-01,9.99999e-01,7.45423e-05,9.99999e-01
5.872820764e-01,8.99359e-05,9.99999e-01,9.99999e-01,8.99359e-05,9.99999e-01
5.902184868e-01,1.08107e-04,9.99999e-01,9.99999e-01,1.08107e-04,9.99999e-01
5.931695792e-01,1.29477e-04,9.99999e-01,9.99999e-01,1.29477e-04,9.99999e-01
5.961354271e-01,1.54521e-04,9.99999e-01,9.99999e-01,1.54521e-04,9.99999e-01
5.991161043e-01,1.83766e-04,9.99999e-01,9.99999e-01,1.83766e-04,9.99999e-01
6.021116848e-01,2.17798e-04,9.99999e-01,9.99999e-01,2.17798e-04,9.99999e-01
6.051222432e-01,2.57269e-04,9.99999e-01,9.99999e-01,2.57269e-04,9.99999e-01
6.081478544e-01,3.02894e-04,9.99999e-01,9.99999e-01,3.02894e-04,9.99999e-01
6.111885937e-01,3.55463e-04,9.99999e-01,9.99999e-01,3.55463e-04,9.99999e-01
6.142445367e-01,4.15838e-04,9.99999e-01,9.99999e-01,4.15838e-04,9.99999e-01
6.173157594e-01,4.84964e-04,9.99999e-01,9.99999e-01,4.84964e-04,9.99999e-01
6.204023382e-01,5.63864e-04,9.99999e-01,9.99999e-01,5.63864e-04,9.99999e-01
6.235043498e-01,6.53653e-04,9.99999e-01,9.99999e-01,6.53653e-04,9.99999e-01
6.266218716e-01,7.55530e-04,9.99999e-01,9.99999e-01,7.55530e-04,9.99999e-01
6.297549810e-01,8.70791e-04,9.99999e-01,9.99999e-01,8.70791e-04,9.99999e-01
6.329037559e-01,1.00083e-03,9.99999e-01,9.99999e-01,1.00083e-03,9.99999e-01
6.360682746e-01,1.14712e-03,9.99999e-01,9.99999e-01,1.14712e-03,9.99999e-01
6.392486160e-01,1.31126e-03,9.99999e-01,9.99999e-01,1.31126e-03,9.99999e-01
6.424448591e-01,1.49493e-03,9.99999e-01,9.99999e-01,1.49493e-03,9.99999e-01
6.456570834e-01,1.69992e-03,9.99999e-01,9.99999e-01,1.69992e-03,9.99999e-01
6.488853688e-01,1.92813e-03,9.99999e-01,9.99999e-01,1.92813e-03,9.99999e-01
6.521297956e-01,2.18153e-03,9.99999e-01,9.99999e-01,2.18153e-03,9.99999e-01
6.553904446e-01,2.46222e-03,9.99999e-01,9.99999e-01,2.46222e-03,9.99999e-01
6.586673968e-01,2.77239e-03,9.99999e-01,9.99999e-01,2.77239e-03,9.99999e-01
6.619607338e-01,3.11433e-03,9.99999e-01,9.99999e-01,3.11433e-03,9.99999e-01
6.652705375e-01,3.49041e-03,9.99999e-01,9.99999e-01,3.49041e-03,9.99999e-01
6.685968902e-01,3.90311e-03,9.99999e-01,9.99999e-01,3.90311e-03,9.99999e-01
6.719398746e-01,4.35498e-03,9.99999e-01,9.99999e-01,4.35498e-03,9.99999e-01
6.752995740e-01,4.84867e-03,9.99999e-01,9.99999e-01,4.84867e-03,9.99999e-01
6.786760719e-01,5.38688e-03,9.99999e-01,9.99999e-01,5.38688e-03,9.99999e-01
6.820694522e-01,5.97240e-03,9.99999e-01,9.99999e-01,5.97240e-03,9.99999e-01
6.854797995e-01,6.60808e-03,9.99999e-01,9.99999e-01,6.60808e-03,9.99999e-01
6.889071985e-01,7.29683e-03,9.99999e-01,9.99999e-01,7.29683e-03,9.99999e-01
6.923517345e-01,8.04161e-03,9.99999e-01,9.99999e-01,8.04161e-03,9.99999e-01
6.958134932e-01,8.84540e-03,9.99999e-01,9.99999e-01,8.84540e-03,9.99999e-01
6.992925606e-01,9.71124e-03,9.99999e-01,9.99999e-01,9.71124e-03,9.99999e-01
7.027890234e-01,1.06422e-02,9.99999e-01,9.99999e-01,1.06422e-02,9.99999e-01
7.063029686e-01,1.16413e-02,9.99999e-01,9.99999e-01,1.16413e-02,9.99999e-01
7.098344834e-01,1.27117e-02,9.99999e-01,9.99999e-01,1.27117e-02,9.99999e-01
7.133836558e-01,1.38564e-02,9.99999e-01,9.99999e-01,1.38564e-02,9.99999e-01
7.169505741e-01,1.50785e-02,9.99999e-01,9.99999e-01,1.50785e-02,9.99999e-01
7.205353270e-01,1.63809e-02,9.99999e-01,9.99999e-01,1.63809e-02,9.99999e-01
7.241380036e-01,1.77668e-02,9.99999e-01,9.99999e-01,1.77668e-02,9.99999e-01
7.277586936e-01,1.92391e-02,9.99999e-01,9.99999e-01,1.92391e-02,9.99999e-01
7.313974871e-01,2.08006e-02,9.99999e-01,9.99999e-01,2.08006e-02,9.99999e-01
7.350544745e-01,2.24542e-02,9.99999e-01,9.99999e-01,2.24542e-02,9.99999e-01
7.387297469e-01,2.42027e-02,9.99999e-01,9.99999e-01,2.42027e-02,9.99999e-01
7.424233956e-01,2.60488e-02,9.99999e-01,9.99999e-01,2.60488e-02,9.99999e-01
7.461355126e-01,2.79949e-02,9.99999e-01,9.99999e-01,2.79949e-02,9.99999e-01
7.498661902e-01,3.00437e-02,9.99999e-01,9.99999e-01,3.00437e-02,9.99999e-01
7.536155211e-01,3.21974e-02,9.99999e-01,9.99999e-01,3.21974e-02,9.99999e-01
7.573835987e-01,3.44584e-02,9.99999e-01,9.99999e-01,3.44584e-02,9.99999e-01
7.611705167e-01,3.68288e-02,9.99999e-01,9.99999e-01,3.68288e-02,9.99999e-01
7.649763693e-01,3.93105e-02,9.99999e-01,9.99999e-01,3.93105e-02,9.99999e-01
7.688012511e-01,4.19055e-02,9.99999e-01,9.99999e-01,4.19055e-02,9.99999e-01
7.726452574e-01,4.46154e-02,9.99999e-01,9.99999e-01,4.46154e-02,9.99999e-01
7.765084837e-01,4.74417e-02,9.99999e-01,9.99999e-01,4.74417e-02,9.99999e-01
7.803910261e-01,4.48221e-02,9.99999e-01,8.89575e-01,5.03860e-02,9.99999e-01
7.842929812e-01,2.98967e-02,9.99999e-01,5.59346e-01,5.34493e-02,9.99999e-01
7.882144461e-01,3.06887e-02,9.99999e-01,5.41889e-01,5.66329e-02,9.99999e-01
7.921555184e-01,4.07914e-02,9.99999e-01,6.80565e-01,5.99375e-02,9.99999e-01
7.961162960e-01,4.88370e-02,9.99999e-01,7.70738e-01,6.33639e-02,9.99999e-01
8.000968774e-01,5.80740e-02,9.99999e-01,8.67906e-01,6.69127e-02,9.99999e-01
8.040973618e-01,6.55932e-02,9.99999e-01,9.29289e-01,7.05842e-02,9.99999e-01
8.081178486e-01,7.19042e-02,9.99999e-01,9.66730e-01,7.43787e-02,9.99999e-01
8.121584379e-01,7.74894e-02,9.99999e-01,9.89695e-01,7.82961e-02,9.99999e-01
8.162192301e-01,8.21482e-02,9.99999e-01,9.97714e-01,8.23363e-02,9.99999e-01
8.203003262e-01,8.64963e-02,9.99999e-01,9.99968e-01,8.64990e-02,9.99999e-01
8.244018279e-01,9.07837e-02,9.99999e-01,9.99999e-01,9.07837e-02,9.99999e-01
8.285238370e-01,9.51897e-02,9.99999e-01,9.99999e-01,9.51897e-02,9.99999e-01
8.326664562e-01,9.97161e-02,9.99999e-01,9.99999e-01,9.97161e-02,9.99999e-01
8.368297885e-01,1.04362e-01,9.99999e-01,9.99999e-01,1.04362e-01,9.99999e-01
8.410139374e-01,1.09126e-01,9.99999e-01,9.99999e-01,1.09126e-01,9.99999e-01
8.452190071e-01,1.14007e-01,9.99999e-01,9.99999e-01,1.14007e-01,9.99999e-01
8.494451021e-01,1.19003e-01,9.99999e-01,9.99999e-01,1.19003e-01,9.99999e-01
8.536923276e-01,1.24114e-01,9.99999e-01,9.99999e-01,1.24114e-01,9.99999e-01
8.579607893e-01,1.29336e-01,9.99999e-01,9.99999e-01,1.29336e-01,9.99999e-01
8.622505932e-01,1.34668e-01,9.99999e-01,9.99999e-01,1.34668e-01,9.99999e-01
8.665618462e-01,1.18831e-01,9.99999e-01,8.48133e-01,1.40108e-01,9.99999e-01
8.708946554e-01,3.52633e-02,9.99999e-01,2.42103e-01,1.45654e-01,9.99999e-01
8.752491287e-01,4.57334e-02,9.99999e-01,3.02262e-01,1.51304e-01,9.99999e-01
8.796253743e-01,7.98672e-02,9.99999e-01,5.08532e-01,1.57054e-01,9.99999e-01
8.840235012e-01,1.13666e-01,9.99999e-01,6.97753e-01,1.62903e-01,9.99999e-01
8.884436187e-01,1.46386e-01,9.99999e-01,8.66968e-01,1.68848e-01,9.99999e-01
8.928858368e-01,1.65002e-01,9.99999e-01,9.43483e-01,1.74886e-01,9.99999e-01
8.973502660e-01,1.78485e-01,9.99999e-01,9.86030e-01,1.81014e-01,9.99999e-01
9.018370173e-01,1.86940e-01,9.99999e-01,9.98454e-01,1.87229e-01,9.99999e-01
9.063462024e-01,1.85975e-01,9.99999e-01,9.60966e-01,1.93529e-01,9.99999e-01
9.108779334e-01,1.82389e-01,9.99999e-01,9.12351e-01,1.99910e-01,9.99999e-01
9.154323231e-01,2.02009e-01,9.99999e-01,9.78868e-01,2.06369e-01,9.99999e-01
9.200094847e-01,1.63830e-01,9.99999e-01,7.69505e-01,2.12904e-01,9.99999e-01
9.246095321e-01,1.40597e-01,9.99999e-01,6.40507e-01,2.19509e-01,9.99999e-01
9.292325798e-01,1.60491e-01,9.99999e-01,7.09559e-01,2.26183e-01,9.99999e-01
9.338787427e-01,1.66655e-01,9.99999e-01,7.15493e-01,2.32923e-01,9.99999e-01
9.385481364e-01,1.86904e-01,9.99999e-01,7.79662e-01,2.39724e-01,9.99999e-01
9.432408771e-01,2.11543e-01,9.99999e-01,8.57896e-01,2.46583e-01,9.99999e-01
9.479570815e-01,2.34265e-01,9.99999e-01,9.24129e-01,2.53497e-01,9.99999e-01
9.526968669e-01,2.50771e-01,9.99999e-01,9.62788e-01,2.60463e-01,9.99999e-01
9.574603512e-01,2.63172e-01,9.99999e-01,9.83903e-01,2.67477e-01,9.99999e-01
9.622476530e-01,2.73151e-01,9.99999e-01,9.94954e-01,2.74536e-01,9.99999e-01
9.670588912e-01,2.81211e-01,9.99999e-01,9.98488e-01,2.81636e-01,9.99999e-01
9.718941857e-01,2.88744e-01,9.99999e-01,9.99895e-01,2.88774e-01,9.99999e-01
9.767536566e-01,2.95947e-01,9.99999e-01,9.99999e-01,2.95947e-01,9.99999e-01
9.816374249e-01,3.03151e-01,9.99999e-01,9.99999e-01,3.03151e-01,9.99999e-01
9.865456120e-01,3.10382e-01,9.99999e-01,9.99999e-01,3.10382e-01,9.99999e-01
9.914783401e-01,3.17639e-01,9.99999e-01,9.99999e-01,3.17639e-01,9.99999e-01
9.964357318e-01,3.24916e-01,9.99999e-01,9.99999e-01,3.24916e-01,9.99999e-01
1.001417910e+00,3.32212e-01,9.99999e-01,9.99999e-01,3.32212e-01,9.99999e-01
1.006425000e+00,3.39522e-01,9.99999e-01,9.99999e-01,3.39522e-01,9.99999e-01
1.011457125e+00,3.46845e-01,9.99999e-01,9.99999e-01,3.46845e-01,9.99999e-01
1.016514411e+00,3.54175e-01,9.99999e-01,9.99999e-01,3.54175e-01,9.99999e-01
1.021596983e+00,3.61425e-01,9.99999e-01,9.99758e-01,3.61512e-01,9.99999e-01
1.026704968e+00,3.63037e-01,9.99999e-01,9.84238e-01,3.68851e-01,9.99999e-01
1.031838492e+00,3.31790e-01,9.99999e-01,8.81975e-01,3.76189e-01,9.99999e-01
1.036997685e+00,1.35974e-02,9.99999e-01,3.54539e-02,3.83524e-01,9.99999e-01
1.042182673e+00,3.54848e-04,9.99999e-01,9.07878e-04,3.90854e-01,9.99999e-01
1.047393587e+00,1.02130e-03,9.99999e-01,2.56496e-03,3.98174e-01,9.99999e-01
1.052630555e+00,1.13705e-08,9.99999e-01,2.80420e-08,4.05483e-01,9.99999e-01
1.057893707e+00,4.33438e-08,9.99999e-01,1.05005e-07,4.12777e-01,9.99999e-01
1.063183176e+00,3.35567e-06,9.99999e-01,7.98863e-06,4.20055e-01,9.99999e-01
1.068499092e+00,5.23510e-05,9.99999e-01,1.22512e-04,4.27314e-01,9.99999e-01
1.073841587e+00,1.23790e-03,9.99999e-01,2.84869e-03,4.34551e-01,9.99999e-01
1.079210795e+00,1.14180e-02,9.99999e-01,2.58464e-02,4.41764e-01,9.99999e-01
1.084606849e+00,5.50974e-02,9.99999e-01,1.22725e-01,4.48951e-01,9.99999e-01
1.090029883e+00,1.51307e-01,9.99999e-01,3.31734e-01,4.56109e-01,9.99999e-01
1.095480033e+00,2.68225e-01,9.99999e-01,5.79024e-01,4.63237e-01,9.99999e-01
1.100957433e+00,3.60695e-01,9.99999e-01,7.66894e-01,4.70332e-01,9.99999e-01
1.106462220e+00,4.27708e-01,9.99999e-01,8.95925e-01,4.77392e-01,9.99999e-01
1.111994531e+00,4.65042e-01,9.99999e-01,9.60006e-01,4.84415e-01,9.99999e-01
1.117554504e+00,4.86551e-01,9.99999e-01,9.90129e-01,4.91401e-01,9.99999e-01
1.123142276e+00,4.98023e-01,9.99999e-01,9.99352e-01,4.98345e-01,9.99999e-01
1.128757988e+00,5.05248e-01,9.99999e-01,9.99999e-01,5.05249e-01,9.99999e-01
1.134401778e+00,5.12108e-01,9.99999e-01,9.99999e-01,5.12108e-01,9.99999e-01
1.140073787e+00,5.18922e-01,9.99999e-01,9.99999e-01,5.18922e-01,9.99999e-01
1.145774156e+00,5.25690e-01,9.99999e-01,9.99999e-01,5.25690e-01,9.99999e-01
1.151503026e+00,5.32410e-01,9.99999e-01,9.99999e-01,5.32410e-01,9.99999e-01
1.157260541e+00,5.39080e-01,9.99999e-01,9.99999e-01,5.39080e-01,9.99999e-01
1.163046844e+00,5.45700e-01,9.99999e-01,9.99999e-01,5.45700e-01,9.99999e-01
1.168862078e+00,5.52268e-01,9.99999e-01,9.99999e-01,5.52268e-01,9.99999e-01
1.174706389e+00,5.58783e-01,9.99999e-01,9.99999e-01,5.58783e-01,9.99999e-01
1.180579921e+00,5.65243e-01,9.99999e-01,9.99999e-01,5.65243e-01,9.99999e-01
1.186482820e+00,5.71629e-01,9.99999e-01,9.99963e-01,5.71649e-01,9.99999e-01
1.192415234e+00,5.47533e-01,9.99999e-01,9.47291e-01,5.77998e-01,9.99999e-01
1.198377311e+00,2.89595e-01,9.99999e-01,4.95634e-01,5.84291e-01,9.99999e-01
1.204369197e+00,8.78379e-40,9.99999e-01,1.48745e-39,5.90526e-01,9.99999e-01
1.210391043e+00,1.62599e-163,9.99999e-01,2.72496e-163,5.96702e-01,9.99999e-01
1.216442998e+00,2.17503e-141,9.99999e-01,3.60810e-141,6.02819e-01,9.99999e-01
1.222525213e+00,2.95776e-139,9.99999e-01,4.85773e-139,6.08876e-01,9.99999e-01
1.228637839e+00,2.92617e-107,9.99999e-01,4.75898e-107,6.14872e-01,9.99999e-01
1.234781029e+00,2.04210e-66,9.99999e-01,3.28943e-66,6.20807e-01,9.99999e-01
1.240954934e+00,7.59378e-44,9.99999e-01,1.21175e-43,6.26681e-01,9.99999e-01
1.247159708e+00,1.09940e-20,9.99999e-01,1.73820e-20,6.32492e-01,9.99999e-01
1.253395507e+00,4.32896e-14,9.99999e-01,6.78263e-14,6.38241e-01,9.99999e-01
1.259662485e+00,3.08697e-08,9.99999e-01,4.79396e-08,6.43927e-01,9.99999e-01
1.265960797e+00,7.41782e-05,9.99999e-01,1.14199e-04,6.49550e-01,9.99999e-01
1.272290601e+00,7.96702e-03,9.99999e-01,1.21613e-02,6.55110e-01,9.99999e-01
1.278652054e+00,7.80716e-03,9.99999e-01,1.18182e-02,6.60606e-01,9.99999e-01
1.285045314e+00,2.07211e-06,9.99999e-01,3.11110e-06,6.66038e-01,9.99999e-01
1.291470541e+00,8.07966e-19,9.99999e-01,1.20339e-18,6.71406e-01,9.99999e-01
1.297927893e+00,2.49699e-06,9.99999e-01,3.68989e-06,6.76710e-01,9.99999e-01
1.304417533e+00,1.95373e-04,9.99999e-01,2.86492e-04,6.81950e-01,9.99999e-01
1.310939621e+00,4.08247e-05,9.99999e-01,5.94137e-05,6.87126e-01,9.99999e-01
1.317494319e+00,4.97243e-56,9.99999e-01,7.18311e-56,6.92238e-01,9.99999e-01
1.324081790e+00,2.81120e-25,9.99999e-01,4.03163e-25,6.97286e-01,9.99999e-01
1.330702199e+00,2.38455e-21,9.99999e-01,3.39549e-21,7.02269e-01,9.99999e-01
1.337355710e+00,2.44818e-19,9.99999e-01,3.46184e-19,7.07189e-01,9.99999e-01
1.344042489e+00,1.48222e-19,9.99999e-01,2.08164e-19,7.12045e-01,9.99999e-01
1.350762701e+00,1.12152e-21,9.99999e-01,1.56454e-21,7.16838e-01,9.99999e-01
1.357516515e+00,6.57126e-13,9.99999e-01,9.10692e-13,7.21567e-01,9.99999e-01
1.364304097e+00,1.38017e-09,9.99999e-01,1.90045e-09,7.26233e-01,9.99999e-01
1.371125618e+00,2.74147e-05,9.99999e-01,3.75113e-05,7.30837e-01,9.99999e-01
1.377981246e+00,1.01711e-04,9.99999e-01,1.38311e-04,7.35377e-01,9.99999e-01
1.384871152e+00,4.02438e-03,9.99999e-01,5.43940e-03,7.39856e-01,9.99999e-01
1.391795508e+00,6.33446e-03,9.99999e-01,8.51094e-03,7.44272e-01,9.99999e-01
1.398754485e+00,3.54166e-02,9.99999e-01,4.73087e-02,7.48626e-01,9.99999e-01
1.405748258e+00,8.29403e-02,9.99999e-01,1.10158e-01,7.52920e-01,9.99999e-01
1.412776999e+00,1.84974e-01,9.99999e-01,2.44301e-01,7.57152e-01,9.99999e-01
1.419840884e+00,1.80895e-01,9.99999e-01,2.37605e-01,7.61324e-01,9.99999e-01
1.426940089e+00,5.33237e-03,9.99999e-01,6.96645e-03,7.65436e-01,9.99999e-01
1.434074789e+00,0.00000e+00,9.99999e-01,0.00000e+00,7.69488e-01,9.99999e-01
1.441245163e+00,0.00000e+00,9.99999e-01,0.00000e+00,7.73481e-01,9.99999e-01
1.448451389e+00,0.00000e+00,9.99999e-01,0.00000e+00,7.77416e-01,9.99999e-01
1.455693646e+00,0.00000e+00,9.99999e-01,0.00000e+00,7.81291e-01,9.99999e-01
1.462972114e+00,0.00000e+00,9.99999e-01,0.00000e+00,7.85110e-01,9.99999e-01
1.470286975e+00,1.47330e-271,9.99999e-01,1.86760e-271,7.88870e-01,9.99999e-01
