#,Wave/freq,Total,O2,CO2,Rayleigh,CIA
4.000000000e-01,6.06669e-03,9.99999e-01,9.99999e-01,6.06669e-03,9.99999e-01
4.020000000e-01,6.71101e-03,9.99999e-01,9.99999e-01,6.71101e-03,9.99999e-01
4.040100000e-01,7.40823e-03,9.99999e-01,9.99999e-01,7.40823e-03,9.99999e-01
4.060300500e-01,8.16193e-03,9.99999e-01,9.99999e-01,8.16193e-03,9.99999e-01
4.080602003e-01,8.97512e-03,9.99999e-01,9.99999e-01,8.97512e-03,9.99999e-01
4.101005013e-01,9.85083e-03,9.99999e-01,9.99999e-01,9.85083e-03,9.99999e-01
4.121510038e-01,1.07921e-02,9.99999e-01,9.99999e-01,1.07921e-02,9.99999e-01
4.142117588e-01,1.18021e-02,9.99999e-01,9.99999e-01,1.18021e-02,9.99999e-01
4.162828176e-01,1.28837e-02,9.99999e-01,9.99999e-01,1.28837e-02,9.99999e-01
4.183642317e-01,1.40402e-02,9.99999e-01,9.99999e-01,1.40402e-02,9.99999e-01
4.204560528e-01,1.52745e-02,9.99999e-01,9.99999e-01,1.52745e-02,9.99999e-01
4.225583331e-01,1.65897e-02,9.99999e-01,9.99999e-01,1.65897e-02,9.99999e-01
4.246711247e-01,1.79887e-02,9.99999e-01,9.99999e-01,1.79887e-02,9.99999e-01
4.267944804e-01,1.94746e-02,9.99999e-01,9.99999e-01,1.94746e-02,9.99999e-01
4.289284528e-01,2.10502e-02,9.99999e-01,9.99999e-01,2.10502e-02,9.99999e-01
4.310730950e-01,2.27183e-02,9.99999e-01,9.99999e-01,2.27183e-02,9.99999e-01
4.332284605e-01,2.44817e-02,9.99999e-01,9.99999e-01,2.44817e-02,9.99999e-01
4.353946028e-01,2.63430e-02,9.99999e-01,9.99999e-01,2.63430e-02,9.99999e-01
4.375715758e-01,2.83049e-02,9.99999e-01,9.99999e-01,2.83049e-02,9.99999e-01
4.397594337e-01,3.03697e-02,9.99999e-01,9.99999e-01,3.03697e-02,9.99999e-01
4.419582309e-01,3.25399e-02,9.99999e-01,9.99999e-01,3.25399e-02,9.99999e-01
4.441680220e-01,3.48177e-02,9.99999e-01,9.99999e-01,3.48177e-02,9.99999e-01
4.463888621e-01,3.72051e-02,9.99999e-01,9.99999e-01,3.72051e-02,9.99999e-01
4.486208064e-01,3.97042e-02,9.99999e-01,9.99999e-01,3.97042e-02,9.99999e-01
4.508639105e-01,4.23169e-02,9.99999e-01,9.99999e-01,4.23169e-02,9.99999e-01
4.531182300e-01,4.50446e-02,9.99999e-01,9.99999e-01,4.50446e-02,9.99999e-01
4.553838212e-01,4.78891e-02,9.99999e-01,9.99999e-01,4.78891e-02,9.99999e-01
4.576607403e-01,5.08517e-02,9.99999e-01,9.99999e-01,5.08517e-02,9.99999e-01
4.599490440e-01,5.39336e-02,9.99999e-01,9.99999e-01,5.39336e-02,9.99999e-01
4.622487892e-01,5.71358e-02,9.99999e-01,9.99999e-01,5.71358e-02,9.99999e-01
4.645600332e-01,6.04592e-02,9.99999e-01,9.99999e-01,6.04592e-02,9.99999e-01
4.668828333e-01,6.39045e-02,9.99999e-01,9.99999e-01,6.39045e-02,9.99999e-01
4.692172475e-01,6.74722e-02,9.99999e-01,9.99999e-01,6.74722e-02,9.99999e-01
4.715633337e-01,7.11628e-02,9.99999e-01,9.99999e-01,7.11628e-02,9.99999e-01
4.739211504e-01,7.49762e-02,9.99999e-01,9.99999e-01,7.49762e-02,9.99999e-01
4.762907561e-01,7.89127e-02,9.99999e-01,9.99999e-01,7.89127e-02,9.99999e-01
4.786722099e-01,8.29718e-02,9.99999e-01,9.99999e-01,8.29718e-02,9.99999e-01
4.810655710e-01,8.71534e-02,9.99999e-01,9.99999e-01,8.71534e-02,9.99999e-01
4.834708988e-01,9.14569e-02,9.99999e-01,9.99999e-01,9.14569e-02,9.99999e-01
4.858882533e-01,9.58816e-02,9.99999e-01,9.99999e-01,9.58816e-02,9.99999e-01
4.883176946e-01,1.00426e-01,9.99999e-01,9.99999e-01,1.00426e-01,9.99999e-01
4.907592831e-01,1.05091e-01,9.99999e-01,9.99999e-01,1.05091e-01,9.99999e-01
4.932130795e-01,1.09873e-01,9.99999e-01,9.99999e-01,1.09873e-01,9.99999e-01
4.956791449e-01,1.14772e-01,9.99999e-01,9.99999e-01,1.14772e-01,9.99999e-01
4.981575406e-01,1.19786e-01,9.99999e-01,9.99999e-01,1.19786e-01,9.99999e-01
5.006483283e-01,1.24914e-01,9.99999e-01,9.99999e-01,1.24914e-01,9.99999e-01
5.031515699e-01,1.30153e-01,9.99999e-01,9.99999e-01,1.30153e-01,9.99999e-01
5.056673278e-01,1.35502e-01,9.99999e-01,9.99999e-01,1.35502e-01,9.99999e-01
5.081956644e-01,1.40959e-01,9.99999e-01,9.99999e-01,1.40959e-01,9.99999e-01
5.107366428e-01,1.46521e-01,9.99999e-01,9.99999e-01,1.46521e-01,9.99999e-01
5.132903260e-01,1.52186e-01,9.99999e-01,9.99999e-01,1.52186e-01,9.99999e-01
5.158567776e-01,1.57952e-01,9.99999e-01,9.99999e-01,1.57952e-01,9.99999e-01
5.184360615e-01,1.63816e-01,9.99999e-01,9.99999e-01,1.63816e-01,9.99999e-01
5.210282418e-01,1.69775e-01,9.99999e-01,9.99999e-01,1.69775e-01,9.99999e-01
5.236333830e-01,1.75827e-01,9.99999e-01,9.99999e-01,1.75827e-01,9.99999e-01
5.262515499e-01,1.81969e-01,9.99999e-01,9.99999e-01,1.81969e-01,9.99999e-01
5.288828077e-01,1.88198e-01,9.99999e-01,9.99999e-01,1.88198e-01,9.99999e-01
5.315272217e-01,1.94510e-01,9.99999e-01,9.99999e-01,1.94510e-01,9.99999e-01
5.341848578e-01,2.00904e-01,9.99999e-01,9.99999e-01,2.00904e-01,9.99999e-01
5.368557821e-01,2.07375e-01,9.99999e-01,9.99999e-01,2.07375e-01,9.99999e-01
5.395400610e-01,2.13920e-01,9.99999e-01,9.99999e-01,2.13920e-01,9.99999e-01
5.422377613e-01,2.20537e-01,9.99999e-01,9.99999e-01,2.20537e-01,9.99999e-01
5.449489501e-01,2.27221e-01,9.99999e-01,9.99999e-01,2.27221e-01,9.99999e-01
5.476736949e-01,2.33970e-01,9.99999e-01,9.99999e-01,2.33970e-01,9.99999e-01
5.504120634e-01,2.40780e-01,9.99999e-01,9.99999e-01,2.40780e-01,9.99999e-01
5.531641237e-01,2.47648e-01,9.99999e-01,9.99999e-01,2.47648e-01,9.99999e-01
5.559299443e-01,2.54571e-01,9.99999e-01,9.99999e-01,2.54571e-01,9.99999e-01
5.587095940e-01,2.61544e-01,9.99999e-01,9.99999e-01,2.61544e-01,9.99999e-01
5.615031420e-01,2.68566e-01,9.99999e-01,9.99999e-01,2.68566e-01,9.99999e-01
5.643106577e-01,2.75631e-01,9.99999e-01,9.99999e-01,2.75631e-01,9.99999e-01
5.671322110e-01,2.82737e-01,9.99999e-01,9.99999e-01,2.82737e-01,9.99999e-01
5.699678720e-01,2.89881e-01,9.99999e-01,9.99999e-01,2.89881e-01,9.99999e-01
5.728177114e-01,2.97059e-01,9.99999e-01,9.99999e-01,2.97059e-01,9.99999e-01
5.756818000e-01,3.04267e-01,9.99999e-01,9.99999e-01,3.04267e-01,9.99999e-01
5.785602090e-01,3.11503e-01,9.99999e-01,9.99999e-01,3.11503e-01,9.99999e-01
5.814530100e-01,3.18762e-01,9.99999e-01,9.99999e-01,3.18762e-01,9.99999e-01
5.843602750e-01,3.26043e-01,9.99999e-01,9.99999e-01,3.26043e-01,9.99999e-01
5.872820764e-01,3.33341e-01,9.99999e-01,9.99999e-01,3.33341e-01,9.99999e-01
5.902184868e-01,3.40654e-01,9.99999e-01,9.99999e-01,3.40654e-01,9.99999e-01
5.931695792e-01,3.47977e-01,9.99999e-01,9.99999e-01,3.47977e-01,9.99999e-01
5.961354271e-01,3.55309e-01,9.99999e-01,9.99999e-01,3.55309e-01,9.99999e-01
5.991161043e-01,3.62646e-01,9.99999e-01,9.99999e-01,3.62646e-01,9.99999e-01
6.021116848e-01,3.69985e-01,9.99999e-01,9.99999e-01,3.69985e-01,9.99999e-01
6.051222432e-01,3.77323e-01,9.99999e-01,9.99999e-01,3.77323e-01,9.99999e-01
6.081478544e-01,3.84658e-01,9.99999e-01,9.99999e-01,3.84658e-01,9.99999e-01
6.111885937e-01,3.91986e-01,9.99999e-01,9.99999e-01,3.91986e-01,9.99999e-01
6.142445367e-01,3.99305e-01,9.99999e-01,9.99999e-01,3.99305e-01,9.99999e-01
6.173157594e-01,4.06611e-01,9.99999e-01,9.99999e-01,4.06611e-01,9.99999e-01
6.204023382e-01,4.13904e-01,9.99999e-01,9.99999e-01,4.13904e-01,9.99999e-01
6.235043498e-01,4.21179e-01,9.99999e-01,9.99999e-01,4.21179e-01,9.99999e-01
6.266218716e-01,4.28434e-01,9.99999e-01,9.99999e-01,4.28434e-01,9.99999e-01
6.297549810e-01,4.35668e-01,9.99999e-01,9.99999e-01,4.35668e-01,9.99999e-01
6.329037559e-01,4.42877e-01,9.99999e-01,9.99999e-01,4.42877e-01,9.99999e-01
6.360682746e-01,4.50059e-01,9.99999e-01,9.99999e-01,4.50059e-01,9.99999e-01
6.392486160e-01,4.57213e-01,9.99999e-01,9.99999e-01,4.57213e-01,9.99999e-01
6.424448591e-01,4.64336e-01,9.99999e-01,9.99999e-01,4.64336e-01,9.99999e-01
6.456570834e-01,4.71425e-01,9.99999e-01,9.99999e-01,4.71425e-01,9.99999e-01
6.488853688e-01,4.78480e-01,9.99999e-01,9.99999e-01,4.78480e-01,9.99999e-01
6.521297956e-01,4.85498e-01,9.99999e-01,9.99999e-01,4.85498e-01,9.99999e-01
6.553904446e-01,4.92477e-01,9.99999e-01,9.99999e-01,4.92477e-01,9.99999e-01
6.586673968e-01,4.99415e-01,9.99999e-01,9.99999e-01,4.99415e-01,9.99999e-01
6.619607338e-01,5.06312e-01,9.99999e-01,9.99999e-01,5.06312e-01,9.99999e-01
6.652705375e-01,5.13164e-01,9.99999e-01,9.99999e-01,5.13164e-01,9.99999e-01
6.685968902e-01,5.19972e-01,9.99999e-01,9.99999e-01,5.19972e-01,9.99999e-01
6.719398746e-01,5.26732e-01,9.99999e-01,9.99999e-01,5.26732e-01,9.99999e-01
6.752995740e-01,5.33444e-01,9.99999e-01,9.99999e-01,5.33444e-01,9.99999e-01
6.786760719e-01,5.40107e-01,9.99999e-01,9.99999e-01,5.40107e-01,9.99999e-01
6.820694522e-01,5.46719e-01,9.99999e-01,9.99999e-01,5.46719e-01,9.99999e-01
6.854797995e-01,5.53278e-01,9.99999e-01,9.99999e-01,5.53278e-01,9.99999e-01
6.889071985e-01,5.59785e-01,9.99999e-01,9.99999e-01,5.59785e-01,9.99999e-01
6.923517345e-01,5.66237e-01,9.99999e-01,9.99999e-01,5.66237e-01,9.99999e-01
6.958134932e-01,5.72634e-01,9.99999e-01,9.99999e-01,5.72634e-01,9.99999e-01
6.992925606e-01,5.78975e-01,9.99999e-01,9.99999e-01,5.78975e-01,9.99999e-01
7.027890234e-01,5.85259e-01,9.99999e-01,9.99999e-01,5.85259e-01,9.99999e-01
7.063029686e-01,5.91484e-01,9.99999e-01,9.99999e-01,5.91484e-01,9.99999e-01
7.098344834e-01,5.97651e-01,9.99999e-01,9.99999e-01,5.97651e-01,9.99999e-01
7.133836558e-01,6.03759e-01,9.99999e-01,9.99999e-01,6.03759e-01,9.99999e-01
7.169505741e-01,6.09807e-01,9.99999e-01,9.99999e-01,6.09807e-01,9.99999e-01
7.205353270e-01,6.15793e-01,9.99999e-01,9.99999e-01,6.15793e-01,9.99999e-01
7.241380036e-01,6.21719e-01,9.99999e-01,9.99999e-01,6.21719e-01,9.99999e-01
7.277586936e-01,6.27583e-01,9.99999e-01,9.99999e-01,6.27583e-01,9.99999e-01
7.313974871e-01,6.33385e-01,9.99999e-01,9.99999e-01,6.33385e-01,9.99999e-01
7.350544745e-01,6.39124e-01,9.99999e-01,9.99999e-01,6.39124e-01,9.99999e-01
7.387297469e-01,6.44801e-01,9.99999e-01,9.99999e-01,6.44801e-01,9.99999e-01
7.424233956e-01,6.50414e-01,9.99999e-01,9.99999e-01,6.50414e-01,9.99999e-01
7.461355126e-01,6.55964e-01,9.99999e-01,9.99999e-01,6.55964e-01,9.99999e-01
7.498661902e-01,6.61450e-01,9.99999e-01,9.99999e-01,6.61450e-01,9.99999e-01
7.536155211e-01,6.66872e-01,9.99999e-01,9.99999e-01,6.66872e-01,9.99999e-01
7.573835987e-01,6.72230e-01,9.99999e-01,9.99999e-01,6.72230e-01,9.99999e-01
7.611705167e-01,6.77524e-01,9.99999e-01,9.99999e-01,6.77524e-01,9.99999e-01
7.649763693e-01,6.82755e-01,9.99999e-01,9.99999e-01,6.82755e-01,9.99999e-01
7.688012511e-01,6.87921e-01,9.99999e-01,9.99999e-01,6.87921e-01,9.99999e-01
7.726452574e-01,6.93022e-01,9.99999e-01,9.99999e-01,6.93022e-01,9.99999e-01
7.765084837e-01,6.98060e-01,9.99999e-01,9.99999e-01,6.98060e-01,9.99999e-01
7.803910261e-01,6.90329e-01,9.99999e-01,9.81928e-01,7.03034e-01,9.99999e-01
7.842929812e-01,6.56528e-01,9.99999e-01,9.27372e-01,7.07944e-01,9.99999e-01
7.882144461e-01,6.57053e-01,9.99999e-01,9.21803e-01,7.12790e-01,9.99999e-01
7.921555184e-01,6.84782e-01,9.99999e-01,9.54302e-01,7.17573e-01,9.99999e-01
7.961162960e-01,7.00212e-01,9.99999e-01,9.69429e-01,7.22293e-01,9.99999e-01
8.000968774e-01,7.14807e-01,9.99999e-01,9.83296e-01,7.26949e-01,9.99999e-01
8.040973618e-01,7.25210e-01,9.99999e-01,9.91342e-01,7.31543e-01,9.99999e-01
8.081178486e-01,7.33135e-01,9.99999e-01,9.96006e-01,7.36074e-01,9.99999e-01
8.121584379e-01,7.39634e-01,9.99999e-01,9.98773e-01,7.40542e-01,9.99999e-01
8.162192301e-01,7.44747e-01,9.99999e-01,9.99728e-01,7.44949e-01,9.99999e-01
8.203003262e-01,7.49291e-01,9.99999e-01,9.99995e-01,7.49294e-01,9.99999e-01
8.244018279e-01,7.53578e-01,9.99999e-01,9.99999e-01,7.53578e-01,9.99999e-01
8.285238370e-01,7.57801e-01,9.99999e-01,9.99999e-01,7.57801e-01,9.99999e-01
8.326664562e-01,7.61964e-01,9.99999e-01,9.99999e-01,7.61964e-01,9.99999e-01
8.368297885e-01,7.66066e-01,9.99999e-01,9.99999e-01,7.66066e-01,9.99999e-01
8.410139374e-01,7.70109e-01,9.99999e-01,9.99999e-01,7.70109e-01,9.99999e-01
8.452190071e-01,7.74093e-01,9.99999e-01,9.99999e-01,7.74093e-01,9.99999e-01
8.494451021e-01,7.78018e-01,9.99999e-01,9.99999e-01,7.78018e-01,9.99999e-01
8.536923276e-01,7.81885e-01,9.99999e-01,9.99999e-01,7.81885e-01,9.99999e-01
8.579607893e-01,7.85695e-01,9.99999e-01,9.99999e-01,7.85695e-01,9.99999e-01
8.622505932e-01,7.89447e-01,9.99999e-01,9.99999e-01,7.89447e-01,9.99999e-01
8.665618462e-01,7.55485e-01,9.99999e-01,9.52521e-01,7.93142e-01,9.99999e-01
8.708946554e-01,6.55556e-01,9.99999e-01,8.22755e-01,7.96781e-01,9.99999e-01
8.752491287e-01,6.85599e-01,9.99999e-01,8.56608e-01,8.00364e-01,9.99999e-01
8.796253743e-01,7.39074e-01,9.99999e-01,9.19369e-01,8.03893e-01,9.99999e-01
8.840235012e-01,7.73096e-01,9.99999e-01,9.57552e-01,8.07366e-01,9.99999e-01
8.884436187e-01,7.97116e-01,9.99999e-01,9.83139e-01,8.10786e-01,9.99999e-01
8.928858368e-01,8.08559e-01,9.99999e-01,9.93129e-01,8.14152e-01,9.99999e-01
8.973502660e-01,8.16104e-01,9.99999e-01,9.98334e-01,8.17465e-01,9.99999e-01
9.018370173e-01,8.20576e-01,9.99999e-01,9.99816e-01,8.20726e-01,9.99999e-01
9.063462024e-01,8.19953e-01,9.99999e-01,9.95166e-01,8.23935e-01,9.99999e-01
9.108779334e-01,8.18124e-01,9.99999e-01,9.89156e-01,8.27093e-01,9.99999e-01
9.154323231e-01,8.28095e-01,9.99999e-01,9.97463e-01,8.30200e-01,9.99999e-01
9.200094847e-01,8.01413e-01,9.99999e-01,9.61783e-01,8.33257e-01,9.99999e-01
9.246095321e-01,7.92702e-01,9.99999e-01,9.47906e-01,8.36265e-01,9.99999e-01
9.292325798e-01,8.04344e-01,9.99999e-01,9.58436e-01,8.39224e-01,9.99999e-01
9.338787427e-01,8.08627e-01,9.99999e-01,9.60210e-01,8.42134e-01,9.99999e-01
9.385481364e-01,8.20205e-01,9.99999e-01,9.70658e-01,8.44997e-01,9.99999e-01
9.432408771e-01,8.32548e-01,9.99999e-01,9.81994e-01,8.47813e-01,9.99999e-01
9.479570815e-01,8.42682e-01,9.99999e-01,9.90711e-01,8.50582e-01,9.99999e-01
9.526968669e-01,8.49481e-01,9.99999e-01,9.95516e-01,8.53306e-01,9.99999e-01
9.574603512e-01,8.54343e-01,9.99999e-01,9.98082e-01,8.55984e-01,9.99999e-01
9.622476530e-01,8.58104e-01,9.99999e-01,9.99401e-01,8.58617e-01,9.99999e-01
9.670588912e-01,8.61052e-01,9.99999e-01,9.99820e-01,8.61206e-01,9.99999e-01
9.718941857e-01,8.63741e-01,9.99999e-01,9.99987e-01,8.63752e-01,9.99999e-01
9.767536566e-01,8.66254e-01,9.99999e-01,9.99999e-01,8.66254e-01,9.99999e-01
9.816374249e-01,8.68714e-01,9.99999e-01,9.99999e-01,8.68714e-01,9.99999e-01
9.865456120e-01,8.71133e-01,9.99999e-01,9.99999e-01,8.71133e-01,9.99999e-01
9.914783401e-01,8.73510e-01,9.99999e-01,9.99999e-01,8.73510e-01,9.99999e-01
9.964357318e-01,8.75846e-01,9.99999e-01,9.99999e-01,8.75846e-01,9.99999e-01
1.001417910e+00,8.78143e-01,9.99999e-01,9.99999e-01,8.78143e-01,9.99999e-01
1.006425000e+00,8.80399e-01,9.99999e-01,9.99999e-01,8.80399e-01,9.99999e-01
1.011457125e+00,8.82617e-01,9.99999e-01,9.99999e-01,8.82617e-01,9.99999e-01
1.016514411e+00,8.84797e-01,9.99999e-01,9.99999e-01,8.84797e-01,9.99999e-01
1.021596983e+00,8.86914e-01,9.99999e-01,9.99971e-01,8.86939e-01,9.99999e-01
1.026704968e+00,8.87367e-01,9.99999e-01,9.98114e-01,8.89043e-01,9.99999e-01
1.031838492e+00,8.65462e-01,9.99999e-01,9.71216e-01,8.91111e-01,9.99999e-01
1.036997685e+00,2.51715e-01,9.99999e-01,2.81830e-01,8.93142e-01,9.99999e-01
1.042182673e+00,3.00479e-01,9.99999e-01,3.35678e-01,8.95138e-01,9.99999e-01
1.047393587e+00,2.78146e-01,9.99999e-01,3.10050e-01,8.97099e-01,9.99999e-01
1.052630555e+00,4.06659e-02,9.99999e-01,4.52333e-02,8.99025e-01,9.99999e-01
1.057893707e+00,7.76438e-02,9.99999e-01,8.61830e-02,9.00917e-01,9.99999e-01
1.063183176e+00,1.52548e-01,9.99999e-01,1.68976e-01,9.02776e-01,9.99999e-01
1.068499092e+00,2.75088e-01,9.99999e-01,3.04098e-01,9.04602e-01,9.99999e-01
1.073841587e+00,4.28757e-01,9.99999e-01,4.73035e-01,9.06395e-01,9.99999e-01
1.079210795e+00,5.66244e-01,9.99999e-01,6.23509e-01,9.08156e-01,9.99999e-01
1.084606849e+00,7.03293e-01,9.99999e-01,7.72945e-01,9.09886e-01,9.99999e-01
1.090029883e+00,7.97715e-01,9.99999e-01,8.75085e-01,9.11585e-01,9.99999e-01
1.095480033e+00,8.55260e-01,9.99999e-01,9.36497e-01,9.13253e-01,9.99999e-01
1.100957433e+00,8.86456e-01,9.99999e-01,9.68919e-01,9.14892e-01,9.99999e-01
1.106462220e+00,9.04631e-01,9.99999e-01,9.87048e-01,9.16500e-01,9.99999e-01
1.111994531e+00,9.13657e-01,9.99999e-01,9.95181e-01,9.18080e-01,9.99999e-01
1.117554504e+00,9.18552e-01,9.99999e-01,9.98825e-01,9.19631e-01,9.99999e-01
1.123142276e+00,9.21084e-01,9.99999e-01,9.99922e-01,9.21155e-01,9.99999e-01
1.128757988e+00,9.22650e-01,9.99999e-01,9.99999e-01,9.22650e-01,9.99999e-01
1.134401778e+00,9.24118e-01,9.99999e-01,9.99999e-01,9.24118e-01,9.99999e-01
1.140073787e+00,9.25560e-01,9.99999e-01,9.99999e-01,9.25560e-01,9.99999e-01
1.145774156e+00,9.26975e-01,9.99999e-01,9.99999e-01,9.26975e-01,9.99999e-01
1.151503026e+00,9.28365e-01,9.99999e-01,9.99999e-01,9.28365e-01,9.99999e-01
1.157260541e+00,9.29729e-01,9.99999e-01,9.99999e-01,9.29729e-01,9.99999e-01
1.163046844e+00,9.31068e-01,9.99999e-01,9.99999e-01,9.31068e-01,9.99999e-01
1.168862078e+00,9.32382e-01,9.99999e-01,9.99999e-01,9.32382e-01,9.99999e-01
1.174706389e+00,9.33673e-01,9.99999e-01,9.99999e-01,9.33673e-01,9.99999e-01
1.180579921e+00,9.34939e-01,9.99999e-01,9.99999e-01,9.34939e-01,9.99999e-01
1.186482820e+00,9.36178e-01,9.99999e-01,9.99995e-01,9.36182e-01,9.99999e-01
1.192415234e+00,9.31036e-01,9.99999e-01,9.93207e-01,9.37402e-01,9.99999e-01
1.198377311e+00,5.47816e-01,9.99999e-01,5.83652e-01,9.38600e-01,9.99999e-01
1.204369197e+00,1.12430e-06,9.99999e-01,1.19635e-06,9.39776e-01,9.99999e-01
1.210391043e+00,2.85795e-21,9.99999e-01,3.03737e-21,9.40929e-01,9.99999e-01
1.216442998e+00,1.17465e-18,9.99999e-01,1.24689e-18,9.42062e-01,9.99999e-01
1.222525213e+00,2.17894e-18,9.99999e-01,2.31022e-18,9.43173e-01,9.99999e-01
1.228637839e+00,3.76974e-14,9.99999e-01,3.99225e-14,9.44263e-01,9.99999e-01
1.234781029e+00,8.48406e-10,9.99999e-01,8.97466e-10,9.45334e-01,9.99999e-01
1.240954934e+00,1.21643e-06,9.99999e-01,1.28535e-06,9.46384e-01,9.99999e-01
1.247159708e+00,4.68512e-04,9.99999e-01,4.94516e-04,9.47415e-01,9.99999e-01
1.253395507e+00,1.42554e-02,9.99999e-01,1.50306e-02,9.48426e-01,9.99999e-01
1.259662485e+00,8.76124e-02,9.99999e-01,9.22800e-02,9.49419e-01,9.99999e-01
1.265960797e+00,2.39189e-01,9.99999e-01,2.51673e-01,9.50392e-01,9.99999e-01
1.272290601e+00,5.39943e-01,9.99999e-01,5.67555e-01,9.51348e-01,9.99999e-01
1.278652054e+00,4.75195e-01,9.99999e-01,4.99004e-01,9.52286e-01,9.99999e-01
1.285045314e+00,2.76137e-02,9.99999e-01,2.89693e-02,9.53206e-01,9.99999e-01
1.291470541e+00,3.49900e-03,9.99999e-01,3.66729e-03,9.54109e-01,9.99999e-01
1.297927893e+00,6.37100e-02,9.99999e-01,6.67124e-02,9.54994e-01,9.99999e-01
1.304417533e+00,3.42208e-01,9.99999e-01,3.58009e-01,9.55863e-01,9.99999e-01
1.310939621e+00,6.47636e-02,9.99999e-01,6.76936e-02,9.56716e-01,9.99999e-01
1.317494319e+00,9.07340e-08,9.99999e-01,9.47560e-08,9.57552e-01,9.99999e-01
1.324081790e+00,1.02201e-05,9.99999e-01,1.06640e-05,9.58373e-01,9.99999e-01
1.330702199e+00,2.18254e-03,9.99999e-01,2.27542e-03,9.59178e-01,9.99999e-01
1.337355710e+00,1.59118e-03,9.99999e-01,1.65753e-03,9.59968e-01,9.99999e-01
1.344042489e+00,5.30885e-04,9.99999e-01,5.52577e-04,9.60743e-01,9.99999e-01
1.350762701e+00,1.68739e-03,9.99999e-01,1.75495e-03,9.61504e-01,9.99999e-01
1.357516515e+00,1.48348e-02,9.99999e-01,1.54168e-02,9.62249e-01,9.99999e-01
1.364304097e+00,7.14920e-02,9.99999e-01,7.42402e-02,9.62981e-01,9.99999e-01
1.371125618e+00,2.44216e-01,9.99999e-01,2.53415e-01,9.63699e-01,9.99999e-01
1.377981246e+00,3.21469e-01,9.99999e-01,3.33334e-01,9.64403e-01,9.99999e-01
1.384871152e+00,5.09366e-01,9.99999e-01,5.27789e-01,9.65094e-01,9.99999e-01
1.391795508e+00,5.35333e-01,9.99999e-01,5.54306e-01,9.65771e-01,9.99999e-01
1.398754485e+00,6.72428e-01,9.99999e-01,6.95781e-01,9.66436e-01,9.99999e-01
1.405748258e+00,7.40070e-01,9.99999e-01,7.65255e-01,9.67088e-01,9.99999e-01
1.412776999e+00,8.17589e-01,9.99999e-01,8.44854e-01,9.67727e-01,9.99999e-01
1.419840884e+00,7.55107e-01,9.99999e-01,7.79782e-01,9.68354e-01,9.99999e-01
1.426940089e+00,1.00224e-01,9.99999e-01,1.03433e-01,9.68970e-01,9.99999e-01
1.434074789e+00,7.08788e-300,9.99999e-01,7.31031e-300,9.69573e-01,9.99999e-01
1.441245163e+00,0.00000e+00,9.99999e-01,0.00000e+00,9.70165e-01,9.99999e-01
1.448451389e+00,0.00000e+00,9.99999e-01,0.00000e+00,9.70746e-01,9.99999e-01
1.455693646e+00,8.94973e-163,9.99999e-01,9.21402e-163,9.71315e-01,9.99999e-01
1.462972114e+00,1.86155e-79,9.99999e-01,1.91542e-79,9.71874e-01,9.99999e-01
1.470286975e+00,5.13768e-34,9.99999e-01,5.28338e-34,9.72422e-01,9.99999e-01
