#,Wave/freq,Total,O2,CO2,Rayleigh,CIA
4.000000000e-01,1.03377e-03,9.99999e-01,9.99999e-01,1.03377e-03,9.99999e-01
4.020000000e-01,1.18429e-03,9.99999e-01,9.99999e-01,1.18429e-03,9.99999e-01
4.040100000e-01,1.35290e-03,9.99999e-01,9.99999e-01,1.35290e-03,9.99999e-01
4.060300500e-01,1.54145e-03,9.99999e-01,9.99999e-01,1.54145e-03,9.99999e-01
4.080602003e-01,1.75176e-03,9.99999e-01,9.99999e-01,1.75176e-03,9.99999e-01
4.101005013e-01,1.98574e-03,9.99999e-01,9.99999e-01,1.98574e-03,9.99999e-01
4.121510038e-01,2.24541e-03,9.99999e-01,9.99999e-01,2.24541e-03,9.99999e-01
4.142117588e-01,2.53287e-03,9.99999e-01,9.99999e-01,2.53287e-03,9.99999e-01
4.162828176e-01,2.85035e-03,9.99999e-01,9.99999e-01,2.85035e-03,9.99999e-01
4.183642317e-01,3.20015e-03,9.99999e-01,9.99999e-01,3.20015e-03,9.99999e-01
4.204560528e-01,3.58467e-03,9.99999e-01,9.99999e-01,3.58467e-03,9.99999e-01
4.225583331e-01,4.00641e-03,9.99999e-01,9.99999e-01,4.00641e-03,9.99999e-01
4.246711247e-01,4.46794e-03,9.99999e-01,9.99999e-01,4.46794e-03,9.99999e-01
4.267944804e-01,4.97191e-03,9.99999e-01,9.99999e-01,4.97191e-03,9.99999e-01
4.289284528e-01,5.52106e-03,9.99999e-01,9.99999e-01,5.52106e-03,9.99999e-01
4.310730950e-01,6.11819e-03,9.99999e-01,9.99999e-01,6.11819e-03,9.99999e-01
4.332284605e-01,6.76617e-03,9.99999e-01,9.99999e-01,6.76617e-03,9.99999e-01
4.353946028e-01,7.46791e-03,9.99999e-01,9.99999e-01,7.46791e-03,9.99999e-01
4.375715758e-01,8.22637e-03,9.99999e-01,9.99999e-01,8.22637e-03,9.99999e-01
4.397594337e-01,9.04458e-03,9.99999e-01,9.99999e-01,9.04458e-03,9.99999e-01
4.419582309e-01,9.92555e-03,9.99999e-01,9.99999e-01,9.92555e-03,9.99999e-01
4.441680220e-01,1.08724e-02,9.99999e-01,9.99999e-01,1.08724e-02,9.99999e-01
4.463888621e-01,1.18881e-02,9.99999e-01,9.99999e-01,1.18881e-02,9.99999e-01
4.486208064e-01,1.29757e-02,9.99999e-01,9.99999e-01,1.29757e-02,9.99999e-01
4.508639105e-01,1.41385e-02,9.99999e-01,9.99999e-01,1.41385e-02,9.99999e-01
4.531182300e-01,1.53793e-02,9.99999e-01,9.99999e-01,1.53793e-02,9.99999e-01
4.553838212e-01,1.67013e-02,9.99999e-01,9.99999e-01,1.67013e-02,9.99999e-01
4.576607403e-01,1.81073e-02,9.99999e-01,9.99999e-01,1.81073e-02,9.99999e-01
4.599490440e-01,1.96005e-02,9.99999e-01,9.99999e-01,1.96005e-02,9.99999e-01
4.622487892e-01,2.11835e-02,9.99999e-01,9.99999e-01,2.11835e-02,9.99999e-01
4.645600332e-01,2.28593e-02,9.99999e-01,9.99999e-01,2.28593e-02,9.99999e-01
4.668828333e-01,2.46307e-02,9.99999e-01,9.99999e-01,2.46307e-02,9.99999e-01
4.692172475e-01,2.65002e-02,9.99999e-01,9.99999e-01,2.65002e-02,9.99999e-01
4.715633337e-01,2.84704e-02,9.99999e-01,9.99999e-01,2.84704e-02,9.99999e-01
4.739211504e-01,3.05438e-02,9.99999e-01,9.99999e-01,3.05438e-02,9.99999e-01
4.762907561e-01,3.27227e-02,9.99999e-01,9.99999e-01,3.27227e-02,9.99999e-01
4.786722099e-01,3.50094e-02,9.99999e-01,9.99999e-01,3.50094e-02,9.99999e-01
4.810655710e-01,3.74060e-02,9.99999e-01,9.99999e-01,3.74060e-02,9.99999e-01
4.834708988e-01,3.99143e-02,9.99999e-01,9.99999e-01,3.99143e-02,9.99999e-01
4.858882533e-01,4.25363e-02,9.99999e-01,9.99999e-01,4.25363e-02,9.99999e-01
4.883176946e-01,4.52736e-02,9.99999e-01,9.99999e-01,4.52736e-02,9.99999e-01
4.907592831e-01,4.81278e-02,9.99999e-01,9.99999e-01,4.81278e-02,9.99999e-01
4.932130795e-01,5.11001e-02,9.99999e-01,9.99999e-01,5.11001e-02,9.99999e-01
4.956791449e-01,5.41918e-02,9.99999e-01,9.99999e-01,5.41918e-02,9.99999e-01
4.981575406e-01,5.74039e-02,9.99999e-01,9.99999e-01,5.74039e-02,9.99999e-01
5.006483283e-01,6.07373e-02,9.99999e-01,9.99999e-01,6.07373e-02,9.99999e-01
5.031515699e-01,6.41926e-02,9.99999e-01,9.99999e-01,6.41926e-02,9.99999e-01
5.056673278e-01,6.77704e-02,9.99999e-01,9.99999e-01,6.77704e-02,9.99999e-01
5.081956644e-01,7.14710e-02,9.99999e-01,9.99999e-01,7.14710e-02,9.99999e-01
5.107366428e-01,7.52946e-02,9.99999e-01,9.99999e-01,7.52946e-02,9.99999e-01
5.132903260e-01,7.92411e-02,9.99999e-01,9.99999e-01,7.92411e-02,9.99999e-01
5.158567776e-01,8.33104e-02,9.99999e-01,9.99999e-01,8.33104e-02,9.99999e-01
5.184360615e-01,8.75020e-02,9.99999e-01,9.99999e-01,8.75020e-02,9.99999e-01
5.210282418e-01,9.18154e-02,9.99999e-01,9.99999e-01,9.18154e-02,9.99999e-01
5.236333830e-01,9.62500e-02,9.99999e-01,9.99999e-01,9.62500e-02,9.99999e-01
5.262515499e-01,1.00805e-01,9.99999e-01,9.99999e-01,1.00805e-01,9.99999e-01
5.288828077e-01,1.05479e-01,9.99999e-01,9.99999e-01,1.05479e-01,9.99999e-01
5.315272217e-01,1.10271e-01,9.99999e-01,9.99999e-01,1.10271e-01,9.99999e-01
5.341848578e-01,1.15179e-01,9.99999e-01,9.99999e-01,1.15179e-01,9.99999e-01
5.368557821e-01,1.20203e-01,9.99999e-01,9.99999e-01,1.20203e-01,9.99999e-01
5.395400610e-01,1.25339e-01,9.99999e-01,9.99999e-01,1.25339e-01,9.99999e-01
5.422377613e-01,1.30588e-01,9.99999e-01,9.99999e-01,1.30588e-01,9.99999e-01
5.449489501e-01,1.35946e-01,9.99999e-01,9.99999e-01,1.35946e-01,9.99999e-01
5.476736949e-01,1.41411e-01,9.99999e-01,9.99999e-01,1.41411e-01,9.99999e-01
5.504120634e-01,1.46982e-01,9.99999e-01,9.99999e-01,1.46982e-01,9.99999e-01
5.531641237e-01,1.52656e-01,9.99999e-01,9.99999e-01,1.52656e-01,9.99999e-01
5.559299443e-01,1.58430e-01,9.99999e-01,9.99999e-01,1.58430e-01,9.99999e-01
5.587095940e-01,1.64301e-01,9.99999e-01,9.99999e-01,1.64301e-01,9.99999e-01
5.615031420e-01,1.70269e-01,9.99999e-01,9.99999e-01,1.70269e-01,9.99999e-01
5.643106577e-01,1.76328e-01,9.99999e-01,9.99999e-01,1.76328e-01,9.99999e-01
5.671322110e-01,1.82477e-01,9.99999e-01,9.99999e-01,1.82477e-01,9.99999e-01
5.699678720e-01,1.88713e-01,9.99999e-01,9.99999e-01,1.88713e-01,9.99999e-01
5.728177114e-01,1.95032e-01,9.99999e-01,9.99999e-01,1.95032e-01,9.99999e-01
5.756818000e-01,2.01432e-01,9.99999e-01,9.99999e-01,2.01432e-01,9.99999e-01
5.785602090e-01,2.07909e-01,9.99999e-01,9.99999e-01,2.07909e-01,9.99999e-01
5.814530100e-01,2.14460e-01,9.99999e-01,9.99999e-01,2.14460e-01,9.99999e-01
5.843602750e-01,2.21083e-01,9.99999e-01,9.99999e-01,2.21083e-01,9.99999e-01
5.872820764e-01,2.27772e-01,9.99999e-01,9.99999e-01,2.27772e-01,9.99999e-01
5.902184868e-01,2.34527e-01,9.99999e-01,9.99999e-01,2.34527e-01,9.99999e-01
5.931695792e-01,2.41342e-01,9.99999e-01,9.99999e-01,2.41342e-01,9.99999e-01
5.961354271e-01,2.48214e-01,9.99999e-01,9.99999e-01,2.48214e-01,9.99999e-01
5.991161043e-01,2.55141e-01,9.99999e-01,9.99999e-01,2.55141e-01,9.99999e-01
6.021116848e-01,2.62119e-01,9.99999e-01,9.99999e-01,2.62119e-01,9.99999e-01
6.051222432e-01,2.69144e-01,9.99999e-01,9.99999e-01,2.69144e-01,9.99999e-01
6.081478544e-01,2.76213e-01,9.99999e-01,9.99999e-01,2.76213e-01,9.99999e-01
6.111885937e-01,2.83322e-01,9.99999e-01,9.99999e-01,2.83322e-01,9.99999e-01
6.142445367e-01,2.90469e-01,9.99999e-01,9.99999e-01,2.90469e-01,9.99999e-01
6.173157594e-01,2.97649e-01,9.99999e-01,9.99999e-01,2.97649e-01,9.99999e-01
6.204023382e-01,3.04860e-01,9.99999e-01,9.99999e-01,3.04860e-01,9.99999e-01
6.235043498e-01,3.12097e-01,9.99999e-01,9.99999e-01,3.12097e-01,9.99999e-01
6.266218716e-01,3.19359e-01,9.99999e-01,9.99999e-01,3.19359e-01,9.99999e-01
6.297549810e-01,3.26641e-01,9.99999e-01,9.99999e-01,3.26641e-01,9.99999e-01
6.329037559e-01,3.33941e-01,9.99999e-01,9.99999e-01,3.33941e-01,9.99999e-01
6.360682746e-01,3.41254e-01,9.99999e-01,9.99999e-01,3.41254e-01,9.99999e-01
6.392486160e-01,3.48579e-01,9.99999e-01,9.99999e-01,3.48579e-01,9.99999e-01
6.424448591e-01,3.55911e-01,9.99999e-01,9.99999e-01,3.55911e-01,9.99999e-01
6.456570834e-01,3.63248e-01,9.99999e-01,9.99999e-01,3.63248e-01,9.99999e-01
6.488853688e-01,3.70587e-01,9.99999e-01,9.99999e-01,3.70587e-01,9.99999e-01
6.521297956e-01,3.77925e-01,9.99999e-01,9.99999e-01,3.77925e-01,9.99999e-01
6.553904446e-01,3.85260e-01,9.99999e-01,9.99999e-01,3.85260e-01,9.99999e-01
6.586673968e-01,3.92587e-01,9.99999e-01,9.99999e-01,3.92587e-01,9.99999e-01
6.619607338e-01,3.99905e-01,9.99999e-01,9.99999e-01,3.99905e-01,9.99999e-01
6.652705375e-01,4.07210e-01,9.99999e-01,9.99999e-01,4.07210e-01,9.99999e-01
6.685968902e-01,4.14501e-01,9.99999e-01,9.99999e-01,4.14501e-01,9.99999e-01
6.719398746e-01,4.21775e-01,9.99999e-01,9.99999e-01,4.21775e-01,9.99999e-01
6.752995740e-01,4.29029e-01,9.99999e-01,9.99999e-01,4.29029e-01,9.99999e-01
6.786760719e-01,4.36260e-01,9.99999e-01,9.99999e-01,4.36260e-01,9.99999e-01
6.820694522e-01,4.43467e-01,9.99999e-01,9.99999e-01,4.43467e-01,9.99999e-01
6.854797995e-01,4.50647e-01,9.99999e-01,9.99999e-01,4.50647e-01,9.99999e-01
6.889071985e-01,4.57799e-01,9.99999e-01,9.99999e-01,4.57799e-01,9.99999e-01
6.923517345e-01,4.64919e-01,9.99999e-01,9.99999e-01,4.64919e-01,9.99999e-01
6.958134932e-01,4.72005e-01,9.99999e-01,9.99999e-01,4.72005e-01,9.99999e-01
6.992925606e-01,4.79057e-01,9.99999e-01,9.99999e-01,4.79057e-01,9.99999e-01
7.027890234e-01,4.86072e-01,9.99999e-01,9.99999e-01,4.86072e-01,9.99999e-01
7.063029686e-01,4.93048e-01,9.99999e-01,9.99999e-01,4.93048e-01,9.99999e-01
7.098344834e-01,4.99983e-01,9.99999e-01,9.99999e-01,4.99983e-01,9.99999e-01
7.133836558e-01,5.06876e-01,9.99999e-01,9.99999e-01,5.06876e-01,9.99999e-01
7.169505741e-01,5.13725e-01,9.99999e-01,9.99999e-01,5.13725e-01,9.99999e-01
7.205353270e-01,5.20528e-01,9.99999e-01,9.99999e-01,5.20528e-01,9.99999e-01
7.241380036e-01,5.27285e-01,9.99999e-01,9.99999e-01,5.27285e-01,9.99999e-01
7.277586936e-01,5.33993e-01,9.99999e-01,9.99999e-01,5.33993e-01,9.99999e-01
7.313974871e-01,5.40651e-01,9.99999e-01,9.99999e-01,5.40651e-01,9.99999e-01
7.350544745e-01,5.47259e-01,9.99999e-01,9.99999e-01,5.47259e-01,9.99999e-01
7.387297469e-01,5.53814e-01,9.99999e-01,9.99999e-01,5.53814e-01,9.99999e-01
7.424233956e-01,5.60316e-01,9.99999e-01,9.99999e-01,5.60316e-01,9.99999e-01
7.461355126e-01,5.66764e-01,9.99999e-01,9.99999e-01,5.66764e-01,9.99999e-01
7.498661902e-01,5.73157e-01,9.99999e-01,9.99999e-01,5.73157e-01,9.99999e-01
7.536155211e-01,5.79493e-01,9.99999e-01,9.99999e-01,5.79493e-01,9.99999e-01
7.573835987e-01,5.85772e-01,9.99999e-01,9.99999e-01,5.85772e-01,9.99999e-01
7.611705167e-01,5.91993e-01,9.99999e-01,9.99999e-01,5.91993e-01,9.99999e-01
7.649763693e-01,5.98155e-01,9.99999e-01,9.99999e-01,5.98155e-01,9.99999e-01
7.688012511e-01,6.04258e-01,9.99999e-01,9.99999e-01,6.04258e-01,9.99999e-01
7.726452574e-01,6.10300e-01,9.99999e-01,9.99999e-01,6.10300e-01,9.99999e-01
7.765084837e-01,6.16282e-01,9.99999e-01,9.99999e-01,6.16282e-01,9.99999e-01
7.803910261e-01,6.07118e-01,9.99999e-01,9.75755e-01,6.22203e-01,9.99999e-01
7.842929812e-01,5.67868e-01,9.99999e-01,9.04159e-01,6.28062e-01,9.99999e-01
7.882144461e-01,5.68424e-01,9.99999e-01,8.96767e-01,6.33858e-01,9.99999e-01
7.921555184e-01,6.00578e-01,9.99999e-01,9.39000e-01,6.39592e-01,9.99999e-01
7.961162960e-01,6.18914e-01,9.99999e-01,9.59164e-01,6.45264e-01,9.99999e-01
8.000968774e-01,6.36301e-01,9.99999e-01,9.77612e-01,6.50872e-01,9.99999e-01
8.040973618e-01,6.48798e-01,9.99999e-01,9.88394e-01,6.56416e-01,9.99999e-01
8.081178486e-01,6.58346e-01,9.99999e-01,9.94634e-01,6.61897e-01,9.99999e-01
8.121584379e-01,6.66219e-01,9.99999e-01,9.98358e-01,6.67314e-01,9.99999e-01
8.162192301e-01,6.72423e-01,9.99999e-01,9.99636e-01,6.72667e-01,9.99999e-01
8.203003262e-01,6.77953e-01,9.99999e-01,9.99994e-01,6.77956e-01,9.99999e-01
8.244018279e-01,6.83181e-01,9.99999e-01,9.99999e-01,6.83181e-01,9.99999e-01
8.285238370e-01,6.88342e-01,9.99999e-01,9.99999e-01,6.88342e-01,9.99999e-01
8.326664562e-01,6.93438e-01,9.99999e-01,9.99999e-01,6.93438e-01,9.99999e-01
8.368297885e-01,6.98471e-01,9.99999e-01,9.99999e-01,6.98471e-01,9.99999e-01
8.410139374e-01,7.03439e-01,9.99999e-01,9.99999e-01,7.03439e-01,9.99999e-01
8.452190071e-01,7.08344e-01,9.99999e-01,9.99999e-01,7.08344e-01,9.99999e-01
8.494451021e-01,7.13185e-01,9.99999e-01,9.99999e-01,7.13185e-01,9.99999e-01
8.536923276e-01,7.17963e-01,9.99999e-01,9.99999e-01,7.17963e-01,9.99999e-01
8.579607893e-01,7.22677e-01,9.99999e-01,9.99999e-01,7.22677e-01,9.99999e-01
8.622505932e-01,7.27328e-01,9.99999e-01,9.99999e-01,7.27328e-01,9.99999e-01
8.665618462e-01,6.88372e-01,9.99999e-01,9.40505e-01,7.31917e-01,9.99999e-01
8.708946554e-01,5.67952e-01,9.99999e-01,7.71209e-01,7.36443e-01,9.99999e-01
8.752491287e-01,6.02526e-01,9.99999e-01,8.13228e-01,7.40906e-01,9.99999e-01
8.796253743e-01,6.65891e-01,9.99999e-01,8.93443e-01,7.45308e-01,9.99999e-01
8.840235012e-01,7.07240e-01,9.99999e-01,9.43429e-01,7.49648e-01,9.99999e-01
8.884436187e-01,7.36918e-01,9.99999e-01,9.77439e-01,7.53927e-01,9.99999e-01
8.928858368e-01,7.51161e-01,9.99999e-01,9.90786e-01,7.58145e-01,9.99999e-01
8.973502660e-01,7.60602e-01,9.99999e-01,9.97768e-01,7.62303e-01,9.99999e-01
9.018370173e-01,7.66213e-01,9.99999e-01,9.99754e-01,7.66400e-01,9.99999e-01
9.063462024e-01,7.65399e-01,9.99999e-01,9.93458e-01,7.70439e-01,9.99999e-01
9.108779334e-01,7.63155e-01,9.99999e-01,9.85455e-01,7.74418e-01,9.99999e-01
9.154323231e-01,7.75698e-01,9.99999e-01,9.96607e-01,7.78338e-01,9.99999e-01
9.200094847e-01,7.42487e-01,9.99999e-01,9.49227e-01,7.82200e-01,9.99999e-01
9.246095321e-01,7.31490e-01,9.99999e-01,9.30642e-01,7.86005e-01,9.99999e-01
9.292325798e-01,7.45867e-01,9.99999e-01,9.44431e-01,7.89752e-01,9.99999e-01
9.338787427e-01,7.51335e-01,9.99999e-01,9.46930e-01,7.93443e-01,9.99999e-01
9.385481364e-01,7.65797e-01,9.99999e-01,9.60756e-01,7.97077e-01,9.99999e-01
9.432408771e-01,7.81343e-01,9.99999e-01,9.75877e-01,8.00656e-01,9.99999e-01
9.479570815e-01,7.94150e-01,9.99999e-01,9.87528e-01,8.04180e-01,9.99999e-01
9.526968669e-01,8.02788e-01,9.99999e-01,9.93980e-01,8.07649e-01,9.99999e-01
9.574603512e-01,8.08976e-01,9.99999e-01,9.97425e-01,8.11064e-01,9.99999e-01
9.622476530e-01,8.13773e-01,9.99999e-01,9.99197e-01,8.14426e-01,9.99999e-01
9.670588912e-01,8.17539e-01,9.99999e-01,9.99759e-01,8.17735e-01,9.99999e-01
9.718941857e-01,8.20978e-01,9.99999e-01,9.99983e-01,8.20991e-01,9.99999e-01
9.767536566e-01,8.24196e-01,9.99999e-01,9.99999e-01,8.24196e-01,9.99999e-01
9.816374249e-01,8.27350e-01,9.99999e-01,9.99999e-01,8.27350e-01,9.99999e-01
9.865456120e-01,8.30453e-01,9.99999e-01,9.99999e-01,8.30453e-01,9.99999e-01
9.914783401e-01,8.33506e-01,9.99999e-01,9.99999e-01,8.33506e-01,9.99999e-01
9.964357318e-01,8.36510e-01,9.99999e-01,9.99999e-01,8.36510e-01,9.99999e-01
1.001417910e+00,8.39465e-01,9.99999e-01,9.99999e-01,8.39465e-01,9.99999e-01
1.006425000e+00,8.42371e-01,9.99999e-01,9.99999e-01,8.42371e-01,9.99999e-01
1.011457125e+00,8.45230e-01,9.99999e-01,9.99999e-01,8.45230e-01,9.99999e-01
1.016514411e+00,8.48042e-01,9.99999e-01,9.99999e-01,8.48042e-01,9.99999e-01
1.021596983e+00,8.50774e-01,9.99999e-01,9.99960e-01,8.50808e-01,9.99999e-01
1.026704968e+00,8.51342e-01,9.99999e-01,9.97439e-01,8.53527e-01,9.99999e-01
1.031838492e+00,8.25068e-01,9.99999e-01,9.63637e-01,8.56201e-01,9.99999e-01
1.036997685e+00,1.87672e-01,9.99999e-01,2.18520e-01,8.58831e-01,9.99999e-01
1.042182673e+00,2.03129e-01,9.99999e-01,2.35808e-01,8.61417e-01,9.99999e-01
1.047393587e+00,2.01505e-01,9.99999e-01,2.33235e-01,8.63959e-01,9.99999e-01
1.052630555e+00,1.64707e-02,9.99999e-01,1.90093e-02,8.66458e-01,9.99999e-01
1.057893707e+00,3.54623e-02,9.99999e-01,4.08122e-02,8.68914e-01,9.99999e-01
1.063183176e+00,8.41463e-02,9.99999e-01,9.65722e-02,8.71329e-01,9.99999e-01
1.068499092e+00,1.78011e-01,9.99999e-01,2.03743e-01,8.73703e-01,9.99999e-01
1.073841587e+00,3.22309e-01,9.99999e-01,3.67917e-01,8.76036e-01,9.99999e-01
1.079210795e+00,4.66722e-01,9.99999e-01,5.31375e-01,8.78329e-01,9.99999e-01
1.084606849e+00,6.23322e-01,9.99999e-01,7.07851e-01,8.80583e-01,9.99999e-01
1.090029883e+00,7.37906e-01,9.99999e-01,8.35872e-01,8.82798e-01,9.99999e-01
1.095480033e+00,8.10322e-01,9.99999e-01,9.15644e-01,8.84974e-01,9.99999e-01
1.100957433e+00,8.50250e-01,9.99999e-01,9.58446e-01,8.87113e-01,9.99999e-01
1.106462220e+00,8.73776e-01,9.99999e-01,9.82638e-01,8.89214e-01,9.99999e-01
1.111994531e+00,8.85513e-01,9.99999e-01,9.93530e-01,8.91279e-01,9.99999e-01
1.117554504e+00,8.91902e-01,9.99999e-01,9.98425e-01,8.93307e-01,9.99999e-01
1.123142276e+00,8.95209e-01,9.99999e-01,9.99897e-01,8.95300e-01,9.99999e-01
1.128757988e+00,8.97258e-01,9.99999e-01,9.99999e-01,8.97258e-01,9.99999e-01
1.134401778e+00,8.99182e-01,9.99999e-01,9.99999e-01,8.99182e-01,9.99999e-01
1.140073787e+00,9.01071e-01,9.99999e-01,9.99999e-01,9.01071e-01,9.99999e-01
1.145774156e+00,9.02927e-01,9.99999e-01,9.99999e-01,9.02927e-01,9.99999e-01
1.151503026e+00,9.04750e-01,9.99999e-01,9.99999e-01,9.04750e-01,9.99999e-01
1.157260541e+00,9.06541e-01,9.99999e-01,9.99999e-01,9.06541e-01,9.99999e-01
1.163046844e+00,9.08299e-01,9.99999e-01,9.99999e-01,9.08299e-01,9.99999e-01
1.168862078e+00,9.10027e-01,9.99999e-01,9.99999e-01,9.10027e-01,9.99999e-01
1.174706389e+00,9.11723e-01,9.99999e-01,9.99999e-01,9.11723e-01,9.99999e-01
1.180579921e+00,9.13389e-01,9.99999e-01,9.99999e-01,9.13389e-01,9.99999e-01
1.186482820e+00,9.15019e-01,9.99999e-01,9.99993e-01,9.15025e-01,9.99999e-01
1.192415234e+00,9.08191e-01,9.99999e-01,9.90791e-01,9.16631e-01,9.99999e-01
1.198377311e+00,5.25073e-01,9.99999e-01,5.71844e-01,9.18209e-01,9.99999e-01
1.204369197e+00,3.26988e-08,9.99999e-01,3.55515e-08,9.19757e-01,9.99999e-01
1.210391043e+00,7.25872e-28,9.99999e-01,7.87896e-28,9.21278e-01,9.99999e-01
1.216442998e+00,2.37446e-24,9.99999e-01,2.57318e-24,9.22772e-01,9.99999e-01
1.222525213e+00,5.23311e-24,9.99999e-01,5.66208e-24,9.24238e-01,9.99999e-01
1.228637839e+00,1.49960e-18,9.99999e-01,1.62000e-18,9.25677e-01,9.99999e-01
1.234781029e+00,1.94009e-12,9.99999e-01,2.09267e-12,9.27090e-01,9.99999e-01
1.240954934e+00,2.04394e-08,9.99999e-01,2.20138e-08,9.28478e-01,9.99999e-01
1.247159708e+00,5.39827e-05,9.99999e-01,5.80558e-05,9.29840e-01,9.99999e-01
1.253395507e+00,3.71609e-03,9.99999e-01,3.99075e-03,9.31177e-01,9.99999e-01
1.259662485e+00,3.98841e-02,9.99999e-01,4.27716e-02,9.32489e-01,9.99999e-01
1.265960797e+00,1.50707e-01,9.99999e-01,1.61395e-01,9.33777e-01,9.99999e-01
1.272290601e+00,4.38412e-01,9.99999e-01,4.68868e-01,9.35042e-01,9.99999e-01
1.278652054e+00,3.77322e-01,9.99999e-01,4.03000e-01,9.36283e-01,9.99999e-01
1.285045314e+00,1.40083e-02,9.99999e-01,1.49421e-02,9.37502e-01,9.99999e-01
1.291470541e+00,5.72414e-04,9.99999e-01,6.09795e-04,9.38697e-01,9.99999e-01
1.297927893e+00,3.09508e-02,9.99999e-01,3.29308e-02,9.39871e-01,9.99999e-01
1.304417533e+00,2.37312e-01,9.99999e-01,2.52185e-01,9.41023e-01,9.99999e-01
1.310939621e+00,4.13337e-02,9.99999e-01,4.38714e-02,9.42154e-01,9.99999e-01
1.317494319e+00,4.39103e-10,9.99999e-01,4.65514e-10,9.43263e-01,9.99999e-01
1.324081790e+00,6.96976e-06,9.99999e-01,7.38046e-06,9.44352e-01,9.99999e-01
1.330702199e+00,2.93415e-04,9.99999e-01,3.10354e-04,9.45421e-01,9.99999e-01
1.337355710e+00,2.57587e-04,9.99999e-01,2.72155e-04,9.46469e-01,9.99999e-01
1.344042489e+00,7.47933e-05,9.99999e-01,7.89376e-05,9.47498e-01,9.99999e-01
1.350762701e+00,2.09684e-04,9.99999e-01,2.21067e-04,9.48508e-01,9.99999e-01
1.357516515e+00,3.97668e-03,9.99999e-01,4.18818e-03,9.49499e-01,9.99999e-01
1.364304097e+00,2.94395e-02,9.99999e-01,3.09736e-02,9.50472e-01,9.99999e-01
1.371125618e+00,1.53686e-01,9.99999e-01,1.61532e-01,9.51426e-01,9.99999e-01
1.377981246e+00,2.17749e-01,9.99999e-01,2.28641e-01,9.52362e-01,9.99999e-01
1.384871152e+00,4.04194e-01,9.99999e-01,4.24003e-01,9.53281e-01,9.99999e-01
1.391795508e+00,4.32088e-01,9.99999e-01,4.52835e-01,9.54182e-01,9.99999e-01
1.398754485e+00,5.86390e-01,9.99999e-01,6.13978e-01,9.55066e-01,9.99999e-01
1.405748258e+00,6.67411e-01,9.99999e-01,6.98176e-01,9.55934e-01,9.99999e-01
1.412776999e+00,7.62835e-01,9.99999e-01,7.97289e-01,9.56785e-01,9.99999e-01
1.419840884e+00,6.92766e-01,9.99999e-01,7.23423e-01,9.57620e-01,9.99999e-01
1.426940089e+00,8.03598e-02,9.99999e-01,8.38443e-02,9.58440e-01,9.99999e-01
1.434074789e+00,0.00000e+00,9.99999e-01,0.00000e+00,9.59244e-01,9.99999e-01
1.441245163e+00,0.00000e+00,9.99999e-01,0.00000e+00,9.60033e-01,9.99999e-01
1.448451389e+00,0.00000e+00,9.99999e-01,0.00000e+00,9.60806e-01,9.99999e-01
1.455693646e+00,1.96461e-218,9.99999e-01,2.04314e-218,9.61565e-01,9.99999e-01
1.462972114e+00,3.16239e-106,9.99999e-01,3.28624e-106,9.62310e-01,9.99999e-01
1.470286975e+00,4.93525e-45,9.99999e-01,5.12465e-45,9.63041e-01,9.99999e-01
