#,Wave/freq,Total,O2,CO2,Rayleigh,CIA
4.000000000e-01,8.31967e-04,9.99999e-01,9.99999e-01,8.31967e-04,9.99999e-01
4.020000000e-01,9.57201e-04,9.99999e-01,9.99999e-01,9.57201e-04,9.99999e-01
4.040100000e-01,1.09808e-03,9.99999e-01,9.99999e-01,1.09808e-03,9.99999e-01
4.060300500e-01,1.25629e-03,9.99999e-01,9.99999e-01,1.25629e-03,9.99999e-01
4.080602003e-01,1.43348e-03,9.99999e-01,9.99999e-01,1.43348e-03,9.99999e-01
4.101005013e-01,1.63139e-03,9.99999e-01,9.99999e-01,1.63139e-03,9.99999e-01
4.121510038e-01,1.85190e-03,9.99999e-01,9.99999e-01,1.85190e-03,9.99999e-01
4.142117588e-01,2.09695e-03,9.99999e-01,9.99999e-01,2.09695e-03,9.99999e-01
4.162828176e-01,2.36861e-03,9.99999e-01,9.99999e-01,2.36861e-03,9.99999e-01
4.183642317e-01,2.66904e-03,9.99999e-01,9.99999e-01,2.66904e-03,9.99999e-01
4.204560528e-01,3.00048e-03,9.99999e-01,9.99999e-01,3.00048e-03,9.99999e-01
4.225583331e-01,3.36529e-03,9.99999e-01,9.99999e-01,3.36529e-03,9.99999e-01
4.246711247e-01,3.76591e-03,9.99999e-01,9.99999e-01,3.76591e-03,9.99999e-01
4.267944804e-01,4.20487e-03,9.99999e-01,9.99999e-01,4.20487e-03,9.99999e-01
4.289284528e-01,4.68478e-03,9.99999e-01,9.99999e-01,4.68478e-03,9.99999e-01
4.310730950e-01,5.20833e-03,9.99999e-01,9.99999e-01,5.20833e-03,9.99999e-01
4.332284605e-01,5.77829e-03,9.99999e-01,9.99999e-01,5.77829e-03,9.99999e-01
4.353946028e-01,6.39749e-03,9.99999e-01,9.99999e-01,6.39749e-03,9.99999e-01
4.375715758e-01,7.06881e-03,9.99999e-01,9.99999e-01,7.06881e-03,9.99999e-01
4.397594337e-01,7.79519e-03,9.99999e-01,9.99999e-01,7.79519e-03,9.99999e-01
4.419582309e-01,8.57963e-03,9.99999e-01,9.99999e-01,8.57963e-03,9.99999e-01
4.441680220e-01,9.42514e-03,9.99999e-01,9.99999e-01,9.42514e-03,9.99999e-01
4.463888621e-01,1.03348e-02,9.99999e-01,9.99999e-01,1.03348e-02,9.99999e-01
4.486208064e-01,1.13116e-02,9.99999e-01,9.99999e-01,1.13116e-02,9.99999e-01
4.508639105e-01,1.23586e-02,9.99999e-01,9.99999e-01,1.23586e-02,9.99999e-01
4.531182300e-01,1.34790e-02,9.99999e-01,9.99999e-01,1.34790e-02,9.99999e-01
4.553838212e-01,1.46758e-02,9.99999e-01,9.99999e-01,1.46758e-02,9.99999e-01
4.576607403e-01,1.59521e-02,9.99999e-01,9.99999e-01,1.59521e-02,9.99999e-01
4.599490440e-01,1.73107e-02,9.99999e-01,9.99999e-01,1.73107e-02,9.99999e-01
4.622487892e-01,1.87548e-02,9.99999e-01,9.99999e-01,1.87548e-02,9.99999e-01
4.645600332e-01,2.02873e-02,9.99999e-01,9.99999e-01,2.02873e-02,9.99999e-01
4.668828333e-01,2.19109e-02,9.99999e-01,9.99999e-01,2.19109e-02,9.99999e-01
4.692172475e-01,2.36285e-02,9.99999e-01,9.99999e-01,2.36285e-02,9.99999e-01
4.715633337e-01,2.54428e-02,9.99999e-01,9.99999e-01,2.54428e-02,9.99999e-01
4.739211504e-01,2.73564e-02,9.99999e-01,9.99999e-01,2.73564e-02,9.99999e-01
4.762907561e-01,2.93718e-02,9.99999e-01,9.99999e-01,2.93718e-02,9.99999e-01
4.786722099e-01,3.14915e-02,9.99999e-01,9.99999e-01,3.14915e-02,9.99999e-01
4.810655710e-01,3.37177e-02,9.99999e-01,9.99999e-01,3.37177e-02,9.99999e-01
4.834708988e-01,3.60525e-02,9.99999e-01,9.99999e-01,3.60525e-02,9.99999e-01
4.858882533e-01,3.84982e-02,9.99999e-01,9.99999e-01,3.84982e-02,9.99999e-01
4.883176946e-01,4.10564e-02,9.99999e-01,9.99999e-01,4.10564e-02,9.99999e-01
4.907592831e-01,4.37291e-02,9.99999e-01,9.99999e-01,4.37291e-02,9.99999e-01
4.932130795e-01,4.65177e-02,9.99999e-01,9.99999e-01,4.65177e-02,9.99999e-01
4.956791449e-01,4.94238e-02,9.99999e-01,9.99999e-01,4.94238e-02,9.99999e-01
4.981575406e-01,5.24486e-02,9.99999e-01,9.99999e-01,5.24486e-02,9.99999e-01
5.006483283e-01,5.55933e-02,9.99999e-01,9.99999e-01,5.55933e-02,9.99999e-01
5.031515699e-01,5.88588e-02,9.99999e-01,9.99999e-01,5.88588e-02,9.99999e-01
5.056673278e-01,6.22459e-02,9.99999e-01,9.99999e-01,6.22459e-02,9.99999e-01
5.081956644e-01,6.57552e-02,9.99999e-01,9.99999e-01,6.57552e-02,9.99999e-01
5.107366428e-01,6.93871e-02,9.99999e-01,9.99999e-01,6.93871e-02,9.99999e-01
5.132903260e-01,7.31419e-02,9.99999e-01,9.99999e-01,7.31419e-02,9.99999e-01
5.158567776e-01,7.70197e-02,9.99999e-01,9.99999e-01,7.70197e-02,9.99999e-01
5.184360615e-01,8.10204e-02,9.99999e-01,9.99999e-01,8.10204e-02,9.99999e-01
5.210282418e-01,8.51437e-02,9.99999e-01,9.99999e-01,8.51437e-02,9.99999e-01
5.236333830e-01,8.93891e-02,9.99999e-01,9.99999e-01,8.93891e-02,9.99999e-01
5.262515499e-01,9.37560e-02,9.99999e-01,9.99999e-01,9.37560e-02,9.99999e-01
5.288828077e-01,9.82437e-02,9.99999e-01,9.99999e-01,9.82437e-02,9.99999e-01
5.315272217e-01,1.02851e-01,9.99999e-01,9.99999e-01,1.02851e-01,9.99999e-01
5.341848578e-01,1.07577e-01,9.99999e-01,9.99999e-01,1.07577e-01,9.99999e-01
5.368557821e-01,1.12421e-01,9.99999e-01,9.99999e-01,1.12421e-01,9.99999e-01
5.395400610e-01,1.17380e-01,9.99999e-01,9.99999e-01,1.17380e-01,9.99999e-01
5.422377613e-01,1.22454e-01,9.99999e-01,9.99999e-01,1.22454e-01,9.99999e-01
5.449489501e-01,1.27640e-01,9.99999e-01,9.99999e-01,1.27640e-01,9.99999e-01
5.476736949e-01,1.32937e-01,9.99999e-01,9.99999e-01,1.32937e-01,9.99999e-01
5.504120634e-01,1.38343e-01,9.99999e-01,9.99999e-01,1.38343e-01,9.99999e-01
5.531641237e-01,1.43855e-01,9.99999e-01,9.99999e-01,1.43855e-01,9.99999e-01
5.559299443e-01,1.49471e-01,9.99999e-01,9.99999e-01,1.49471e-01,9.99999e-01
5.587095940e-01,1.55189e-01,9.99999e-01,9.99999e-01,1.55189e-01,9.99999e-01
5.615031420e-01,1.61007e-01,9.99999e-01,9.99999e-01,1.61007e-01,9.99999e-01
5.643106577e-01,1.66921e-01,9.99999e-01,9.99999e-01,1.66921e-01,9.99999e-01
5.671322110e-01,1.72929e-01,9.99999e-01,9.99999e-01,1.72929e-01,9.99999e-01
5.699678720e-01,1.79029e-01,9.99999e-01,9.99999e-01,1.79029e-01,9.99999e-01
5.728177114e-01,1.85216e-01,9.99999e-01,9.99999e-01,1.85216e-01,9.99999e-01
5.756818000e-01,1.91489e-01,9.99999e-01,9.99999e-01,1.91489e-01,9.99999e-01
5.785602090e-01,1.97844e-01,9.99999e-01,9.99999e-01,1.97844e-01,9.99999e-01
5.814530100e-01,2.04279e-01,9.99999e-01,9.99999e-01,2.04279e-01,9.99999e-01
5.843602750e-01,2.10789e-01,9.99999e-01,9.99999e-01,2.10789e-01,9.99999e-01
5.872820764e-01,2.17372e-01,9.99999e-01,9.99999e-01,2.17372e-01,9.99999e-01
5.902184868e-01,2.24024e-01,9.99999e-01,9.99999e-01,2.24024e-01,9.99999e-01
5.931695792e-01,2.30743e-01,9.99999e-01,9.99999e-01,2.30743e-01,9.99999e-01
5.961354271e-01,2.37525e-01,9.99999e-01,9.99999e-01,2.37525e-01,9.99999e-01
5.991161043e-01,2.44365e-01,9.99999e-01,9.99999e-01,2.44365e-01,9.99999e-01
6.021116848e-01,2.51262e-01,9.99999e-01,9.99999e-01,2.51262e-01,9.99999e-01
6.051222432e-01,2.58212e-01,9.99999e-01,9.99999e-01,2.58212e-01,9.99999e-01
6.081478544e-01,2.65211e-01,9.99999e-01,9.99999e-01,2.65211e-01,9.99999e-01
6.111885937e-01,2.72256e-01,9.99999e-01,9.99999e-01,2.72256e-01,9.99999e-01
6.142445367e-01,2.79343e-01,9.99999e-01,9.99999e-01,2.79343e-01,9.99999e-01
6.173157594e-01,2.86469e-01,9.99999e-01,9.99999e-01,2.86469e-01,9.99999e-01
6.204023382e-01,2.93631e-01,9.99999e-01,9.99999e-01,2.93631e-01,9.99999e-01
6.235043498e-01,3.00825e-01,9.99999e-01,9.99999e-01,3.00825e-01,9.99999e-01
6.266218716e-01,3.08048e-01,9.99999e-01,9.99999e-01,3.08048e-01,9.99999e-01
6.297549810e-01,3.15297e-01,9.99999e-01,9.99999e-01,3.15297e-01,9.99999e-01
6.329037559e-01,3.22568e-01,9.99999e-01,9.99999e-01,3.22568e-01,9.99999e-01
6.360682746e-01,3.29858e-01,9.99999e-01,9.99999e-01,3.29858e-01,9.99999e-01
6.392486160e-01,3.37164e-01,9.99999e-01,9.99999e-01,3.37164e-01,9.99999e-01
6.424448591e-01,3.44483e-01,9.99999e-01,9.99999e-01,3.44483e-01,9.99999e-01
6.456570834e-01,3.51811e-01,9.99999e-01,9.99999e-01,3.51811e-01,9.99999e-01
6.488853688e-01,3.59146e-01,9.99999e-01,9.99999e-01,3.59146e-01,9.99999e-01
6.521297956e-01,3.66484e-01,9.99999e-01,9.99999e-01,3.66484e-01,9.99999e-01
6.553904446e-01,3.73823e-01,9.99999e-01,9.99999e-01,3.73823e-01,9.99999e-01
6.586673968e-01,3.81160e-01,9.99999e-01,9.99999e-01,3.81160e-01,9.99999e-01
6.619607338e-01,3.88492e-01,9.99999e-01,9.99999e-01,3.88492e-01,9.99999e-01
6.652705375e-01,3.95815e-01,9.99999e-01,9.99999e-01,3.95815e-01,9.99999e-01
6.685968902e-01,4.03128e-01,9.99999e-01,9.99999e-01,4.03128e-01,9.99999e-01
6.719398746e-01,4.10427e-01,9.99999e-01,9.99999e-01,4.10427e-01,9.99999e-01
6.752995740e-01,4.17711e-01,9.99999e-01,9.99999e-01,4.17711e-01,9.99999e-01
6.786760719e-01,4.24976e-01,9.99999e-01,9.99999e-01,4.24976e-01,9.99999e-01
6.820694522e-01,4.32220e-01,9.99999e-01,9.99999e-01,4.32220e-01,9.99999e-01
6.854797995e-01,4.39441e-01,9.99999e-01,9.99999e-01,4.39441e-01,9.99999e-01
6.889071985e-01,4.46637e-01,9.99999e-01,9.99999e-01,4.46637e-01,9.99999e-01
6.923517345e-01,4.53804e-01,9.99999e-01,9.99999e-01,4.53804e-01,9.99999e-01
6.958134932e-01,4.60942e-01,9.99999e-01,9.99999e-01,4.60942e-01,9.99999e-01
6.992925606e-01,4.68048e-01,9.99999e-01,9.99999e-01,4.68048e-01,9.99999e-01
7.027890234e-01,4.75119e-01,9.99999e-01,9.99999e-01,4.75119e-01,9.99999e-01
7.063029686e-01,4.82155e-01,9.99999e-01,9.99999e-01,4.82155e-01,9.99999e-01
7.098344834e-01,4.89153e-01,9.99999e-01,9.99999e-01,4.89153e-01,9.99999e-01
7.133836558e-01,4.96111e-01,9.99999e-01,9.99999e-01,4.96111e-01,9.99999e-01
7.169505741e-01,5.03028e-01,9.99999e-01,9.99999e-01,5.03028e-01,9.99999e-01
7.205353270e-01,5.09901e-01,9.99999e-01,9.99999e-01,5.09901e-01,9.99999e-01
7.241380036e-01,5.16730e-01,9.99999e-01,9.99999e-01,5.16730e-01,9.99999e-01
7.277586936e-01,5.23513e-01,9.99999e-01,9.99999e-01,5.23513e-01,9.99999e-01
7.313974871e-01,5.30249e-01,9.99999e-01,9.99999e-01,5.30249e-01,9.99999e-01
7.350544745e-01,5.36935e-01,9.99999e-01,9.99999e-01,5.36935e-01,9.99999e-01
7.387297469e-01,5.43571e-01,9.99999e-01,9.99999e-01,5.43571e-01,9.99999e-01
7.424233956e-01,5.50156e-01,9.99999e-01,9.99999e-01,5.50156e-01,9.99999e-01
7.461355126e-01,5.56688e-01,9.99999e-01,9.99999e-01,5.56688e-01,9.99999e-01
7.498661902e-01,5.63166e-01,9.99999e-01,9.99999e-01,5.63166e-01,9.99999e-01
7.536155211e-01,5.69590e-01,9.99999e-01,9.99999e-01,5.69590e-01,9.99999e-01
7.573835987e-01,5.75958e-01,9.99999e-01,9.99999e-01,5.75958e-01,9.99999e-01
7.611705167e-01,5.82269e-01,9.99999e-01,9.99999e-01,5.82269e-01,9.99999e-01
7.649763693e-01,5.88522e-01,9.99999e-01,9.99999e-01,5.88522e-01,9.99999e-01
7.688012511e-01,5.94717e-01,9.99999e-01,9.99999e-01,5.94717e-01,9.99999e-01
7.726452574e-01,6.00853e-01,9.99999e-01,9.99999e-01,6.00853e-01,9.99999e-01
7.765084837e-01,6.06930e-01,9.99999e-01,9.99999e-01,6.06930e-01,9.99999e-01
7.803910261e-01,5.97854e-01,9.99999e-01,9.75377e-01,6.12945e-01,9.99999e-01
7.842929812e-01,5.57742e-01,9.99999e-01,9.01181e-01,6.18900e-01,9.99999e-01
7.882144461e-01,5.58449e-01,9.99999e-01,8.93813e-01,6.24794e-01,9.99999e-01
7.921555184e-01,5.91013e-01,9.99999e-01,9.37184e-01,6.30625e-01,9.99999e-01
7.961162960e-01,6.09555e-01,9.99999e-01,9.57825e-01,6.36395e-01,9.99999e-01
8.000968774e-01,6.27260e-01,9.99999e-01,9.76886e-01,6.42101e-01,9.99999e-01
8.040973618e-01,6.39973e-01,9.99999e-01,9.88002e-01,6.47744e-01,9.99999e-01
8.081178486e-01,6.49705e-01,9.99999e-01,9.94459e-01,6.53324e-01,9.99999e-01
8.121584379e-01,6.57720e-01,9.99999e-01,9.98298e-01,6.58841e-01,9.99999e-01
8.162192301e-01,6.64044e-01,9.99999e-01,9.99623e-01,6.64294e-01,9.99999e-01
8.203003262e-01,6.69679e-01,9.99999e-01,9.99994e-01,6.69682e-01,9.99999e-01
8.244018279e-01,6.75007e-01,9.99999e-01,9.99999e-01,6.75007e-01,9.99999e-01
8.285238370e-01,6.80268e-01,9.99999e-01,9.99999e-01,6.80268e-01,9.99999e-01
8.326664562e-01,6.85464e-01,9.99999e-01,9.99999e-01,6.85464e-01,9.99999e-01
8.368297885e-01,6.90597e-01,9.99999e-01,9.99999e-01,6.90597e-01,9.99999e-01
8.410139374e-01,6.95665e-01,9.99999e-01,9.99999e-01,6.95665e-01,9.99999e-01
8.452190071e-01,7.00670e-01,9.99999e-01,9.99999e-01,7.00670e-01,9.99999e-01
8.494451021e-01,7.05610e-01,9.99999e-01,9.99999e-01,7.05610e-01,9.99999e-01
8.536923276e-01,7.10487e-01,9.99999e-01,9.99999e-01,7.10487e-01,9.99999e-01
8.579607893e-01,7.15300e-01,9.99999e-01,9.99999e-01,7.15300e-01,9.99999e-01
8.622505932e-01,7.20050e-01,9.99999e-01,9.99999e-01,7.20050e-01,9.99999e-01
8.665618462e-01,6.81190e-01,9.99999e-01,9.39913e-01,7.24736e-01,9.99999e-01
8.708946554e-01,5.58070e-01,9.99999e-01,7.65150e-01,7.29359e-01,9.99999e-01
8.752491287e-01,5.92881e-01,9.99999e-01,8.07827e-01,7.33920e-01,9.99999e-01
8.796253743e-01,6.57286e-01,9.99999e-01,8.90125e-01,7.38419e-01,9.99999e-01
8.840235012e-01,6.99476e-01,9.99999e-01,9.41605e-01,7.42855e-01,9.99999e-01
8.884436187e-01,7.29802e-01,9.99999e-01,9.76677e-01,7.47229e-01,9.99999e-01
8.928858368e-01,7.44384e-01,9.99999e-01,9.90474e-01,7.51542e-01,9.99999e-01
8.973502660e-01,7.54048e-01,9.99999e-01,9.97689e-01,7.55794e-01,9.99999e-01
9.018370173e-01,7.59793e-01,9.99999e-01,9.99745e-01,7.59986e-01,9.99999e-01
9.063462024e-01,7.58994e-01,9.99999e-01,9.93295e-01,7.64117e-01,9.99999e-01
9.108779334e-01,7.56649e-01,9.99999e-01,9.84977e-01,7.68188e-01,9.99999e-01
9.154323231e-01,7.69485e-01,9.99999e-01,9.96483e-01,7.72200e-01,9.99999e-01
9.200094847e-01,7.35753e-01,9.99999e-01,9.47947e-01,7.76154e-01,9.99999e-01
9.246095321e-01,7.24243e-01,9.99999e-01,9.28458e-01,7.80048e-01,9.99999e-01
9.292325798e-01,7.39103e-01,9.99999e-01,9.42870e-01,7.83885e-01,9.99999e-01
9.338787427e-01,7.44543e-01,9.99999e-01,9.45253e-01,7.87664e-01,9.99999e-01
9.385481364e-01,7.59344e-01,9.99999e-01,9.59510e-01,7.91386e-01,9.99999e-01
9.432408771e-01,7.75246e-01,9.99999e-01,9.75088e-01,7.95052e-01,9.99999e-01
9.479570815e-01,7.88379e-01,9.99999e-01,9.87123e-01,7.98662e-01,9.99999e-01
9.526968669e-01,7.97228e-01,9.99999e-01,9.93781e-01,8.02217e-01,9.99999e-01
9.574603512e-01,8.03572e-01,9.99999e-01,9.97338e-01,8.05716e-01,9.99999e-01
9.622476530e-01,8.08490e-01,9.99999e-01,9.99169e-01,8.09162e-01,9.99999e-01
9.670588912e-01,8.12352e-01,9.99999e-01,9.99751e-01,8.12553e-01,9.99999e-01
9.718941857e-01,8.15877e-01,9.99999e-01,9.99982e-01,8.15891e-01,9.99999e-01
9.767536566e-01,8.19177e-01,9.99999e-01,9.99999e-01,8.19177e-01,9.99999e-01
9.816374249e-01,8.22411e-01,9.99999e-01,9.99999e-01,8.22411e-01,9.99999e-01
9.865456120e-01,8.25593e-01,9.99999e-01,9.99999e-01,8.25593e-01,9.99999e-01
9.914783401e-01,8.28724e-01,9.99999e-01,9.99999e-01,8.28724e-01,9.99999e-01
9.964357318e-01,8.31805e-01,9.99999e-01,9.99999e-01,8.31805e-01,9.99999e-01
1.001417910e+00,8.34837e-01,9.99999e-01,9.99999e-01,8.34837e-01,9.99999e-01
1.006425000e+00,8.37819e-01,9.99999e-01,9.99999e-01,8.37819e-01,9.99999e-01
1.011457125e+00,8.40752e-01,9.99999e-01,9.99999e-01,8.40752e-01,9.99999e-01
1.016514411e+00,8.43638e-01,9.99999e-01,9.99999e-01,8.43638e-01,9.99999e-01
1.021596983e+00,8.46443e-01,9.99999e-01,9.99960e-01,8.46476e-01,9.99999e-01
1.026704968e+00,8.47042e-01,9.99999e-01,9.97379e-01,8.49267e-01,9.99999e-01
1.031838492e+00,8.21122e-01,9.99999e-01,9.63744e-01,8.52012e-01,9.99999e-01
1.036997685e+00,1.82237e-01,9.99999e-01,2.13214e-01,8.54712e-01,9.99999e-01
1.042182673e+00,1.93397e-01,9.99999e-01,2.25571e-01,8.57366e-01,9.99999e-01
1.047393587e+00,1.94645e-01,9.99999e-01,2.26338e-01,8.59977e-01,9.99999e-01
1.052630555e+00,1.48059e-02,9.99999e-01,1.71654e-02,8.62543e-01,9.99999e-01
1.057893707e+00,3.21632e-02,9.99999e-01,3.71801e-02,8.65066e-01,9.99999e-01
1.063183176e+00,7.81762e-02,9.99999e-01,9.01118e-02,8.67546e-01,9.99999e-01
1.068499092e+00,1.68867e-01,9.99999e-01,1.94104e-01,8.69984e-01,9.99999e-01
1.073841587e+00,3.10922e-01,9.99999e-01,3.56406e-01,8.72381e-01,9.99999e-01
1.079210795e+00,4.55576e-01,9.99999e-01,5.20814e-01,8.74737e-01,9.99999e-01
1.084606849e+00,6.13851e-01,9.99999e-01,6.99902e-01,8.77052e-01,9.99999e-01
1.090029883e+00,7.30752e-01,9.99999e-01,8.31034e-01,8.79328e-01,9.99999e-01
1.095480033e+00,8.04859e-01,9.99999e-01,9.12989e-01,8.81564e-01,9.99999e-01
1.100957433e+00,8.45861e-01,9.99999e-01,9.57113e-01,8.83762e-01,9.99999e-01
1.106462220e+00,8.70033e-01,9.99999e-01,9.82064e-01,8.85922e-01,9.99999e-01
1.111994531e+00,8.82108e-01,9.99999e-01,9.93315e-01,8.88044e-01,9.99999e-01
1.117554504e+00,8.88679e-01,9.99999e-01,9.98370e-01,8.90129e-01,9.99999e-01
1.123142276e+00,8.92083e-01,9.99999e-01,9.99893e-01,8.92178e-01,9.99999e-01
1.128757988e+00,8.94191e-01,9.99999e-01,9.99999e-01,8.94191e-01,9.99999e-01
1.134401778e+00,8.96168e-01,9.99999e-01,9.99999e-01,8.96168e-01,9.99999e-01
1.140073787e+00,8.98111e-01,9.99999e-01,9.99999e-01,8.98111e-01,9.99999e-01
1.145774156e+00,9.00019e-01,9.99999e-01,9.99999e-01,9.00019e-01,9.99999e-01
1.151503026e+00,9.01894e-01,9.99999e-01,9.99999e-01,9.01894e-01,9.99999e-01
1.157260541e+00,9.03735e-01,9.99999e-01,9.99999e-01,9.03735e-01,9.99999e-01
1.163046844e+00,9.05544e-01,9.99999e-01,9.99999e-01,9.05544e-01,9.99999e-01
1.168862078e+00,9.07320e-01,9.99999e-01,9.99999e-01,9.07320e-01,9.99999e-01
1.174706389e+00,9.09065e-01,9.99999e-01,9.99999e-01,9.09065e-01,9.99999e-01
1.180579921e+00,9.10778e-01,9.99999e-01,9.99999e-01,9.10778e-01,9.99999e-01
1.186482820e+00,9.12456e-01,9.99999e-01,9.99993e-01,9.12461e-01,9.99999e-01
1.192415234e+00,9.05517e-01,9.99999e-01,9.90594e-01,9.14114e-01,9.99999e-01
1.198377311e+00,5.23111e-01,9.99999e-01,5.71246e-01,9.15737e-01,9.99999e-01
1.204369197e+00,2.12071e-08,9.99999e-01,2.31182e-08,9.17330e-01,9.99999e-01
1.210391043e+00,1.13010e-28,9.99999e-01,1.22984e-28,9.18895e-01,9.99999e-01
1.216442998e+00,4.76979e-25,9.99999e-01,5.18211e-25,9.20432e-01,9.99999e-01
1.222525213e+00,1.07597e-24,9.99999e-01,1.16707e-24,9.21940e-01,9.99999e-01
1.228637839e+00,4.36203e-19,9.99999e-01,4.72377e-19,9.23421e-01,9.99999e-01
1.234781029e+00,9.24057e-13,9.99999e-01,9.99113e-13,9.24876e-01,9.99999e-01
1.240954934e+00,1.22215e-08,9.99999e-01,1.31938e-08,9.26304e-01,9.99999e-01
1.247159708e+00,4.19353e-05,9.99999e-01,4.52032e-05,9.27705e-01,9.99999e-01
1.253395507e+00,3.14302e-03,9.99999e-01,3.38293e-03,9.29081e-01,9.99999e-01
1.259662485e+00,3.61586e-02,9.99999e-01,3.88621e-02,9.30432e-01,9.99999e-01
1.265960797e+00,1.42067e-01,9.99999e-01,1.52472e-01,9.31758e-01,9.99999e-01
1.272290601e+00,4.26995e-01,9.99999e-01,4.57628e-01,9.33060e-01,9.99999e-01
1.278652054e+00,3.68019e-01,9.99999e-01,3.93882e-01,9.34338e-01,9.99999e-01
1.285045314e+00,1.31276e-02,9.99999e-01,1.40314e-02,9.35592e-01,9.99999e-01
1.291470541e+00,4.59232e-04,9.99999e-01,4.90201e-04,9.36823e-01,9.99999e-01
1.297927893e+00,2.82509e-02,9.99999e-01,3.01172e-02,9.38032e-01,9.99999e-01
1.304417533e+00,2.26848e-01,9.99999e-01,2.41529e-01,9.39218e-01,9.99999e-01
1.310939621e+00,3.95417e-02,9.99999e-01,4.20485e-02,9.40382e-01,9.99999e-01
1.317494319e+00,2.29821e-10,9.99999e-01,2.44095e-10,9.41524e-01,9.99999e-01
1.324081790e+00,2.22590e-07,9.99999e-01,2.36133e-07,9.42645e-01,9.99999e-01
1.330702199e+00,2.29923e-04,9.99999e-01,2.43628e-04,9.43746e-01,9.99999e-01
1.337355710e+00,2.05324e-04,9.99999e-01,2.17314e-04,9.44826e-01,9.99999e-01
1.344042489e+00,5.99120e-05,9.99999e-01,6.33396e-05,9.45886e-01,9.99999e-01
1.350762701e+00,1.61893e-04,9.99999e-01,1.70967e-04,9.46925e-01,9.99999e-01
1.357516515e+00,3.36272e-03,9.99999e-01,3.54737e-03,9.47946e-01,9.99999e-01
1.364304097e+00,2.63479e-02,9.99999e-01,2.77654e-02,9.48948e-01,9.99999e-01
1.371125618e+00,1.44850e-01,9.99999e-01,1.52485e-01,9.49930e-01,9.99999e-01
1.377981246e+00,2.07453e-01,9.99999e-01,2.18166e-01,9.50895e-01,9.99999e-01
1.384871152e+00,3.92660e-01,9.99999e-01,4.12526e-01,9.51841e-01,9.99999e-01
1.391795508e+00,4.20580e-01,9.99999e-01,4.41429e-01,9.52769e-01,9.99999e-01
1.398754485e+00,5.76362e-01,9.99999e-01,6.04355e-01,9.53680e-01,9.99999e-01
1.405748258e+00,6.58701e-01,9.99999e-01,6.90047e-01,9.54574e-01,9.99999e-01
1.412776999e+00,7.56120e-01,9.99999e-01,7.91374e-01,9.55451e-01,9.99999e-01
1.419840884e+00,6.86947e-01,9.99999e-01,7.18329e-01,9.56311e-01,9.99999e-01
1.426940089e+00,7.87019e-02,9.99999e-01,8.22247e-02,9.57155e-01,9.99999e-01
1.434074789e+00,0.00000e+00,9.99999e-01,0.00000e+00,9.57984e-01,9.99999e-01
1.441245163e+00,0.00000e+00,9.99999e-01,0.00000e+00,9.58796e-01,9.99999e-01
1.448451389e+00,0.00000e+00,9.99999e-01,0.00000e+00,9.59593e-01,9.99999e-01
1.455693646e+00,2.99444e-225,9.99999e-01,3.11799e-225,9.60376e-01,9.99999e-01
1.462972114e+00,1.66433e-109,9.99999e-01,1.73162e-109,9.61143e-01,9.99999e-01
1.470286975e+00,2.20779e-46,9.99999e-01,2.29525e-46,9.61895e-01,9.99999e-01
