#,Wave/freq,Total,O2,CO2,Rayleigh,CIA
4.000000000e-01,6.37335e-12,9.99999e-01,9.99999e-01,6.37335e-12,9.99999e-01
4.020000000e-01,1.06105e-11,9.99999e-01,9.99999e-01,1.06105e-11,9.99999e-01
4.040100000e-01,1.74785e-11,9.99999e-01,9.99999e-01,1.74785e-11,9.99999e-01
4.060300500e-01,2.85096e-11,9.99999e-01,9.99999e-01,2.85096e-11,9.99999e-01
4.080602003e-01,4.60554e-11,9.99999e-01,9.99999e-01,4.60554e-11,9.99999e-01
4.101005013e-01,7.36981e-11,9.99999e-01,9.99999e-01,7.36981e-11,9.99999e-01
4.121510038e-01,1.16842e-10,9.99999e-01,9.99999e-01,1.16842e-10,9.99999e-01
4.142117588e-01,1.83564e-10,9.99999e-01,9.99999e-01,1.83564e-10,9.99999e-01
4.162828176e-01,2.85827e-10,9.99999e-01,9.99999e-01,2.85827e-10,9.99999e-01
4.183642317e-01,4.41183e-10,9.99999e-01,9.99999e-01,4.41183e-10,9.99999e-01
4.204560528e-01,6.75166e-10,9.99999e-01,9.99999e-01,6.75166e-10,9.99999e-01
4.225583331e-01,1.02460e-09,9.99999e-01,9.99999e-01,1.02460e-09,9.99999e-01
4.246711247e-01,1.54211e-09,9.99999e-01,9.99999e-01,1.54211e-09,9.99999e-01
4.267944804e-01,2.30236e-09,9.99999e-01,9.99999e-01,2.30236e-09,9.99999e-01
4.289284528e-01,3.41029e-09,9.99999e-01,9.99999e-01,3.41029e-09,9.99999e-01
4.310730950e-01,5.01233e-09,9.99999e-01,9.99999e-01,5.01233e-09,9.99999e-01
4.332284605e-01,7.31113e-09,9.99999e-01,9.99999e-01,7.31113e-09,9.99999e-01
4.353946028e-01,1.05850e-08,9.99999e-01,9.99999e-01,1.05850e-08,9.99999e-01
4.375715758e-01,1.52133e-08,9.99999e-01,9.99999e-01,1.52133e-08,9.99999e-01
4.397594337e-01,2.17092e-08,9.99999e-01,9.99999e-01,2.17092e-08,9.99999e-01
4.419582309e-01,3.07619e-08,9.99999e-01,9.99999e-01,3.07619e-08,9.99999e-01
4.441680220e-01,4.32906e-08,9.99999e-01,9.99999e-01,4.32906e-08,9.99999e-01
4.463888621e-01,6.05123e-08,9.99999e-01,9.99999e-01,6.05123e-08,9.99999e-01
4.486208064e-01,8.40272e-08,9.99999e-01,9.99999e-01,8.40272e-08,9.99999e-01
4.508639105e-01,1.15926e-07,9.99999e-01,9.99999e-01,1.15926e-07,9.99999e-01
4.531182300e-01,1.58920e-07,9.99999e-01,9.99999e-01,1.58920e-07,9.99999e-01
4.553838212e-01,2.16508e-07,9.99999e-01,9.99999e-01,2.16508e-07,9.99999e-01
4.576607403e-01,2.93166e-07,9.99999e-01,9.99999e-01,2.93166e-07,9.99999e-01
4.599490440e-01,3.94598e-07,9.99999e-01,9.99999e-01,3.94598e-07,9.99999e-01
4.622487892e-01,5.28016e-07,9.99999e-01,9.99999e-01,5.28016e-07,9.99999e-01
4.645600332e-01,7.02490e-07,9.99999e-01,9.99999e-01,7.02490e-07,9.99999e-01
4.668828333e-01,9.29360e-07,9.99999e-01,9.99999e-01,9.29360e-07,9.99999e-01
4.692172475e-01,1.22272e-06,9.99999e-01,9.99999e-01,1.22272e-06,9.99999e-01
4.715633337e-01,1.59999e-06,9.99999e-01,9.99999e-01,1.59999e-06,9.99999e-01
4.739211504e-01,2.08257e-06,9.99999e-01,9.99999e-01,2.08257e-06,9.99999e-01
4.762907561e-01,2.69663e-06,9.99999e-01,9.99999e-01,2.69663e-06,9.99999e-01
4.786722099e-01,3.47398e-06,9.99999e-01,9.99999e-01,3.47398e-06,9.99999e-01
4.810655710e-01,4.45307e-06,9.99999e-01,9.99999e-01,4.45307e-06,9.99999e-01
4.834708988e-01,5.68017e-06,9.99999e-01,9.99999e-01,5.68017e-06,9.99999e-01
4.858882533e-01,7.21067e-06,9.99999e-01,9.99999e-01,7.21067e-06,9.99999e-01
4.883176946e-01,9.11053e-06,9.99999e-01,9.99999e-01,9.11053e-06,9.99999e-01
4.907592831e-01,1.14579e-05,9.99999e-01,9.99999e-01,1.14579e-05,9.99999e-01
4.932130795e-01,1.43450e-05,9.99999e-01,9.99999e-01,1.43450e-05,9.99999e-01
4.956791449e-01,1.78800e-05,9.99999e-01,9.99999e-01,1.78800e-05,9.99999e-01
4.981575406e-01,2.21894e-05,9.99999e-01,9.99999e-01,2.21894e-05,9.99999e-01
5.006483283e-01,2.74202e-05,9.99999e-01,9.99999e-01,2.74202e-05,9.99999e-01
5.031515699e-01,3.37427e-05,9.99999e-01,9.99999e-01,3.37427e-05,9.99999e-01
5.056673278e-01,4.13532e-05,9.99999e-01,9.99999e-01,4.13532e-05,9.99999e-01
5.081956644e-01,5.04770e-05,9.99999e-01,9.99999e-01,5.04770e-05,9.99999e-01
5.107366428e-01,6.13717e-05,9.99999e-01,9.99999e-01,6.13717e-05,9.99999e-01
5.132903260e-01,7.43304e-05,9.99999e-01,9.99999e-01,7.43304e-05,9.99999e-01
5.158567776e-01,8.96852e-05,9.99999e-01,9.99999e-01,8.96852e-05,9.99999e-01
5.184360615e-01,1.07811e-04,9.99999e-01,9.99999e-01,1.07811e-04,9.99999e-01
5.210282418e-01,1.29131e-04,9.99999e-01,9.99999e-01,1.29131e-04,9.99999e-01
5.236333830e-01,1.54115e-04,9.99999e-01,9.99999e-01,1.54115e-04,9.99999e-01
5.262515499e-01,1.83293e-04,9.99999e-01,9.99999e-01,1.83293e-04,9.99999e-01
5.288828077e-01,2.17249e-04,9.99999e-01,9.99999e-01,2.17249e-04,9.99999e-01
5.315272217e-01,2.56633e-04,9.99999e-01,9.99999e-01,2.56633e-04,9.99999e-01
5.341848578e-01,3.02160e-04,9.99999e-01,9.99999e-01,3.02160e-04,9.99999e-01
5.368557821e-01,3.54618e-04,9.99999e-01,9.99999e-01,3.54618e-04,9.99999e-01
5.395400610e-01,4.14870e-04,9.99999e-01,9.99999e-01,4.14870e-04,9.99999e-01
5.422377613e-01,4.83856e-04,9.99999e-01,9.99999e-01,4.83856e-04,9.99999e-01
5.449489501e-01,5.62602e-04,9.99999e-01,9.99999e-01,5.62602e-04,9.99999e-01
5.476736949e-01,6.52218e-04,9.99999e-01,9.99999e-01,6.52218e-04,9.99999e-01
5.504120634e-01,7.53905e-04,9.99999e-01,9.99999e-01,7.53905e-04,9.99999e-01
5.531641237e-01,8.68955e-04,9.99999e-01,9.99999e-01,8.68955e-04,9.99999e-01
5.559299443e-01,9.98757e-04,9.99999e-01,9.99999e-01,9.98757e-04,9.99999e-01
5.587095940e-01,1.14480e-03,9.99999e-01,9.99999e-01,1.14480e-03,9.99999e-01
5.615031420e-01,1.30866e-03,9.99999e-01,9.99999e-01,1.30866e-03,9.99999e-01
5.643106577e-01,1.49202e-03,9.99999e-01,9.99999e-01,1.49202e-03,9.99999e-01
5.671322110e-01,1.69668e-03,9.99999e-01,9.99999e-01,1.69668e-03,9.99999e-01
5.699678720e-01,1.92452e-03,9.99999e-01,9.99999e-01,1.92452e-03,9.99999e-01
5.728177114e-01,2.17753e-03,9.99999e-01,9.99999e-01,2.17753e-03,9.99999e-01
5.756818000e-01,2.45779e-03,9.99999e-01,9.99999e-01,2.45779e-03,9.99999e-01
5.785602090e-01,2.76751e-03,9.99999e-01,9.99999e-01,2.76751e-03,9.99999e-01
5.814530100e-01,3.10895e-03,9.99999e-01,9.99999e-01,3.10895e-03,9.99999e-01
5.843602750e-01,3.48450e-03,9.99999e-01,9.99999e-01,3.48450e-03,9.99999e-01
5.872820764e-01,3.89663e-03,9.99999e-01,9.99999e-01,3.89663e-03,9.99999e-01
5.902184868e-01,4.34790e-03,9.99999e-01,9.99999e-01,4.34790e-03,9.99999e-01
5.931695792e-01,4.84093e-03,9.99999e-01,9.99999e-01,4.84093e-03,9.99999e-01
5.961354271e-01,5.37846e-03,9.99999e-01,9.99999e-01,5.37846e-03,9.99999e-01
5.991161043e-01,5.96325e-03,9.99999e-01,9.99999e-01,5.96325e-03,9.99999e-01
6.021116848e-01,6.59815e-03,9.99999e-01,9.99999e-01,6.59815e-03,9.99999e-01
6.051222432e-01,7.28609e-03,9.99999e-01,9.99999e-01,7.28609e-03,9.99999e-01
6.081478544e-01,8.03000e-03,9.99999e-01,9.99999e-01,8.03000e-03,9.99999e-01
6.111885937e-01,8.83288e-03,9.99999e-01,9.99999e-01,8.83288e-03,9.99999e-01
6.142445367e-01,9.69777e-03,9.99999e-01,9.99999e-01,9.69777e-03,9.99999e-01
6.173157594e-01,1.06277e-02,9.99999e-01,9.99999e-01,1.06277e-02,9.99999e-01
6.204023382e-01,1.16258e-02,9.99999e-01,9.99999e-01,1.16258e-02,9.99999e-01
6.235043498e-01,1.26951e-02,9.99999e-01,9.99999e-01,1.26951e-02,9.99999e-01
6.266218716e-01,1.38386e-02,9.99999e-01,9.99999e-01,1.38386e-02,9.99999e-01
6.297549810e-01,1.50595e-02,9.99999e-01,9.99999e-01,1.50595e-02,9.99999e-01
6.329037559e-01,1.63608e-02,9.99999e-01,9.99999e-01,1.63608e-02,9.99999e-01
6.360682746e-01,1.77454e-02,9.99999e-01,9.99999e-01,1.77454e-02,9.99999e-01
6.392486160e-01,1.92163e-02,9.99999e-01,9.99999e-01,1.92163e-02,9.99999e-01
6.424448591e-01,2.07765e-02,9.99999e-01,9.99999e-01,2.07765e-02,9.99999e-01
6.456570834e-01,2.24287e-02,9.99999e-01,9.99999e-01,2.24287e-02,9.99999e-01
6.488853688e-01,2.41758e-02,9.99999e-01,9.99999e-01,2.41758e-02,9.99999e-01
6.521297956e-01,2.60203e-02,9.99999e-01,9.99999e-01,2.60203e-02,9.99999e-01
6.553904446e-01,2.79650e-02,9.99999e-01,9.99999e-01,2.79650e-02,9.99999e-01
6.586673968e-01,3.00122e-02,9.99999e-01,9.99999e-01,3.00122e-02,9.99999e-01
6.619607338e-01,3.21643e-02,9.99999e-01,9.99999e-01,3.21643e-02,9.99999e-01
6.652705375e-01,3.44237e-02,9.99999e-01,9.99999e-01,3.44237e-02,9.99999e-01
6.685968902e-01,3.67924e-02,9.99999e-01,9.99999e-01,3.67924e-02,9.99999e-01
6.719398746e-01,3.92724e-02,9.99999e-01,9.99999e-01,3.92724e-02,9.99999e-01
6.752995740e-01,4.18657e-02,9.99999e-01,9.99999e-01,4.18657e-02,9.99999e-01
6.786760719e-01,4.45738e-02,9.99999e-01,9.99999e-01,4.45738e-02,9.99999e-01
6.820694522e-01,4.73984e-02,9.99999e-01,9.99999e-01,4.73984e-02,9.99999e-01
6.854797995e-01,5.03409e-02,9.99999e-01,9.99999e-01,5.03409e-02,9.99999e-01
6.889071985e-01,5.34024e-02,9.99999e-01,9.99999e-01,5.34024e-02,9.99999e-01
6.923517345e-01,5.65842e-02,9.99999e-01,9.99999e-01,5.65842e-02,9.99999e-01
6.958134932e-01,5.98870e-02,9.99999e-01,9.99999e-01,5.98870e-02,9.99999e-01
6.992925606e-01,6.33116e-02,9.99999e-01,9.99999e-01,6.33116e-02,9.99999e-01
7.027890234e-01,6.68585e-02,9.99999e-01,9.99999e-01,6.68585e-02,9.99999e-01
7.063029686e-01,7.05282e-02,9.99999e-01,9.99999e-01,7.05282e-02,9.99999e-01
7.098344834e-01,7.43208e-02,9.99999e-01,9.99999e-01,7.43208e-02,9.99999e-01
7.133836558e-01,7.82364e-02,9.99999e-01,9.99999e-01,7.82364e-02,9.99999e-01
7.169505741e-01,8.22748e-02,9.99999e-01,9.99999e-01,8.22748e-02,9.99999e-01
7.205353270e-01,8.64356e-02,9.99999e-01,9.99999e-01,8.64356e-02,9.99999e-01
7.241380036e-01,9.07185e-02,9.99999e-01,9.99999e-01,9.07185e-02,9.99999e-01
7.277586936e-01,9.51226e-02,9.99999e-01,9.99999e-01,9.51226e-02,9.99999e-01
7.313974871e-01,9.96472e-02,9.99999e-01,9.99999e-01,9.96472e-02,9.99999e-01
7.350544745e-01,1.04291e-01,9.99999e-01,9.99999e-01,1.04291e-01,9.99999e-01
7.387297469e-01,1.09054e-01,9.99999e-01,9.99999e-01,1.09054e-01,9.99999e-01
7.424233956e-01,1.13933e-01,9.99999e-01,9.99999e-01,1.13933e-01,9.99999e-01
7.461355126e-01,1.18928e-01,9.99999e-01,9.99999e-01,1.18928e-01,9.99999e-01
7.498661902e-01,1.24036e-01,9.99999e-01,9.99999e-01,1.24036e-01,9.99999e-01
7.536155211e-01,1.29257e-01,9.99999e-01,9.99999e-01,1.29257e-01,9.99999e-01
7.573835987e-01,1.34587e-01,9.99999e-01,9.99999e-01,1.34587e-01,9.99999e-01
7.611705167e-01,1.40026e-01,9.99999e-01,9.99999e-01,1.40026e-01,9.99999e-01
7.649763693e-01,1.45570e-01,9.99999e-01,9.99999e-01,1.45570e-01,9.99999e-01
7.688012511e-01,1.51218e-01,9.99999e-01,9.99999e-01,1.51218e-01,9.99999e-01
7.726452574e-01,1.56967e-01,9.99999e-01,9.99999e-01,1.56967e-01,9.99999e-01
7.765084837e-01,1.62815e-01,9.99999e-01,9.99999e-01,1.62815e-01,9.99999e-01
7.803910261e-01,1.56225e-01,9.99999e-01,9.25731e-01,1.68758e-01,9.99999e-01
7.842929812e-01,1.21979e-01,9.99999e-01,6.97841e-01,1.74795e-01,9.99999e-01
7.882144461e-01,1.23386e-01,9.99999e-01,6.81988e-01,1.80921e-01,9.99999e-01
7.921555184e-01,1.48371e-01,9.99999e-01,7.92853e-01,1.87136e-01,9.99999e-01
7.961162960e-01,1.65491e-01,9.99999e-01,8.55543e-01,1.93434e-01,9.99999e-01
8.000968774e-01,1.83577e-01,9.99999e-01,9.18737e-01,1.99814e-01,9.99999e-01
8.040973618e-01,1.97421e-01,9.99999e-01,9.57092e-01,2.06272e-01,9.99999e-01
8.081178486e-01,2.08551e-01,9.99999e-01,9.80009e-01,2.12805e-01,9.99999e-01
8.121584379e-01,2.18053e-01,9.99999e-01,9.93818e-01,2.19410e-01,9.99999e-01
8.162192301e-01,2.25774e-01,9.99999e-01,9.98631e-01,2.26083e-01,9.99999e-01
8.203003262e-01,2.32817e-01,9.99999e-01,9.99980e-01,2.32821e-01,9.99999e-01
8.244018279e-01,2.39621e-01,9.99999e-01,9.99999e-01,2.39621e-01,9.99999e-01
8.285238370e-01,2.46480e-01,9.99999e-01,9.99999e-01,2.46480e-01,9.99999e-01
8.326664562e-01,2.53393e-01,9.99999e-01,9.99999e-01,2.53393e-01,9.99999e-01
8.368297885e-01,2.60358e-01,9.99999e-01,9.99999e-01,2.60358e-01,9.99999e-01
8.410139374e-01,2.67372e-01,9.99999e-01,9.99999e-01,2.67372e-01,9.99999e-01
8.452190071e-01,2.74430e-01,9.99999e-01,9.99999e-01,2.74430e-01,9.99999e-01
8.494451021e-01,2.81529e-01,9.99999e-01,9.99999e-01,2.81529e-01,9.99999e-01
8.536923276e-01,2.88667e-01,9.99999e-01,9.99999e-01,2.88667e-01,9.99999e-01
8.579607893e-01,2.95839e-01,9.99999e-01,9.99999e-01,2.95839e-01,9.99999e-01
8.622505932e-01,3.03042e-01,9.99999e-01,9.99999e-01,3.03042e-01,9.99999e-01
8.665618462e-01,2.72642e-01,9.99999e-01,8.78713e-01,3.10274e-01,9.99999e-01
8.708946554e-01,1.29911e-01,9.99999e-01,4.09129e-01,3.17530e-01,9.99999e-01
8.752491287e-01,1.55478e-01,9.99999e-01,4.78678e-01,3.24807e-01,9.99999e-01
8.796253743e-01,2.19876e-01,9.99999e-01,6.62071e-01,3.32102e-01,9.99999e-01
8.840235012e-01,2.73280e-01,9.99999e-01,8.05154e-01,3.39412e-01,9.99999e-01
8.884436187e-01,3.18276e-01,9.99999e-01,9.17922e-01,3.46735e-01,9.99999e-01
8.928858368e-01,3.41962e-01,9.99999e-01,9.65814e-01,3.54065e-01,9.99999e-01
8.973502660e-01,3.58371e-01,9.99999e-01,9.91614e-01,3.61402e-01,9.99999e-01
9.018370173e-01,3.68399e-01,9.99999e-01,9.99073e-01,3.68740e-01,9.99999e-01
9.063462024e-01,3.67180e-01,9.99999e-01,9.76337e-01,3.76079e-01,9.99999e-01
9.108779334e-01,3.62941e-01,9.99999e-01,9.46600e-01,3.83414e-01,9.99999e-01
9.154323231e-01,3.85770e-01,9.99999e-01,9.87270e-01,3.90744e-01,9.99999e-01
9.200094847e-01,3.35170e-01,9.99999e-01,8.42000e-01,3.98064e-01,9.99999e-01
9.246095321e-01,3.10191e-01,9.99999e-01,7.65199e-01,4.05373e-01,9.99999e-01
9.292325798e-01,3.35113e-01,9.99999e-01,8.12063e-01,4.12668e-01,9.99999e-01
9.338787427e-01,3.43171e-01,9.99999e-01,8.17178e-01,4.19946e-01,9.99999e-01
9.385481364e-01,3.67965e-01,9.99999e-01,8.61331e-01,4.27205e-01,9.99999e-01
9.432408771e-01,3.96416e-01,9.99999e-01,9.12469e-01,4.34443e-01,9.99999e-01
9.479570815e-01,4.21343e-01,9.99999e-01,9.54006e-01,4.41656e-01,9.99999e-01
9.526968669e-01,4.38787e-01,9.99999e-01,9.77595e-01,4.48843e-01,9.99999e-01
9.574603512e-01,4.51605e-01,9.99999e-01,9.90356e-01,4.56002e-01,9.99999e-01
9.622476530e-01,4.61733e-01,9.99999e-01,9.96983e-01,4.63130e-01,9.99999e-01
9.670588912e-01,4.69801e-01,9.99999e-01,9.99096e-01,4.70225e-01,9.99999e-01
9.718941857e-01,4.77256e-01,9.99999e-01,9.99936e-01,4.77286e-01,9.99999e-01
9.767536566e-01,4.84310e-01,9.99999e-01,9.99999e-01,4.84310e-01,9.99999e-01
9.816374249e-01,4.91296e-01,9.99999e-01,9.99999e-01,4.91296e-01,9.99999e-01
9.865456120e-01,4.98242e-01,9.99999e-01,9.99999e-01,4.98242e-01,9.99999e-01
9.914783401e-01,5.05145e-01,9.99999e-01,9.99999e-01,5.05145e-01,9.99999e-01
9.964357318e-01,5.12005e-01,9.99999e-01,9.99999e-01,5.12005e-01,9.99999e-01
1.001417910e+00,5.18820e-01,9.99999e-01,9.99999e-01,5.18820e-01,9.99999e-01
1.006425000e+00,5.25589e-01,9.99999e-01,9.99999e-01,5.25589e-01,9.99999e-01
1.011457125e+00,5.32309e-01,9.99999e-01,9.99999e-01,5.32309e-01,9.99999e-01
1.016514411e+00,5.38980e-01,9.99999e-01,9.99999e-01,5.38980e-01,9.99999e-01
1.021596983e+00,5.45526e-01,9.99999e-01,9.99861e-01,5.45601e-01,9.99999e-01
1.026704968e+00,5.46981e-01,9.99999e-01,9.90603e-01,5.52170e-01,9.99999e-01
1.031838492e+00,5.11725e-01,9.99999e-01,9.15944e-01,5.58685e-01,9.99999e-01
1.036997685e+00,3.63058e-02,9.99999e-01,6.42414e-02,5.65147e-01,9.99999e-01
1.042182673e+00,5.15967e-03,9.99999e-01,9.02744e-03,5.71553e-01,9.99999e-01
1.047393587e+00,1.12241e-02,9.99999e-01,1.94221e-02,5.77904e-01,9.99999e-01
1.052630555e+00,6.03502e-06,9.99999e-01,1.03304e-05,5.84197e-01,9.99999e-01
1.057893707e+00,2.24865e-05,9.99999e-01,3.80847e-05,5.90433e-01,9.99999e-01
1.063183176e+00,3.06849e-04,9.99999e-01,5.14320e-04,5.96610e-01,9.99999e-01
1.068499092e+00,2.21942e-03,9.99999e-01,3.68230e-03,6.02727e-01,9.99999e-01
1.073841587e+00,1.68720e-02,9.99999e-01,2.77142e-02,6.08785e-01,9.99999e-01
1.079210795e+00,6.41810e-02,9.99999e-01,1.04396e-01,6.14782e-01,9.99999e-01
1.084606849e+00,1.74064e-01,9.99999e-01,2.80422e-01,6.20719e-01,9.99999e-01
1.090029883e+00,3.22257e-01,9.99999e-01,5.14299e-01,6.26593e-01,9.99999e-01
1.095480033e+00,4.55405e-01,9.99999e-01,7.20116e-01,6.32405e-01,9.99999e-01
1.100957433e+00,5.44437e-01,9.99999e-01,8.53141e-01,6.38155e-01,9.99999e-01
1.106462220e+00,6.02899e-01,9.99999e-01,9.36407e-01,6.43842e-01,9.99999e-01
1.111994531e+00,6.33827e-01,9.99999e-01,9.75918e-01,6.49466e-01,9.99999e-01
1.117554504e+00,6.51152e-01,9.99999e-01,9.94084e-01,6.55027e-01,9.99999e-01
1.123142276e+00,6.60268e-01,9.99999e-01,9.99612e-01,6.60524e-01,9.99999e-01
1.128757988e+00,6.65957e-01,9.99999e-01,9.99999e-01,6.65957e-01,9.99999e-01
1.134401778e+00,6.71326e-01,9.99999e-01,9.99999e-01,6.71326e-01,9.99999e-01
1.140073787e+00,6.76631e-01,9.99999e-01,9.99999e-01,6.76631e-01,9.99999e-01
1.145774156e+00,6.81872e-01,9.99999e-01,9.99999e-01,6.81872e-01,9.99999e-01
1.151503026e+00,6.87049e-01,9.99999e-01,9.99999e-01,6.87049e-01,9.99999e-01
1.157260541e+00,6.92162e-01,9.99999e-01,9.99999e-01,6.92162e-01,9.99999e-01
1.163046844e+00,6.97210e-01,9.99999e-01,9.99999e-01,6.97210e-01,9.99999e-01
1.168862078e+00,7.02195e-01,9.99999e-01,9.99999e-01,7.02195e-01,9.99999e-01
1.174706389e+00,7.07116e-01,9.99999e-01,9.99999e-01,7.07116e-01,9.99999e-01
1.180579921e+00,7.11973e-01,9.99999e-01,9.99999e-01,7.11973e-01,9.99999e-01
1.186482820e+00,7.16752e-01,9.99999e-01,9.99979e-01,7.16767e-01,9.99999e-01
1.192415234e+00,6.98088e-01,9.99999e-01,9.67554e-01,7.21497e-01,9.99999e-01
1.198377311e+00,3.83863e-01,9.99999e-01,5.28617e-01,7.26164e-01,9.99999e-01
1.204369197e+00,1.32527e-24,9.99999e-01,1.81353e-24,7.30768e-01,9.99999e-01
1.210391043e+00,2.72731e-98,9.99999e-01,3.70906e-98,7.35309e-01,9.99999e-01
1.216442998e+00,4.09008e-85,9.99999e-01,5.52871e-85,7.39789e-01,9.99999e-01
1.222525213e+00,7.64027e-84,9.99999e-01,1.02663e-83,7.44206e-01,9.99999e-01
1.228637839e+00,9.37346e-65,9.99999e-01,1.25220e-64,7.48562e-01,9.99999e-01
1.234781029e+00,1.82740e-40,9.99999e-01,2.42729e-40,7.52856e-01,9.99999e-01
1.240954934e+00,6.29046e-27,9.99999e-01,8.30873e-27,7.57089e-01,9.99999e-01
1.247159708e+00,3.13939e-13,9.99999e-01,4.12393e-13,7.61262e-01,9.99999e-01
1.253395507e+00,6.00086e-09,9.99999e-01,7.84041e-09,7.65375e-01,9.99999e-01
1.259662485e+00,1.89701e-05,9.99999e-01,2.46548e-05,7.69428e-01,9.99999e-01
1.265960797e+00,2.10533e-03,9.99999e-01,2.72209e-03,7.73422e-01,9.99999e-01
1.272290601e+00,5.16820e-02,9.99999e-01,6.64841e-02,7.77357e-01,9.99999e-01
1.278652054e+00,4.53340e-02,9.99999e-01,5.80287e-02,7.81234e-01,9.99999e-01
1.285045314e+00,1.07288e-04,9.99999e-01,1.36663e-04,7.85053e-01,9.99999e-01
1.291470541e+00,7.63435e-12,9.99999e-01,9.67825e-12,7.88814e-01,9.99999e-01
1.297927893e+00,1.29443e-04,9.99999e-01,1.63331e-04,7.92519e-01,9.99999e-01
1.304417533e+00,5.43884e-03,9.99999e-01,6.83127e-03,7.96168e-01,9.99999e-01
1.310939621e+00,9.60523e-04,9.99999e-01,1.20101e-03,7.99761e-01,9.99999e-01
1.317494319e+00,3.89219e-34,9.99999e-01,4.84526e-34,8.03298e-01,9.99999e-01
1.324081790e+00,3.03387e-22,9.99999e-01,3.76046e-22,8.06781e-01,9.99999e-01
1.330702199e+00,3.15388e-13,9.99999e-01,3.89267e-13,8.10210e-01,9.99999e-01
1.337355710e+00,3.16521e-12,9.99999e-01,3.89044e-12,8.13585e-01,9.99999e-01
1.344042489e+00,1.48161e-12,9.99999e-01,1.81368e-12,8.16907e-01,9.99999e-01
1.350762701e+00,1.66254e-13,9.99999e-01,2.02705e-13,8.20177e-01,9.99999e-01
1.357516515e+00,1.93446e-08,9.99999e-01,2.34937e-08,8.23395e-01,9.99999e-01
1.364304097e+00,3.57252e-06,9.99999e-01,4.32214e-06,8.26561e-01,9.99999e-01
1.371125618e+00,1.51792e-03,9.99999e-01,1.82953e-03,8.29677e-01,9.99999e-01
1.377981246e+00,3.71682e-03,9.99999e-01,4.46334e-03,8.32742e-01,9.99999e-01
1.384871152e+00,3.56340e-02,9.99999e-01,4.26366e-02,8.35758e-01,9.99999e-01
1.391795508e+00,4.57802e-02,9.99999e-01,5.45830e-02,8.38726e-01,9.99999e-01
1.398754485e+00,1.35805e-01,9.99999e-01,1.61356e-01,8.41644e-01,9.99999e-01
1.405748258e+00,2.23218e-01,9.99999e-01,2.64315e-01,8.44515e-01,9.99999e-01
1.412776999e+00,3.63757e-01,9.99999e-01,4.29294e-01,8.47339e-01,9.99999e-01
1.419840884e+00,3.32336e-01,9.99999e-01,3.90930e-01,8.50116e-01,9.99999e-01
1.426940089e+00,1.43861e-02,9.99999e-01,1.68683e-02,8.52847e-01,9.99999e-01
1.434074789e+00,0.00000e+00,9.99999e-01,0.00000e+00,8.55533e-01,9.99999e-01
1.441245163e+00,0.00000e+00,9.99999e-01,0.00000e+00,8.58173e-01,9.99999e-01
1.448451389e+00,0.00000e+00,9.99999e-01,0.00000e+00,8.60770e-01,9.99999e-01
1.455693646e+00,0.00000e+00,9.99999e-01,0.00000e+00,8.63323e-01,9.99999e-01
1.462972114e+00,0.00000e+00,9.99999e-01,0.00000e+00,8.65833e-01,9.99999e-01
1.470286975e+00,1.19042e-162,9.99999e-01,1.37098e-162,8.68300e-01,9.99999e-01
