#,Wave/freq,Total,O2,CO2,Rayleigh,CIA
4.000000000e-01,3.14278e-06,9.99999e-01,9.99999e-01,3.14278e-06,9.99999e-01
4.020000000e-01,4.03757e-06,9.99999e-01,9.99999e-01,4.03757e-06,9.99999e-01
4.040100000e-01,5.16016e-06,9.99999e-01,9.99999e-01,5.16016e-06,9.99999e-01
4.060300500e-01,6.56298e-06,9.99999e-01,9.99999e-01,6.56298e-06,9.99999e-01
4.080602003e-01,8.30761e-06,9.99999e-01,9.99999e-01,8.30761e-06,9.99999e-01
4.101005013e-01,1.04672e-05,9.99999e-01,9.99999e-01,1.04672e-05,9.99999e-01
4.121510038e-01,1.31280e-05,9.99999e-01,9.99999e-01,1.31280e-05,9.99999e-01
4.142117588e-01,1.63918e-05,9.99999e-01,9.99999e-01,1.63918e-05,9.99999e-01
4.162828176e-01,2.03775e-05,9.99999e-01,9.99999e-01,2.03775e-05,9.99999e-01
4.183642317e-01,2.52235e-05,9.99999e-01,9.99999e-01,2.52235e-05,9.99999e-01
4.204560528e-01,3.10908e-05,9.99999e-01,9.99999e-01,3.10908e-05,9.99999e-01
4.225583331e-01,3.81648e-05,9.99999e-01,9.99999e-01,3.81648e-05,9.99999e-01
4.246711247e-01,4.66591e-05,9.99999e-01,9.99999e-01,4.66591e-05,9.99999e-01
4.267944804e-01,5.68180e-05,9.99999e-01,9.99999e-01,5.68180e-05,9.99999e-01
4.289284528e-01,6.89200e-05,9.99999e-01,9.99999e-01,6.89200e-05,9.99999e-01
4.310730950e-01,8.32814e-05,9.99999e-01,9.99999e-01,8.32814e-05,9.99999e-01
4.332284605e-01,1.00260e-04,9.99999e-01,9.99999e-01,1.00260e-04,9.99999e-01
4.353946028e-01,1.20258e-04,9.99999e-01,9.99999e-01,1.20258e-04,9.99999e-01
4.375715758e-01,1.43728e-04,9.99999e-01,9.99999e-01,1.43728e-04,9.99999e-01
4.397594337e-01,1.71175e-04,9.99999e-01,9.99999e-01,1.71175e-04,9.99999e-01
4.419582309e-01,2.03161e-04,9.99999e-01,9.99999e-01,2.03161e-04,9.99999e-01
4.441680220e-01,2.40308e-04,9.99999e-01,9.99999e-01,2.40308e-04,9.99999e-01
4.463888621e-01,2.83307e-04,9.99999e-01,9.99999e-01,2.83307e-04,9.99999e-01
4.486208064e-01,3.32916e-04,9.99999e-01,9.99999e-01,3.32916e-04,9.99999e-01
4.508639105e-01,3.89966e-04,9.99999e-01,9.99999e-01,3.89966e-04,9.99999e-01
4.531182300e-01,4.55368e-04,9.99999e-01,9.99999e-01,4.55368e-04,9.99999e-01
4.553838212e-01,5.30113e-04,9.99999e-01,9.99999e-01,5.30113e-04,9.99999e-01
4.576607403e-01,6.15276e-04,9.99999e-01,9.99999e-01,6.15276e-04,9.99999e-01
4.599490440e-01,7.12023e-04,9.99999e-01,9.99999e-01,7.12023e-04,9.99999e-01
4.622487892e-01,8.21608e-04,9.99999e-01,9.99999e-01,8.21608e-04,9.99999e-01
4.645600332e-01,9.45383e-04,9.99999e-01,9.99999e-01,9.45383e-04,9.99999e-01
4.668828333e-01,1.08479e-03,9.99999e-01,9.99999e-01,1.08479e-03,9.99999e-01
4.692172475e-01,1.24138e-03,9.99999e-01,9.99999e-01,1.24138e-03,9.99999e-01
4.715633337e-01,1.41680e-03,9.99999e-01,9.99999e-01,1.41680e-03,9.99999e-01
4.739211504e-01,1.61279e-03,9.99999e-01,9.99999e-01,1.61279e-03,9.99999e-01
4.762907561e-01,1.83120e-03,9.99999e-01,9.99999e-01,1.83120e-03,9.99999e-01
4.786722099e-01,2.07397e-03,9.99999e-01,9.99999e-01,2.07397e-03,9.99999e-01
4.810655710e-01,2.34316e-03,9.99999e-01,9.99999e-01,2.34316e-03,9.99999e-01
4.834708988e-01,2.64092e-03,9.99999e-01,9.99999e-01,2.64092e-03,9.99999e-01
4.858882533e-01,2.96949e-03,9.99999e-01,9.99999e-01,2.96949e-03,9.99999e-01
4.883176946e-01,3.33122e-03,9.99999e-01,9.99999e-01,3.33122e-03,9.99999e-01
4.907592831e-01,3.72853e-03,9.99999e-01,9.99999e-01,3.72853e-03,9.99999e-01
4.932130795e-01,4.16395e-03,9.99999e-01,9.99999e-01,4.16395e-03,9.99999e-01
4.956791449e-01,4.64009e-03,9.99999e-01,9.99999e-01,4.64009e-03,9.99999e-01
4.981575406e-01,5.15962e-03,9.99999e-01,9.99999e-01,5.15962e-03,9.99999e-01
5.006483283e-01,5.72532e-03,9.99999e-01,9.99999e-01,5.72532e-03,9.99999e-01
5.031515699e-01,6.33999e-03,9.99999e-01,9.99999e-01,6.33999e-03,9.99999e-01
5.056673278e-01,7.00653e-03,9.99999e-01,9.99999e-01,7.00653e-03,9.99999e-01
5.081956644e-01,7.72786e-03,9.99999e-01,9.99999e-01,7.72786e-03,9.99999e-01
5.107366428e-01,8.50698e-03,9.99999e-01,9.99999e-01,8.50698e-03,9.99999e-01
5.132903260e-01,9.34690e-03,9.99999e-01,9.99999e-01,9.34690e-03,9.99999e-01
5.158567776e-01,1.02507e-02,9.99999e-01,9.99999e-01,1.02507e-02,9.99999e-01
5.184360615e-01,1.12213e-02,9.99999e-01,9.99999e-01,1.12213e-02,9.99999e-01
5.210282418e-01,1.22620e-02,9.99999e-01,9.99999e-01,1.22620e-02,9.99999e-01
5.236333830e-01,1.33757e-02,9.99999e-01,9.99999e-01,1.33757e-02,9.99999e-01
5.262515499e-01,1.45655e-02,9.99999e-01,9.99999e-01,1.45655e-02,9.99999e-01
5.288828077e-01,1.58345e-02,9.99999e-01,9.99999e-01,1.58345e-02,9.99999e-01
5.315272217e-01,1.71857e-02,9.99999e-01,9.99999e-01,1.71857e-02,9.99999e-01
5.341848578e-01,1.86220e-02,9.99999e-01,9.99999e-01,1.86220e-02,9.99999e-01
5.368557821e-01,2.01465e-02,9.99999e-01,9.99999e-01,2.01465e-02,9.99999e-01
5.395400610e-01,2.17618e-02,9.99999e-01,9.99999e-01,2.17618e-02,9.99999e-01
5.422377613e-01,2.34709e-02,9.99999e-01,9.99999e-01,2.34709e-02,9.99999e-01
5.449489501e-01,2.52764e-02,9.99999e-01,9.99999e-01,2.52764e-02,9.99999e-01
5.476736949e-01,2.71810e-02,9.99999e-01,9.99999e-01,2.71810e-02,9.99999e-01
5.504120634e-01,2.91872e-02,9.99999e-01,9.99999e-01,2.91872e-02,9.99999e-01
5.531641237e-01,3.12975e-02,9.99999e-01,9.99999e-01,3.12975e-02,9.99999e-01
5.559299443e-01,3.35140e-02,9.99999e-01,9.99999e-01,3.35140e-02,9.99999e-01
5.587095940e-01,3.58391e-02,9.99999e-01,9.99999e-01,3.58391e-02,9.99999e-01
5.615031420e-01,3.82747e-02,9.99999e-01,9.99999e-01,3.82747e-02,9.99999e-01
5.643106577e-01,4.08228e-02,9.99999e-01,9.99999e-01,4.08228e-02,9.99999e-01
5.671322110e-01,4.34852e-02,9.99999e-01,9.99999e-01,4.34852e-02,9.99999e-01
5.699678720e-01,4.62634e-02,9.99999e-01,9.99999e-01,4.62634e-02,9.99999e-01
5.728177114e-01,4.91589e-02,9.99999e-01,9.99999e-01,4.91589e-02,9.99999e-01
5.756818000e-01,5.21731e-02,9.99999e-01,9.99999e-01,5.21731e-02,9.99999e-01
5.785602090e-01,5.53070e-02,9.99999e-01,9.99999e-01,5.53070e-02,9.99999e-01
5.814530100e-01,5.85616e-02,9.99999e-01,9.99999e-01,5.85616e-02,9.99999e-01
5.843602750e-01,6.19378e-02,9.99999e-01,9.99999e-01,6.19378e-02,9.99999e-01
5.872820764e-01,6.54361e-02,9.99999e-01,9.99999e-01,6.54361e-02,9.99999e-01
5.902184868e-01,6.90571e-02,9.99999e-01,9.99999e-01,6.90571e-02,9.99999e-01
5.931695792e-01,7.28009e-02,9.99999e-01,9.99999e-01,7.28009e-02,9.99999e-01
5.961354271e-01,7.66677e-02,9.99999e-01,9.99999e-01,7.66677e-02,9.99999e-01
5.991161043e-01,8.06573e-02,9.99999e-01,9.99999e-01,8.06573e-02,9.99999e-01
6.021116848e-01,8.47697e-02,9.99999e-01,9.99999e-01,8.47697e-02,9.99999e-01
6.051222432e-01,8.90042e-02,9.99999e-01,9.99999e-01,8.90042e-02,9.99999e-01
6.081478544e-01,9.33603e-02,9.99999e-01,9.99999e-01,9.33603e-02,9.99999e-01
6.111885937e-01,9.78372e-02,9.99999e-01,9.99999e-01,9.78372e-02,9.99999e-01
6.142445367e-01,1.02434e-01,9.99999e-01,9.99999e-01,1.02434e-01,9.99999e-01
6.173157594e-01,1.07149e-01,9.99999e-01,9.99999e-01,1.07149e-01,9.99999e-01
6.204023382e-01,1.11983e-01,9.99999e-01,9.99999e-01,1.11983e-01,9.99999e-01
6.235043498e-01,1.16932e-01,9.99999e-01,9.99999e-01,1.16932e-01,9.99999e-01
6.266218716e-01,1.21995e-01,9.99999e-01,9.99999e-01,1.21995e-01,9.99999e-01
6.297549810e-01,1.27171e-01,9.99999e-01,9.99999e-01,1.27171e-01,9.99999e-01
6.329037559e-01,1.32459e-01,9.99999e-01,9.99999e-01,1.32459e-01,9.99999e-01
6.360682746e-01,1.37855e-01,9.99999e-01,9.99999e-01,1.37855e-01,9.99999e-01
6.392486160e-01,1.43357e-01,9.99999e-01,9.99999e-01,1.43357e-01,9.99999e-01
6.424448591e-01,1.48964e-01,9.99999e-01,9.99999e-01,1.48964e-01,9.99999e-01
6.456570834e-01,1.54674e-01,9.99999e-01,9.99999e-01,1.54674e-01,9.99999e-01
6.488853688e-01,1.60482e-01,9.99999e-01,9.99999e-01,1.60482e-01,9.99999e-01
6.521297956e-01,1.66388e-01,9.99999e-01,9.99999e-01,1.66388e-01,9.99999e-01
6.553904446e-01,1.72388e-01,9.99999e-01,9.99999e-01,1.72388e-01,9.99999e-01
6.586673968e-01,1.78479e-01,9.99999e-01,9.99999e-01,1.78479e-01,9.99999e-01
6.619607338e-01,1.84659e-01,9.99999e-01,9.99999e-01,1.84659e-01,9.99999e-01
6.652705375e-01,1.90924e-01,9.99999e-01,9.99999e-01,1.90924e-01,9.99999e-01
6.685968902e-01,1.97272e-01,9.99999e-01,9.99999e-01,1.97272e-01,9.99999e-01
6.719398746e-01,2.03700e-01,9.99999e-01,9.99999e-01,2.03700e-01,9.99999e-01
6.752995740e-01,2.10203e-01,9.99999e-01,9.99999e-01,2.10203e-01,9.99999e-01
6.786760719e-01,2.16780e-01,9.99999e-01,9.99999e-01,2.16780e-01,9.99999e-01
6.820694522e-01,2.23426e-01,9.99999e-01,9.99999e-01,2.23426e-01,9.99999e-01
6.854797995e-01,2.30139e-01,9.99999e-01,9.99999e-01,2.30139e-01,9.99999e-01
6.889071985e-01,2.36915e-01,9.99999e-01,9.99999e-01,2.36915e-01,9.99999e-01
6.923517345e-01,2.43751e-01,9.99999e-01,9.99999e-01,2.43751e-01,9.99999e-01
6.958134932e-01,2.50643e-01,9.99999e-01,9.99999e-01,2.50643e-01,9.99999e-01
6.992925606e-01,2.57588e-01,9.99999e-01,9.99999e-01,2.57588e-01,9.99999e-01
7.027890234e-01,2.64583e-01,9.99999e-01,9.99999e-01,2.64583e-01,9.99999e-01
7.063029686e-01,2.71623e-01,9.99999e-01,9.99999e-01,2.71623e-01,9.99999e-01
7.098344834e-01,2.78707e-01,9.99999e-01,9.99999e-01,2.78707e-01,9.99999e-01
7.133836558e-01,2.85830e-01,9.99999e-01,9.99999e-01,2.85830e-01,9.99999e-01
7.169505741e-01,2.92989e-01,9.99999e-01,9.99999e-01,2.92989e-01,9.99999e-01
7.205353270e-01,3.00180e-01,9.99999e-01,9.99999e-01,3.00180e-01,9.99999e-01
7.241380036e-01,3.07401e-01,9.99999e-01,9.99999e-01,3.07401e-01,9.99999e-01
7.277586936e-01,3.14647e-01,9.99999e-01,9.99999e-01,3.14647e-01,9.99999e-01
7.313974871e-01,3.21916e-01,9.99999e-01,9.99999e-01,3.21916e-01,9.99999e-01
7.350544745e-01,3.29205e-01,9.99999e-01,9.99999e-01,3.29205e-01,9.99999e-01
7.387297469e-01,3.36510e-01,9.99999e-01,9.99999e-01,3.36510e-01,9.99999e-01
7.424233956e-01,3.43827e-01,9.99999e-01,9.99999e-01,3.43827e-01,9.99999e-01
7.461355126e-01,3.51155e-01,9.99999e-01,9.99999e-01,3.51155e-01,9.99999e-01
7.498661902e-01,3.58489e-01,9.99999e-01,9.99999e-01,3.58489e-01,9.99999e-01
7.536155211e-01,3.65828e-01,9.99999e-01,9.99999e-01,3.65828e-01,9.99999e-01
7.573835987e-01,3.73167e-01,9.99999e-01,9.99999e-01,3.73167e-01,9.99999e-01
7.611705167e-01,3.80504e-01,9.99999e-01,9.99999e-01,3.80504e-01,9.99999e-01
7.649763693e-01,3.87836e-01,9.99999e-01,9.99999e-01,3.87836e-01,9.99999e-01
7.688012511e-01,3.95160e-01,9.99999e-01,9.99999e-01,3.95160e-01,9.99999e-01
7.726452574e-01,4.02474e-01,9.99999e-01,9.99999e-01,4.02474e-01,9.99999e-01
7.765084837e-01,4.09775e-01,9.99999e-01,9.99999e-01,4.09775e-01,9.99999e-01
7.803910261e-01,4.00971e-01,9.99999e-01,9.61422e-01,4.17060e-01,9.99999e-01
7.842929812e-01,3.52811e-01,9.99999e-01,8.31459e-01,4.24327e-01,9.99999e-01
7.882144461e-01,3.54755e-01,9.99999e-01,8.22004e-01,4.31573e-01,9.99999e-01
7.921555184e-01,3.91142e-01,9.99999e-01,8.91397e-01,4.38796e-01,9.99999e-01
7.961162960e-01,4.12670e-01,9.99999e-01,9.25280e-01,4.45994e-01,9.99999e-01
8.000968774e-01,4.34513e-01,9.99999e-01,9.58842e-01,4.53164e-01,9.99999e-01
8.040973618e-01,4.50348e-01,9.99999e-01,9.78368e-01,4.60305e-01,9.99999e-01
8.081178486e-01,4.62766e-01,9.99999e-01,9.90056e-01,4.67413e-01,9.99999e-01
8.121584379e-01,4.73013e-01,9.99999e-01,9.96891e-01,4.74488e-01,9.99999e-01
8.162192301e-01,4.81196e-01,9.99999e-01,9.99312e-01,4.81527e-01,9.99999e-01
8.203003262e-01,4.88523e-01,9.99999e-01,9.99988e-01,4.88528e-01,9.99999e-01
8.244018279e-01,4.95490e-01,9.99999e-01,9.99999e-01,4.95490e-01,9.99999e-01
8.285238370e-01,5.02410e-01,9.99999e-01,9.99999e-01,5.02410e-01,9.99999e-01
8.326664562e-01,5.09288e-01,9.99999e-01,9.99999e-01,5.09288e-01,9.99999e-01
8.368297885e-01,5.16121e-01,9.99999e-01,9.99999e-01,5.16121e-01,9.99999e-01
8.410139374e-01,5.22908e-01,9.99999e-01,9.99999e-01,5.22908e-01,9.99999e-01
8.452190071e-01,5.29648e-01,9.99999e-01,9.99999e-01,5.29648e-01,9.99999e-01
8.494451021e-01,5.36339e-01,9.99999e-01,9.99999e-01,5.36339e-01,9.99999e-01
8.536923276e-01,5.42980e-01,9.99999e-01,9.99999e-01,5.42980e-01,9.99999e-01
8.579607893e-01,5.49569e-01,9.99999e-01,9.99999e-01,5.49569e-01,9.99999e-01
8.622505932e-01,5.56106e-01,9.99999e-01,9.99999e-01,5.56106e-01,9.99999e-01
8.665618462e-01,5.17151e-01,9.99999e-01,9.19233e-01,5.62589e-01,9.99999e-01
8.708946554e-01,3.57824e-01,9.99999e-01,6.28846e-01,5.69017e-01,9.99999e-01
8.752491287e-01,3.94653e-01,9.99999e-01,6.85887e-01,5.75390e-01,9.99999e-01
8.796253743e-01,4.72366e-01,9.99999e-01,8.12034e-01,5.81706e-01,9.99999e-01
8.840235012e-01,5.27708e-01,9.99999e-01,8.97515e-01,5.87965e-01,9.99999e-01
8.884436187e-01,5.69252e-01,9.99999e-01,9.58070e-01,5.94165e-01,9.99999e-01
8.928858368e-01,5.90012e-01,9.99999e-01,9.82850e-01,6.00307e-01,9.99999e-01
8.973502660e-01,6.03829e-01,9.99999e-01,9.95779e-01,6.06388e-01,9.99999e-01
9.018370173e-01,6.12124e-01,9.99999e-01,9.99532e-01,6.12410e-01,9.99999e-01
9.063462024e-01,6.11270e-01,9.99999e-01,9.88518e-01,6.18370e-01,9.99999e-01
9.108779334e-01,6.07494e-01,9.99999e-01,9.73128e-01,6.24269e-01,9.99999e-01
9.154323231e-01,6.26051e-01,9.99999e-01,9.93563e-01,6.30106e-01,9.99999e-01
9.200094847e-01,5.81141e-01,9.99999e-01,9.13915e-01,6.35881e-01,9.99999e-01
9.246095321e-01,5.61640e-01,9.99999e-01,8.75384e-01,6.41593e-01,9.99999e-01
9.292325798e-01,5.83912e-01,9.99999e-01,9.02154e-01,6.47242e-01,9.99999e-01
9.338787427e-01,5.90291e-01,9.99999e-01,9.04205e-01,6.52828e-01,9.99999e-01
9.385481364e-01,6.11363e-01,9.99999e-01,9.28628e-01,6.58350e-01,9.99999e-01
9.432408771e-01,6.34268e-01,9.99999e-01,9.55497e-01,6.63808e-01,9.99999e-01
9.479570815e-01,6.53804e-01,9.99999e-01,9.76989e-01,6.69203e-01,9.99999e-01
9.526968669e-01,6.66992e-01,9.99999e-01,9.88819e-01,6.74533e-01,9.99999e-01
9.574603512e-01,6.76538e-01,9.99999e-01,9.95201e-01,6.79800e-01,9.99999e-01
9.622476530e-01,6.83974e-01,9.99999e-01,9.98499e-01,6.85002e-01,9.99999e-01
9.670588912e-01,6.89829e-01,9.99999e-01,9.99548e-01,6.90140e-01,9.99999e-01
9.718941857e-01,6.95192e-01,9.99999e-01,9.99967e-01,6.95214e-01,9.99999e-01
9.767536566e-01,7.00224e-01,9.99999e-01,9.99999e-01,7.00224e-01,9.99999e-01
9.816374249e-01,7.05171e-01,9.99999e-01,9.99999e-01,7.05171e-01,9.99999e-01
9.865456120e-01,7.10053e-01,9.99999e-01,9.99999e-01,7.10053e-01,9.99999e-01
9.914783401e-01,7.14872e-01,9.99999e-01,9.99999e-01,7.14872e-01,9.99999e-01
9.964357318e-01,7.19627e-01,9.99999e-01,9.99999e-01,7.19627e-01,9.99999e-01
1.001417910e+00,7.24319e-01,9.99999e-01,9.99999e-01,7.24319e-01,9.99999e-01
1.006425000e+00,7.28948e-01,9.99999e-01,9.99999e-01,7.28948e-01,9.99999e-01
1.011457125e+00,7.33515e-01,9.99999e-01,9.99999e-01,7.33515e-01,9.99999e-01
1.016514411e+00,7.38018e-01,9.99999e-01,9.99999e-01,7.38018e-01,9.99999e-01
1.021596983e+00,7.42419e-01,9.99999e-01,9.99944e-01,7.42460e-01,9.99999e-01
1.026704968e+00,7.43493e-01,9.99999e-01,9.95517e-01,7.46840e-01,9.99999e-01
1.031838492e+00,7.15710e-01,9.99999e-01,9.52807e-01,7.51159e-01,9.99999e-01
1.036997685e+00,9.74139e-02,9.99999e-01,1.28954e-01,7.55416e-01,9.99999e-01
1.042182673e+00,5.90221e-02,9.99999e-01,7.77001e-02,7.59613e-01,9.99999e-01
1.047393587e+00,7.96857e-02,9.99999e-01,1.04335e-01,7.63750e-01,9.99999e-01
1.052630555e+00,1.13991e-03,9.99999e-01,1.48459e-03,7.67826e-01,9.99999e-01
1.057893707e+00,3.14013e-03,9.99999e-01,4.06835e-03,7.71844e-01,9.99999e-01
1.063183176e+00,1.31712e-02,9.99999e-01,1.69775e-02,7.75802e-01,9.99999e-01
1.068499092e+00,4.44447e-02,9.99999e-01,5.70021e-02,7.79702e-01,9.99999e-01
1.073841587e+00,1.27109e-01,9.99999e-01,1.62223e-01,7.83544e-01,9.99999e-01
1.079210795e+00,2.48835e-01,9.99999e-01,3.16049e-01,7.87328e-01,9.99999e-01
1.084606849e+00,4.18136e-01,9.99999e-01,5.28580e-01,7.91056e-01,9.99999e-01
1.090029883e+00,5.70746e-01,9.99999e-01,7.18165e-01,7.94726e-01,9.99999e-01
1.095480033e+00,6.77973e-01,9.99999e-01,8.49226e-01,7.98341e-01,9.99999e-01
1.100957433e+00,7.41161e-01,9.99999e-01,9.24255e-01,8.01901e-01,9.99999e-01
1.106462220e+00,7.79560e-01,9.99999e-01,9.67909e-01,8.05405e-01,9.99999e-01
1.111994531e+00,7.99136e-01,9.99999e-01,9.87983e-01,8.08855e-01,9.99999e-01
1.117554504e+00,8.09847e-01,9.99999e-01,9.97039e-01,8.12252e-01,9.99999e-01
1.123142276e+00,8.15435e-01,9.99999e-01,9.99803e-01,8.15595e-01,9.99999e-01
1.128757988e+00,8.18885e-01,9.99999e-01,9.99999e-01,8.18885e-01,9.99999e-01
1.134401778e+00,8.22124e-01,9.99999e-01,9.99999e-01,8.22124e-01,9.99999e-01
1.140073787e+00,8.25310e-01,9.99999e-01,9.99999e-01,8.25310e-01,9.99999e-01
1.145774156e+00,8.28446e-01,9.99999e-01,9.99999e-01,8.28446e-01,9.99999e-01
1.151503026e+00,8.31532e-01,9.99999e-01,9.99999e-01,8.31532e-01,9.99999e-01
1.157260541e+00,8.34567e-01,9.99999e-01,9.99999e-01,8.34567e-01,9.99999e-01
1.163046844e+00,8.37554e-01,9.99999e-01,9.99999e-01,8.37554e-01,9.99999e-01
1.168862078e+00,8.40492e-01,9.99999e-01,9.99999e-01,8.40492e-01,9.99999e-01
1.174706389e+00,8.43381e-01,9.99999e-01,9.99999e-01,8.43381e-01,9.99999e-01
1.180579921e+00,8.46224e-01,9.99999e-01,9.99999e-01,8.46224e-01,9.99999e-01
1.186482820e+00,8.49014e-01,9.99999e-01,9.99993e-01,8.49019e-01,9.99999e-01
1.192415234e+00,8.38351e-01,9.99999e-01,9.84247e-01,8.51769e-01,9.99999e-01
1.198377311e+00,4.75936e-01,9.99999e-01,5.56994e-01,8.54472e-01,9.99999e-01
1.204369197e+00,3.10520e-13,9.99999e-01,3.62278e-13,8.57131e-01,9.99999e-01
1.210391043e+00,1.92364e-49,9.99999e-01,2.23745e-49,8.59745e-01,9.99999e-01
1.216442998e+00,5.73308e-43,9.99999e-01,6.64847e-43,8.62315e-01,9.99999e-01
1.222525213e+00,2.41700e-42,9.99999e-01,2.79473e-42,8.64842e-01,9.99999e-01
1.228637839e+00,8.49447e-33,9.99999e-01,9.79385e-33,8.67326e-01,9.99999e-01
1.234781029e+00,4.99705e-21,9.99999e-01,5.74526e-21,8.69768e-01,9.99999e-01
1.240954934e+00,3.51863e-14,9.99999e-01,4.03434e-14,8.72168e-01,9.99999e-01
1.247159708e+00,1.23909e-07,9.99999e-01,1.41686e-07,8.74528e-01,9.99999e-01
1.253395507e+00,5.25012e-05,9.99999e-01,5.98749e-05,8.76847e-01,9.99999e-01
1.259662485e+00,2.21947e-03,9.99999e-01,2.52463e-03,8.79126e-01,9.99999e-01
1.265960797e+00,3.48279e-02,9.99999e-01,3.95158e-02,8.81366e-01,9.99999e-01
1.272290601e+00,1.99136e-01,9.99999e-01,2.25377e-01,8.83567e-01,9.99999e-01
1.278652054e+00,1.92177e-01,9.99999e-01,2.16970e-01,8.85730e-01,9.99999e-01
1.285045314e+00,3.63868e-03,9.99999e-01,4.09827e-03,8.87855e-01,9.99999e-01
1.291470541e+00,1.86948e-06,9.99999e-01,2.10067e-06,8.89944e-01,9.99999e-01
1.297927893e+00,1.80039e-03,9.99999e-01,2.01838e-03,8.91996e-01,9.99999e-01
1.304417533e+00,7.19713e-02,9.99999e-01,8.05036e-02,8.94012e-01,9.99999e-01
1.310939621e+00,1.77884e-02,9.99999e-01,1.98533e-02,8.95992e-01,9.99999e-01
1.317494319e+00,2.01626e-17,9.99999e-01,2.24543e-17,8.97938e-01,9.99999e-01
1.324081790e+00,6.42596e-12,9.99999e-01,7.14114e-12,8.99850e-01,9.99999e-01
1.330702199e+00,4.73078e-07,9.99999e-01,5.24635e-07,9.01727e-01,9.99999e-01
1.337355710e+00,8.15597e-07,9.99999e-01,9.02636e-07,9.03572e-01,9.99999e-01
1.344042489e+00,2.71837e-07,9.99999e-01,3.00245e-07,9.05383e-01,9.99999e-01
1.350762701e+00,2.73730e-07,9.99999e-01,3.01743e-07,9.07162e-01,9.99999e-01
1.357516515e+00,6.69666e-05,9.99999e-01,7.36779e-05,9.08910e-01,9.99999e-01
1.364304097e+00,1.66707e-03,9.99999e-01,1.83069e-03,9.10626e-01,9.99999e-01
1.371125618e+00,3.45154e-02,9.99999e-01,3.78329e-02,9.12312e-01,9.99999e-01
1.377981246e+00,6.08843e-02,9.99999e-01,6.66153e-02,9.13967e-01,9.99999e-01
1.384871152e+00,1.89193e-01,9.99999e-01,2.06634e-01,9.15593e-01,9.99999e-01
1.391795508e+00,2.13295e-01,9.99999e-01,2.32552e-01,9.17189e-01,9.99999e-01
1.398754485e+00,3.72806e-01,9.99999e-01,4.05772e-01,9.18756e-01,9.99999e-01
1.405748258e+00,4.73820e-01,9.99999e-01,5.14856e-01,9.20295e-01,9.99999e-01
1.412776999e+00,6.05602e-01,9.99999e-01,6.56972e-01,9.21806e-01,9.99999e-01
1.419840884e+00,5.48358e-01,9.99999e-01,5.93917e-01,9.23290e-01,9.99999e-01
1.426940089e+00,4.42559e-02,9.99999e-01,4.78572e-02,9.24747e-01,9.99999e-01
1.434074789e+00,0.00000e+00,9.99999e-01,0.00000e+00,9.26177e-01,9.99999e-01
1.441245163e+00,0.00000e+00,9.99999e-01,0.00000e+00,9.27581e-01,9.99999e-01
1.448451389e+00,0.00000e+00,9.99999e-01,0.00000e+00,9.28959e-01,9.99999e-01
1.455693646e+00,0.00000e+00,9.99999e-01,0.00000e+00,9.30312e-01,9.99999e-01
1.462972114e+00,8.36224e-194,9.99999e-01,8.97581e-194,9.31641e-01,9.99999e-01
1.470286975e+00,4.53472e-81,9.99999e-01,4.86065e-81,9.32945e-01,9.99999e-01
