#,Wave/freq,Total,O2,CO2,Rayleigh,CIA
4.000000000e-01,1.87299e-02,9.99999e-01,9.99999e-01,1.87299e-02,9.99999e-01
4.020000000e-01,2.02625e-02,9.99999e-01,9.99999e-01,2.02625e-02,9.99999e-01
4.040100000e-01,2.18847e-02,9.99999e-01,9.99999e-01,2.18847e-02,9.99999e-01
4.060300500e-01,2.36008e-02,9.99999e-01,9.99999e-01,2.36008e-02,9.99999e-01
4.080602003e-01,2.54135e-02,9.99999e-01,9.99999e-01,2.54135e-02,9.99999e-01
4.101005013e-01,2.73256e-02,9.99999e-01,9.99999e-01,2.73256e-02,9.99999e-01
4.121510038e-01,2.93394e-02,9.99999e-01,9.99999e-01,2.93394e-02,9.99999e-01
4.142117588e-01,3.14574e-02,9.99999e-01,9.99999e-01,3.14574e-02,9.99999e-01
4.162828176e-01,3.36818e-02,9.99999e-01,9.99999e-01,3.36818e-02,9.99999e-01
4.183642317e-01,3.60150e-02,9.99999e-01,9.99999e-01,3.60150e-02,9.99999e-01
4.204560528e-01,3.84589e-02,9.99999e-01,9.99999e-01,3.84589e-02,9.99999e-01
4.225583331e-01,4.10153e-02,9.99999e-01,9.99999e-01,4.10153e-02,9.99999e-01
4.246711247e-01,4.36862e-02,9.99999e-01,9.99999e-01,4.36862e-02,9.99999e-01
4.267944804e-01,4.64730e-02,9.99999e-01,9.99999e-01,4.64730e-02,9.99999e-01
4.289284528e-01,4.93772e-02,9.99999e-01,9.99999e-01,4.93772e-02,9.99999e-01
4.310730950e-01,5.24002e-02,9.99999e-01,9.99999e-01,5.24002e-02,9.99999e-01
4.332284605e-01,5.55430e-02,9.99999e-01,9.99999e-01,5.55430e-02,9.99999e-01
4.353946028e-01,5.88066e-02,9.99999e-01,9.99999e-01,5.88066e-02,9.99999e-01
4.375715758e-01,6.21917e-02,9.99999e-01,9.99999e-01,6.21917e-02,9.99999e-01
4.397594337e-01,6.56991e-02,9.99999e-01,9.99999e-01,6.56991e-02,9.99999e-01
4.419582309e-01,6.93291e-02,9.99999e-01,9.99999e-01,6.93291e-02,9.99999e-01
4.441680220e-01,7.30820e-02,9.99999e-01,9.99999e-01,7.30820e-02,9.99999e-01
4.463888621e-01,7.69578e-02,9.99999e-01,9.99999e-01,7.69578e-02,9.99999e-01
4.486208064e-01,8.09566e-02,9.99999e-01,9.99999e-01,8.09566e-02,9.99999e-01
4.508639105e-01,8.50779e-02,9.99999e-01,9.99999e-01,8.50779e-02,9.99999e-01
4.531182300e-01,8.93214e-02,9.99999e-01,9.99999e-01,8.93214e-02,9.99999e-01
4.553838212e-01,9.36865e-02,9.99999e-01,9.99999e-01,9.36865e-02,9.99999e-01
4.576607403e-01,9.81723e-02,9.99999e-01,9.99999e-01,9.81723e-02,9.99999e-01
4.599490440e-01,1.02778e-01,9.99999e-01,9.99999e-01,1.02778e-01,9.99999e-01
4.622487892e-01,1.07502e-01,9.99999e-01,9.99999e-01,1.07502e-01,9.99999e-01
4.645600332e-01,1.12344e-01,9.99999e-01,9.99999e-01,1.12344e-01,9.99999e-01
4.668828333e-01,1.17301e-01,9.99999e-01,9.99999e-01,1.17301e-01,9.99999e-01
4.692172475e-01,1.22373e-01,9.99999e-01,9.99999e-01,1.22373e-01,9.99999e-01
4.715633337e-01,1.27558e-01,9.99999e-01,9.99999e-01,1.27558e-01,9.99999e-01
4.739211504e-01,1.32853e-01,9.99999e-01,9.99999e-01,1.32853e-01,9.99999e-01
4.762907561e-01,1.38257e-01,9.99999e-01,9.99999e-01,1.38257e-01,9.99999e-01
4.786722099e-01,1.43767e-01,9.99999e-01,9.99999e-01,1.43767e-01,9.99999e-01
4.810655710e-01,1.49382e-01,9.99999e-01,9.99999e-01,1.49382e-01,9.99999e-01
4.834708988e-01,1.55099e-01,9.99999e-01,9.99999e-01,1.55099e-01,9.99999e-01
4.858882533e-01,1.60915e-01,9.99999e-01,9.99999e-01,1.60915e-01,9.99999e-01
4.883176946e-01,1.66827e-01,9.99999e-01,9.99999e-01,1.66827e-01,9.99999e-01
4.907592831e-01,1.72834e-01,9.99999e-01,9.99999e-01,1.72834e-01,9.99999e-01
4.932130795e-01,1.78932e-01,9.99999e-01,9.99999e-01,1.78932e-01,9.99999e-01
4.956791449e-01,1.85118e-01,9.99999e-01,9.99999e-01,1.85118e-01,9.99999e-01
4.981575406e-01,1.91390e-01,9.99999e-01,9.99999e-01,1.91390e-01,9.99999e-01
5.006483283e-01,1.97744e-01,9.99999e-01,9.99999e-01,1.97744e-01,9.99999e-01
5.031515699e-01,2.04177e-01,9.99999e-01,9.99999e-01,2.04177e-01,9.99999e-01
5.056673278e-01,2.10686e-01,9.99999e-01,9.99999e-01,2.10686e-01,9.99999e-01
5.081956644e-01,2.17268e-01,9.99999e-01,9.99999e-01,2.17268e-01,9.99999e-01
5.107366428e-01,2.23919e-01,9.99999e-01,9.99999e-01,2.23919e-01,9.99999e-01
5.132903260e-01,2.30637e-01,9.99999e-01,9.99999e-01,2.30637e-01,9.99999e-01
5.158567776e-01,2.37418e-01,9.99999e-01,9.99999e-01,2.37418e-01,9.99999e-01
5.184360615e-01,2.44258e-01,9.99999e-01,9.99999e-01,2.44258e-01,9.99999e-01
5.210282418e-01,2.51154e-01,9.99999e-01,9.99999e-01,2.51154e-01,9.99999e-01
5.236333830e-01,2.58102e-01,9.99999e-01,9.99999e-01,2.58102e-01,9.99999e-01
5.262515499e-01,2.65101e-01,9.99999e-01,9.99999e-01,2.65101e-01,9.99999e-01
5.288828077e-01,2.72145e-01,9.99999e-01,9.99999e-01,2.72145e-01,9.99999e-01
5.315272217e-01,2.79231e-01,9.99999e-01,9.99999e-01,2.79231e-01,9.99999e-01
5.341848578e-01,2.86357e-01,9.99999e-01,9.99999e-01,2.86357e-01,9.99999e-01
5.368557821e-01,2.93518e-01,9.99999e-01,9.99999e-01,2.93518e-01,9.99999e-01
5.395400610e-01,3.00712e-01,9.99999e-01,9.99999e-01,3.00712e-01,9.99999e-01
5.422377613e-01,3.07934e-01,9.99999e-01,9.99999e-01,3.07934e-01,9.99999e-01
5.449489501e-01,3.15183e-01,9.99999e-01,9.99999e-01,3.15183e-01,9.99999e-01
5.476736949e-01,3.22453e-01,9.99999e-01,9.99999e-01,3.22453e-01,9.99999e-01
5.504120634e-01,3.29743e-01,9.99999e-01,9.99999e-01,3.29743e-01,9.99999e-01
5.531641237e-01,3.37049e-01,9.99999e-01,9.99999e-01,3.37049e-01,9.99999e-01
5.559299443e-01,3.44368e-01,9.99999e-01,9.99999e-01,3.44368e-01,9.99999e-01
5.587095940e-01,3.51696e-01,9.99999e-01,9.99999e-01,3.51696e-01,9.99999e-01
5.615031420e-01,3.59031e-01,9.99999e-01,9.99999e-01,3.59031e-01,9.99999e-01
5.643106577e-01,3.66369e-01,9.99999e-01,9.99999e-01,3.66369e-01,9.99999e-01
5.671322110e-01,3.73708e-01,9.99999e-01,9.99999e-01,3.73708e-01,9.99999e-01
5.699678720e-01,3.81045e-01,9.99999e-01,9.99999e-01,3.81045e-01,9.99999e-01
5.728177114e-01,3.88376e-01,9.99999e-01,9.99999e-01,3.88376e-01,9.99999e-01
5.756818000e-01,3.95700e-01,9.99999e-01,9.99999e-01,3.95700e-01,9.99999e-01
5.785602090e-01,4.03013e-01,9.99999e-01,9.99999e-01,4.03013e-01,9.99999e-01
5.814530100e-01,4.10313e-01,9.99999e-01,9.99999e-01,4.10313e-01,9.99999e-01
5.843602750e-01,4.17597e-01,9.99999e-01,9.99999e-01,4.17597e-01,9.99999e-01
5.872820764e-01,4.24862e-01,9.99999e-01,9.99999e-01,4.24862e-01,9.99999e-01
5.902184868e-01,4.32107e-01,9.99999e-01,9.99999e-01,4.32107e-01,9.99999e-01
5.931695792e-01,4.39328e-01,9.99999e-01,9.99999e-01,4.39328e-01,9.99999e-01
5.961354271e-01,4.46524e-01,9.99999e-01,9.99999e-01,4.46524e-01,9.99999e-01
5.991161043e-01,4.53692e-01,9.99999e-01,9.99999e-01,4.53692e-01,9.99999e-01
6.021116848e-01,4.60830e-01,9.99999e-01,9.99999e-01,4.60830e-01,9.99999e-01
6.051222432e-01,4.67936e-01,9.99999e-01,9.99999e-01,4.67936e-01,9.99999e-01
6.081478544e-01,4.75009e-01,9.99999e-01,9.99999e-01,4.75009e-01,9.99999e-01
6.111885937e-01,4.82045e-01,9.99999e-01,9.99999e-01,4.82045e-01,9.99999e-01
6.142445367e-01,4.89043e-01,9.99999e-01,9.99999e-01,4.89043e-01,9.99999e-01
6.173157594e-01,4.96002e-01,9.99999e-01,9.99999e-01,4.96002e-01,9.99999e-01
6.204023382e-01,5.02919e-01,9.99999e-01,9.99999e-01,5.02919e-01,9.99999e-01
6.235043498e-01,5.09794e-01,9.99999e-01,9.99999e-01,5.09794e-01,9.99999e-01
6.266218716e-01,5.16624e-01,9.99999e-01,9.99999e-01,5.16624e-01,9.99999e-01
6.297549810e-01,5.23407e-01,9.99999e-01,9.99999e-01,5.23407e-01,9.99999e-01
6.329037559e-01,5.30143e-01,9.99999e-01,9.99999e-01,5.30143e-01,9.99999e-01
6.360682746e-01,5.36831e-01,9.99999e-01,9.99999e-01,5.36831e-01,9.99999e-01
6.392486160e-01,5.43467e-01,9.99999e-01,9.99999e-01,5.43467e-01,9.99999e-01
6.424448591e-01,5.50053e-01,9.99999e-01,9.99999e-01,5.50053e-01,9.99999e-01
6.456570834e-01,5.56586e-01,9.99999e-01,9.99999e-01,5.56586e-01,9.99999e-01
6.488853688e-01,5.63065e-01,9.99999e-01,9.99999e-01,5.63065e-01,9.99999e-01
6.521297956e-01,5.69489e-01,9.99999e-01,9.99999e-01,5.69489e-01,9.99999e-01
6.553904446e-01,5.75858e-01,9.99999e-01,9.99999e-01,5.75858e-01,9.99999e-01
6.586673968e-01,5.82170e-01,9.99999e-01,9.99999e-01,5.82170e-01,9.99999e-01
6.619607338e-01,5.88424e-01,9.99999e-01,9.99999e-01,5.88424e-01,9.99999e-01
6.652705375e-01,5.94620e-01,9.99999e-01,9.99999e-01,5.94620e-01,9.99999e-01
6.685968902e-01,6.00757e-01,9.99999e-01,9.99999e-01,6.00757e-01,9.99999e-01
6.719398746e-01,6.06835e-01,9.99999e-01,9.99999e-01,6.06835e-01,9.99999e-01
6.752995740e-01,6.12851e-01,9.99999e-01,9.99999e-01,6.12851e-01,9.99999e-01
6.786760719e-01,6.18807e-01,9.99999e-01,9.99999e-01,6.18807e-01,9.99999e-01
6.820694522e-01,6.24702e-01,9.99999e-01,9.99999e-01,6.24702e-01,9.99999e-01
6.854797995e-01,6.30534e-01,9.99999e-01,9.99999e-01,6.30534e-01,9.99999e-01
6.889071985e-01,6.36304e-01,9.99999e-01,9.99999e-01,6.36304e-01,9.99999e-01
6.923517345e-01,6.42012e-01,9.99999e-01,9.99999e-01,6.42012e-01,9.99999e-01
6.958134932e-01,6.47656e-01,9.99999e-01,9.99999e-01,6.47656e-01,9.99999e-01
6.992925606e-01,6.53237e-01,9.99999e-01,9.99999e-01,6.53237e-01,9.99999e-01
7.027890234e-01,6.58755e-01,9.99999e-01,9.99999e-01,6.58755e-01,9.99999e-01
7.063029686e-01,6.64208e-01,9.99999e-01,9.99999e-01,6.64208e-01,9.99999e-01
7.098344834e-01,6.69598e-01,9.99999e-01,9.99999e-01,6.69598e-01,9.99999e-01
7.133836558e-01,6.74924e-01,9.99999e-01,9.99999e-01,6.74924e-01,9.99999e-01
7.169505741e-01,6.80186e-01,9.99999e-01,9.99999e-01,6.80186e-01,9.99999e-01
7.205353270e-01,6.85383e-01,9.99999e-01,9.99999e-01,6.85383e-01,9.99999e-01
7.241380036e-01,6.90517e-01,9.99999e-01,9.99999e-01,6.90517e-01,9.99999e-01
7.277586936e-01,6.95586e-01,9.99999e-01,9.99999e-01,6.95586e-01,9.99999e-01
7.313974871e-01,7.00592e-01,9.99999e-01,9.99999e-01,7.00592e-01,9.99999e-01
7.350544745e-01,7.05533e-01,9.99999e-01,9.99999e-01,7.05533e-01,9.99999e-01
7.387297469e-01,7.10411e-01,9.99999e-01,9.99999e-01,7.10411e-01,9.99999e-01
7.424233956e-01,7.15225e-01,9.99999e-01,9.99999e-01,7.15225e-01,9.99999e-01
7.461355126e-01,7.19975e-01,9.99999e-01,9.99999e-01,7.19975e-01,9.99999e-01
7.498661902e-01,7.24663e-01,9.99999e-01,9.99999e-01,7.24663e-01,9.99999e-01
7.536155211e-01,7.29287e-01,9.99999e-01,9.99999e-01,7.29287e-01,9.99999e-01
7.573835987e-01,7.33849e-01,9.99999e-01,9.99999e-01,7.33849e-01,9.99999e-01
7.611705167e-01,7.38348e-01,9.99999e-01,9.99999e-01,7.38348e-01,9.99999e-01
7.649763693e-01,7.42786e-01,9.99999e-01,9.99999e-01,7.42786e-01,9.99999e-01
7.688012511e-01,7.47161e-01,9.99999e-01,9.99999e-01,7.47161e-01,9.99999e-01
7.726452574e-01,7.51475e-01,9.99999e-01,9.99999e-01,7.51475e-01,9.99999e-01
7.765084837e-01,7.55728e-01,9.99999e-01,9.99999e-01,7.55728e-01,9.99999e-01
7.803910261e-01,7.49735e-01,9.99999e-01,9.86596e-01,7.59920e-01,9.99999e-01
7.842929812e-01,7.19950e-01,9.99999e-01,9.42277e-01,7.64053e-01,9.99999e-01
7.882144461e-01,7.20794e-01,9.99999e-01,9.38380e-01,7.68125e-01,9.99999e-01
7.921555184e-01,7.44556e-01,9.99999e-01,9.64278e-01,7.72138e-01,9.99999e-01
7.961162960e-01,7.57376e-01,9.99999e-01,9.75883e-01,7.76092e-01,9.99999e-01
8.000968774e-01,7.69757e-01,9.99999e-01,9.86882e-01,7.79987e-01,9.99999e-01
8.040973618e-01,7.78469e-01,9.99999e-01,9.93166e-01,7.83825e-01,9.99999e-01
8.081178486e-01,7.85140e-01,9.99999e-01,9.96869e-01,7.87605e-01,9.99999e-01
8.121584379e-01,7.90558e-01,9.99999e-01,9.99025e-01,7.91328e-01,9.99999e-01
8.162192301e-01,7.94824e-01,9.99999e-01,9.99784e-01,7.94995e-01,9.99999e-01
8.203003262e-01,7.98603e-01,9.99999e-01,9.99996e-01,7.98606e-01,9.99999e-01
8.244018279e-01,8.02161e-01,9.99999e-01,9.99999e-01,8.02161e-01,9.99999e-01
8.285238370e-01,8.05662e-01,9.99999e-01,9.99999e-01,8.05662e-01,9.99999e-01
8.326664562e-01,8.09108e-01,9.99999e-01,9.99999e-01,8.09108e-01,9.99999e-01
8.368297885e-01,8.12500e-01,9.99999e-01,9.99999e-01,8.12500e-01,9.99999e-01
8.410139374e-01,8.15839e-01,9.99999e-01,9.99999e-01,8.15839e-01,9.99999e-01
8.452190071e-01,8.19126e-01,9.99999e-01,9.99999e-01,8.19126e-01,9.99999e-01
8.494451021e-01,8.22361e-01,9.99999e-01,9.99999e-01,8.22361e-01,9.99999e-01
8.536923276e-01,8.25544e-01,9.99999e-01,9.99999e-01,8.25544e-01,9.99999e-01
8.579607893e-01,8.28676e-01,9.99999e-01,9.99999e-01,8.28676e-01,9.99999e-01
8.622505932e-01,8.31757e-01,9.99999e-01,9.99999e-01,8.31757e-01,9.99999e-01
8.665618462e-01,8.03680e-01,9.99999e-01,9.62733e-01,8.34789e-01,9.99999e-01
8.708946554e-01,7.18650e-01,9.99999e-01,8.57810e-01,8.37772e-01,9.99999e-01
8.752491287e-01,7.44219e-01,9.99999e-01,8.85229e-01,8.40706e-01,9.99999e-01
8.796253743e-01,7.89602e-01,9.99999e-01,9.35998e-01,8.43593e-01,9.99999e-01
8.840235012e-01,8.18082e-01,9.99999e-01,9.66506e-01,8.46432e-01,9.99999e-01
8.884436187e-01,8.37888e-01,9.99999e-01,9.86651e-01,8.49224e-01,9.99999e-01
8.928858368e-01,8.47360e-01,9.99999e-01,9.94588e-01,8.51970e-01,9.99999e-01
8.973502660e-01,8.53539e-01,9.99999e-01,9.98676e-01,8.54670e-01,9.99999e-01
9.018370173e-01,8.57200e-01,9.99999e-01,9.99853e-01,8.57325e-01,9.99999e-01
9.063462024e-01,8.56782e-01,9.99999e-01,9.96331e-01,8.59936e-01,9.99999e-01
9.108779334e-01,8.55156e-01,9.99999e-01,9.91480e-01,8.62503e-01,9.99999e-01
9.154323231e-01,8.63279e-01,9.99999e-01,9.97979e-01,8.65026e-01,9.99999e-01
9.200094847e-01,8.41822e-01,9.99999e-01,9.70391e-01,8.67507e-01,9.99999e-01
9.246095321e-01,8.34224e-01,9.99999e-01,9.58936e-01,8.69946e-01,9.99999e-01
9.292325798e-01,8.44211e-01,9.99999e-01,9.67750e-01,8.72344e-01,9.99999e-01
9.338787427e-01,8.47306e-01,9.99999e-01,9.68680e-01,8.74700e-01,9.99999e-01
9.385481364e-01,8.56812e-01,9.99999e-01,9.76962e-01,8.77016e-01,9.99999e-01
9.432408771e-01,8.66827e-01,9.99999e-01,9.85822e-01,8.79292e-01,9.99999e-01
9.479570815e-01,8.75113e-01,9.99999e-01,9.92720e-01,8.81529e-01,9.99999e-01
9.526968669e-01,8.80616e-01,9.99999e-01,9.96477e-01,8.83728e-01,9.99999e-01
9.574603512e-01,8.84553e-01,9.99999e-01,9.98492e-01,8.85888e-01,9.99999e-01
9.622476530e-01,8.87593e-01,9.99999e-01,9.99529e-01,8.88011e-01,9.99999e-01
9.670588912e-01,8.89971e-01,9.99999e-01,9.99858e-01,8.90097e-01,9.99999e-01
9.718941857e-01,8.92137e-01,9.99999e-01,9.99989e-01,8.92146e-01,9.99999e-01
9.767536566e-01,8.94159e-01,9.99999e-01,9.99999e-01,8.94159e-01,9.99999e-01
9.816374249e-01,8.96137e-01,9.99999e-01,9.99999e-01,8.96137e-01,9.99999e-01
9.865456120e-01,8.98080e-01,9.99999e-01,9.99999e-01,8.98080e-01,9.99999e-01
9.914783401e-01,8.99989e-01,9.99999e-01,9.99999e-01,8.99989e-01,9.99999e-01
9.964357318e-01,9.01864e-01,9.99999e-01,9.99999e-01,9.01864e-01,9.99999e-01
1.001417910e+00,9.03706e-01,9.99999e-01,9.99999e-01,9.03706e-01,9.99999e-01
1.006425000e+00,9.05516e-01,9.99999e-01,9.99999e-01,9.05516e-01,9.99999e-01
1.011457125e+00,9.07292e-01,9.99999e-01,9.99999e-01,9.07292e-01,9.99999e-01
1.016514411e+00,9.09038e-01,9.99999e-01,9.99999e-01,9.09038e-01,9.99999e-01
1.021596983e+00,9.10735e-01,9.99999e-01,9.99981e-01,9.10752e-01,9.99999e-01
1.026704968e+00,9.11138e-01,9.99999e-01,9.98578e-01,9.12435e-01,9.99999e-01
1.031838492e+00,8.94844e-01,9.99999e-01,9.78946e-01,9.14088e-01,9.99999e-01
1.036997685e+00,3.14581e-01,9.99999e-01,3.43537e-01,9.15711e-01,9.99999e-01
1.042182673e+00,3.86570e-01,9.99999e-01,4.21419e-01,9.17305e-01,9.99999e-01
1.047393587e+00,3.49322e-01,9.99999e-01,3.80164e-01,9.18871e-01,9.99999e-01
1.052630555e+00,7.46805e-02,9.99999e-01,8.11384e-02,9.20408e-01,9.99999e-01
1.057893707e+00,1.29696e-01,9.99999e-01,1.40681e-01,9.21917e-01,9.99999e-01
1.063183176e+00,2.24797e-01,9.99999e-01,2.43445e-01,9.23398e-01,9.99999e-01
1.068499092e+00,3.64337e-01,9.99999e-01,3.93940e-01,9.24853e-01,9.99999e-01
1.073841587e+00,5.14005e-01,9.99999e-01,5.54912e-01,9.26281e-01,9.99999e-01
1.079210795e+00,6.40417e-01,9.99999e-01,6.90339e-01,9.27683e-01,9.99999e-01
1.084606849e+00,7.59026e-01,9.99999e-01,8.16982e-01,9.29060e-01,9.99999e-01
1.090029883e+00,8.38117e-01,9.99999e-01,9.00802e-01,9.30411e-01,9.99999e-01
1.095480033e+00,8.84994e-01,9.99999e-01,9.49831e-01,9.31738e-01,9.99999e-01
1.100957433e+00,9.10233e-01,9.99999e-01,9.75556e-01,9.33040e-01,9.99999e-01
1.106462220e+00,9.24802e-01,9.99999e-01,9.89814e-01,9.34318e-01,9.99999e-01
1.111994531e+00,9.32032e-01,9.99999e-01,9.96214e-01,9.35573e-01,9.99999e-01
1.117554504e+00,9.35934e-01,9.99999e-01,9.99071e-01,9.36804e-01,9.99999e-01
1.123142276e+00,9.37955e-01,9.99999e-01,9.99938e-01,9.38013e-01,9.99999e-01
1.128757988e+00,9.39199e-01,9.99999e-01,9.99999e-01,9.39199e-01,9.99999e-01
1.134401778e+00,9.40364e-01,9.99999e-01,9.99999e-01,9.40364e-01,9.99999e-01
1.140073787e+00,9.41506e-01,9.99999e-01,9.99999e-01,9.41506e-01,9.99999e-01
1.145774156e+00,9.42628e-01,9.99999e-01,9.99999e-01,9.42628e-01,9.99999e-01
1.151503026e+00,9.43729e-01,9.99999e-01,9.99999e-01,9.43729e-01,9.99999e-01
1.157260541e+00,9.44809e-01,9.99999e-01,9.99999e-01,9.44809e-01,9.99999e-01
1.163046844e+00,9.45869e-01,9.99999e-01,9.99999e-01,9.45869e-01,9.99999e-01
1.168862078e+00,9.46909e-01,9.99999e-01,9.99999e-01,9.46909e-01,9.99999e-01
1.174706389e+00,9.47930e-01,9.99999e-01,9.99999e-01,9.47930e-01,9.99999e-01
1.180579921e+00,9.48932e-01,9.99999e-01,9.99999e-01,9.48932e-01,9.99999e-01
1.186482820e+00,9.49913e-01,9.99999e-01,9.99997e-01,9.49915e-01,9.99999e-01
1.192415234e+00,9.46036e-01,9.99999e-01,9.94906e-01,9.50880e-01,9.99999e-01
1.198377311e+00,5.71146e-01,9.99999e-01,6.00053e-01,9.51826e-01,9.99999e-01
1.204369197e+00,1.08424e-05,9.99999e-01,1.13801e-05,9.52755e-01,9.99999e-01
1.210391043e+00,4.57598e-17,9.99999e-01,4.79830e-17,9.53666e-01,9.99999e-01
1.216442998e+00,5.13463e-15,9.99999e-01,5.37905e-15,9.54560e-01,9.99999e-01
1.222525213e+00,8.86811e-15,9.99999e-01,9.28172e-15,9.55437e-01,9.99999e-01
1.228637839e+00,2.53458e-11,9.99999e-01,2.65040e-11,9.56298e-01,9.99999e-01
1.234781029e+00,4.37500e-08,9.99999e-01,4.57089e-08,9.57142e-01,9.99999e-01
1.240954934e+00,1.61738e-05,9.99999e-01,1.68834e-05,9.57971e-01,9.99999e-01
1.247159708e+00,2.08386e-03,9.99999e-01,2.17344e-03,9.58784e-01,9.99999e-01
1.253395507e+00,3.40761e-02,9.99999e-01,3.55114e-02,9.59581e-01,9.99999e-01
1.259662485e+00,1.24418e-01,9.99999e-01,1.29553e-01,9.60363e-01,9.99999e-01
1.265960797e+00,3.21829e-01,9.99999e-01,3.34843e-01,9.61131e-01,9.99999e-01
1.272290601e+00,5.94293e-01,9.99999e-01,6.17843e-01,9.61884e-01,9.99999e-01
1.278652054e+00,5.57241e-01,9.99999e-01,5.78878e-01,9.62622e-01,9.99999e-01
1.285045314e+00,6.52420e-02,9.99999e-01,6.77242e-02,9.63347e-01,9.99999e-01
1.291470541e+00,1.13464e-02,9.99999e-01,1.17694e-02,9.64058e-01,9.99999e-01
1.297927893e+00,7.34560e-02,9.99999e-01,7.61394e-02,9.64755e-01,9.99999e-01
1.304417533e+00,4.30669e-01,9.99999e-01,4.46086e-01,9.65439e-01,9.99999e-01
1.310939621e+00,1.33262e-01,9.99999e-01,1.37937e-01,9.66110e-01,9.99999e-01
1.317494319e+00,2.88209e-06,9.99999e-01,2.98116e-06,9.66768e-01,9.99999e-01
1.324081790e+00,9.10978e-05,9.99999e-01,9.41662e-05,9.67414e-01,9.99999e-01
1.330702199e+00,7.96078e-03,9.99999e-01,8.22354e-03,9.68047e-01,9.99999e-01
1.337355710e+00,5.24461e-03,9.99999e-01,5.41425e-03,9.68668e-01,9.99999e-01
1.344042489e+00,2.16500e-03,9.99999e-01,2.23362e-03,9.69277e-01,9.99999e-01
1.350762701e+00,6.47436e-03,9.99999e-01,6.67546e-03,9.69875e-01,9.99999e-01
1.357516515e+00,3.49568e-02,9.99999e-01,3.60208e-02,9.70461e-01,9.99999e-01
1.364304097e+00,1.25927e-01,9.99999e-01,1.29683e-01,9.71036e-01,9.99999e-01
1.371125618e+00,3.27840e-01,9.99999e-01,3.37423e-01,9.71600e-01,9.99999e-01
1.377981246e+00,4.11875e-01,9.99999e-01,4.23672e-01,9.72153e-01,9.99999e-01
1.384871152e+00,5.89637e-01,9.99999e-01,6.06188e-01,9.72695e-01,9.99999e-01
1.391795508e+00,6.13133e-01,9.99999e-01,6.29999e-01,9.73227e-01,9.99999e-01
1.398754485e+00,7.33259e-01,9.99999e-01,7.53026e-01,9.73749e-01,9.99999e-01
1.405748258e+00,7.89954e-01,9.99999e-01,8.10823e-01,9.74261e-01,9.99999e-01
1.412776999e+00,8.54081e-01,9.99999e-01,8.76193e-01,9.74763e-01,9.99999e-01
1.419840884e+00,8.03046e-01,9.99999e-01,8.23421e-01,9.75255e-01,9.99999e-01
1.426940089e+00,1.17036e-01,9.99999e-01,1.19946e-01,9.75738e-01,9.99999e-01
1.434074789e+00,4.34484e-234,9.99999e-01,4.45072e-234,9.76211e-01,9.99999e-01
1.441245163e+00,0.00000e+00,9.99999e-01,0.00000e+00,9.76676e-01,9.99999e-01
1.448451389e+00,9.84709e-284,9.99999e-01,1.00775e-283,9.77131e-01,9.99999e-01
1.455693646e+00,2.71813e-127,9.99999e-01,2.78047e-127,9.77578e-01,9.99999e-01
1.462972114e+00,2.16859e-62,9.99999e-01,2.21733e-62,9.78016e-01,9.99999e-01
1.470286975e+00,5.43008e-27,9.99999e-01,5.54970e-27,9.78445e-01,9.99999e-01
