#,Wave/freq,Total,O2,CO2,Rayleigh,CIA
4.000000000e-01,6.33280e-03,9.99999e-01,9.99999e-01,6.33280e-03,9.99999e-01
4.020000000e-01,6.99944e-03,9.99999e-01,9.99999e-01,6.99944e-03,9.99999e-01
4.040100000e-01,7.72021e-03,9.99999e-01,9.99999e-01,7.72021e-03,9.99999e-01
4.060300500e-01,8.49872e-03,9.99999e-01,9.99999e-01,8.49872e-03,9.99999e-01
4.080602003e-01,9.33800e-03,9.99999e-01,9.99999e-01,9.33800e-03,9.99999e-01
4.101005013e-01,1.02411e-02,9.99999e-01,9.99999e-01,1.02411e-02,9.99999e-01
4.121510038e-01,1.12111e-02,9.99999e-01,9.99999e-01,1.12111e-02,9.99999e-01
4.142117588e-01,1.22510e-02,9.99999e-01,9.99999e-01,1.22510e-02,9.99999e-01
4.162828176e-01,1.33639e-02,9.99999e-01,9.99999e-01,1.33639e-02,9.99999e-01
4.183642317e-01,1.45530e-02,9.99999e-01,9.99999e-01,1.45530e-02,9.99999e-01
4.204560528e-01,1.58212e-02,9.99999e-01,9.99999e-01,1.58212e-02,9.99999e-01
4.225583331e-01,1.71715e-02,9.99999e-01,9.99999e-01,1.71715e-02,9.99999e-01
4.246711247e-01,1.86069e-02,9.99999e-01,9.99999e-01,1.86069e-02,9.99999e-01
4.267944804e-01,2.01304e-02,9.99999e-01,9.99999e-01,2.01304e-02,9.99999e-01
4.289284528e-01,2.17448e-02,9.99999e-01,9.99999e-01,2.17448e-02,9.99999e-01
4.310730950e-01,2.34529e-02,9.99999e-01,9.99999e-01,2.34529e-02,9.99999e-01
4.332284605e-01,2.52575e-02,9.99999e-01,9.99999e-01,2.52575e-02,9.99999e-01
4.353946028e-01,2.71611e-02,9.99999e-01,9.99999e-01,2.71611e-02,9.99999e-01
4.375715758e-01,2.91662e-02,9.99999e-01,9.99999e-01,2.91662e-02,9.99999e-01
4.397594337e-01,3.12754e-02,9.99999e-01,9.99999e-01,3.12754e-02,9.99999e-01
4.419582309e-01,3.34908e-02,9.99999e-01,9.99999e-01,3.34908e-02,9.99999e-01
4.441680220e-01,3.58148e-02,9.99999e-01,9.99999e-01,3.58148e-02,9.99999e-01
4.463888621e-01,3.82493e-02,9.99999e-01,9.99999e-01,3.82493e-02,9.99999e-01
4.486208064e-01,4.07962e-02,9.99999e-01,9.99999e-01,4.07962e-02,9.99999e-01
4.508639105e-01,4.34574e-02,9.99999e-01,9.99999e-01,4.34574e-02,9.99999e-01
4.531182300e-01,4.62344e-02,9.99999e-01,9.99999e-01,4.62344e-02,9.99999e-01
4.553838212e-01,4.91287e-02,9.99999e-01,9.99999e-01,4.91287e-02,9.99999e-01
4.576607403e-01,5.21417e-02,9.99999e-01,9.99999e-01,5.21417e-02,9.99999e-01
4.599490440e-01,5.52743e-02,9.99999e-01,9.99999e-01,5.52743e-02,9.99999e-01
4.622487892e-01,5.85277e-02,9.99999e-01,9.99999e-01,5.85277e-02,9.99999e-01
4.645600332e-01,6.19027e-02,9.99999e-01,9.99999e-01,6.19027e-02,9.99999e-01
4.668828333e-01,6.53998e-02,9.99999e-01,9.99999e-01,6.53998e-02,9.99999e-01
4.692172475e-01,6.90195e-02,9.99999e-01,9.99999e-01,6.90195e-02,9.99999e-01
4.715633337e-01,7.27620e-02,9.99999e-01,9.99999e-01,7.27620e-02,9.99999e-01
4.739211504e-01,7.66275e-02,9.99999e-01,9.99999e-01,7.66275e-02,9.99999e-01
4.762907561e-01,8.06160e-02,9.99999e-01,9.99999e-01,8.06160e-02,9.99999e-01
4.786722099e-01,8.47270e-02,9.99999e-01,9.99999e-01,8.47270e-02,9.99999e-01
4.810655710e-01,8.89603e-02,9.99999e-01,9.99999e-01,8.89603e-02,9.99999e-01
4.834708988e-01,9.33151e-02,9.99999e-01,9.99999e-01,9.33151e-02,9.99999e-01
4.858882533e-01,9.77908e-02,9.99999e-01,9.99999e-01,9.77908e-02,9.99999e-01
4.883176946e-01,1.02386e-01,9.99999e-01,9.99999e-01,1.02386e-01,9.99999e-01
4.907592831e-01,1.07101e-01,9.99999e-01,9.99999e-01,1.07101e-01,9.99999e-01
4.932130795e-01,1.11933e-01,9.99999e-01,9.99999e-01,1.11933e-01,9.99999e-01
4.956791449e-01,1.16880e-01,9.99999e-01,9.99999e-01,1.16880e-01,9.99999e-01
4.981575406e-01,1.21943e-01,9.99999e-01,9.99999e-01,1.21943e-01,9.99999e-01
5.006483283e-01,1.27118e-01,9.99999e-01,9.99999e-01,1.27118e-01,9.99999e-01
5.031515699e-01,1.32404e-01,9.99999e-01,9.99999e-01,1.32404e-01,9.99999e-01
5.056673278e-01,1.37799e-01,9.99999e-01,9.99999e-01,1.37799e-01,9.99999e-01
5.081956644e-01,1.43300e-01,9.99999e-01,9.99999e-01,1.43300e-01,9.99999e-01
5.107366428e-01,1.48907e-01,9.99999e-01,9.99999e-01,1.48907e-01,9.99999e-01
5.132903260e-01,1.54615e-01,9.99999e-01,9.99999e-01,1.54615e-01,9.99999e-01
5.158567776e-01,1.60422e-01,9.99999e-01,9.99999e-01,1.60422e-01,9.99999e-01
5.184360615e-01,1.66327e-01,9.99999e-01,9.99999e-01,1.66327e-01,9.99999e-01
5.210282418e-01,1.72326e-01,9.99999e-01,9.99999e-01,1.72326e-01,9.99999e-01
5.236333830e-01,1.78416e-01,9.99999e-01,9.99999e-01,1.78416e-01,9.99999e-01
5.262515499e-01,1.84595e-01,9.99999e-01,9.99999e-01,1.84595e-01,9.99999e-01
5.288828077e-01,1.90860e-01,9.99999e-01,9.99999e-01,1.90860e-01,9.99999e-01
5.315272217e-01,1.97207e-01,9.99999e-01,9.99999e-01,1.97207e-01,9.99999e-01
5.341848578e-01,2.03634e-01,9.99999e-01,9.99999e-01,2.03634e-01,9.99999e-01
5.368557821e-01,2.10137e-01,9.99999e-01,9.99999e-01,2.10137e-01,9.99999e-01
5.395400610e-01,2.16712e-01,9.99999e-01,9.99999e-01,2.16712e-01,9.99999e-01
5.422377613e-01,2.23358e-01,9.99999e-01,9.99999e-01,2.23358e-01,9.99999e-01
5.449489501e-01,2.30070e-01,9.99999e-01,9.99999e-01,2.30070e-01,9.99999e-01
5.476736949e-01,2.36846e-01,9.99999e-01,9.99999e-01,2.36846e-01,9.99999e-01
5.504120634e-01,2.43681e-01,9.99999e-01,9.99999e-01,2.43681e-01,9.99999e-01
5.531641237e-01,2.50572e-01,9.99999e-01,9.99999e-01,2.50572e-01,9.99999e-01
5.559299443e-01,2.57517e-01,9.99999e-01,9.99999e-01,2.57517e-01,9.99999e-01
5.587095940e-01,2.64511e-01,9.99999e-01,9.99999e-01,2.64511e-01,9.99999e-01
5.615031420e-01,2.71551e-01,9.99999e-01,9.99999e-01,2.71551e-01,9.99999e-01
5.643106577e-01,2.78634e-01,9.99999e-01,9.99999e-01,2.78634e-01,9.99999e-01
5.671322110e-01,2.85757e-01,9.99999e-01,9.99999e-01,2.85757e-01,9.99999e-01
5.699678720e-01,2.92915e-01,9.99999e-01,9.99999e-01,2.92915e-01,9.99999e-01
5.728177114e-01,3.00106e-01,9.99999e-01,9.99999e-01,3.00106e-01,9.99999e-01
5.756818000e-01,3.07327e-01,9.99999e-01,9.99999e-01,3.07327e-01,9.99999e-01
5.785602090e-01,3.14573e-01,9.99999e-01,9.99999e-01,3.14573e-01,9.99999e-01
5.814530100e-01,3.21842e-01,9.99999e-01,9.99999e-01,3.21842e-01,9.99999e-01
5.843602750e-01,3.29130e-01,9.99999e-01,9.99999e-01,3.29130e-01,9.99999e-01
5.872820764e-01,3.36435e-01,9.99999e-01,9.99999e-01,3.36435e-01,9.99999e-01
5.902184868e-01,3.43753e-01,9.99999e-01,9.99999e-01,3.43753e-01,9.99999e-01
5.931695792e-01,3.51080e-01,9.99999e-01,9.99999e-01,3.51080e-01,9.99999e-01
5.961354271e-01,3.58414e-01,9.99999e-01,9.99999e-01,3.58414e-01,9.99999e-01
5.991161043e-01,3.65753e-01,9.99999e-01,9.99999e-01,3.65753e-01,9.99999e-01
6.021116848e-01,3.73092e-01,9.99999e-01,9.99999e-01,3.73092e-01,9.99999e-01
6.051222432e-01,3.80429e-01,9.99999e-01,9.99999e-01,3.80429e-01,9.99999e-01
6.081478544e-01,3.87761e-01,9.99999e-01,9.99999e-01,3.87761e-01,9.99999e-01
6.111885937e-01,3.95085e-01,9.99999e-01,9.99999e-01,3.95085e-01,9.99999e-01
6.142445367e-01,4.02399e-01,9.99999e-01,9.99999e-01,4.02399e-01,9.99999e-01
6.173157594e-01,4.09700e-01,9.99999e-01,9.99999e-01,4.09700e-01,9.99999e-01
6.204023382e-01,4.16985e-01,9.99999e-01,9.99999e-01,4.16985e-01,9.99999e-01
6.235043498e-01,4.24253e-01,9.99999e-01,9.99999e-01,4.24253e-01,9.99999e-01
6.266218716e-01,4.31499e-01,9.99999e-01,9.99999e-01,4.31499e-01,9.99999e-01
6.297549810e-01,4.38722e-01,9.99999e-01,9.99999e-01,4.38722e-01,9.99999e-01
6.329037559e-01,4.45921e-01,9.99999e-01,9.99999e-01,4.45921e-01,9.99999e-01
6.360682746e-01,4.53091e-01,9.99999e-01,9.99999e-01,4.53091e-01,9.99999e-01
6.392486160e-01,4.60232e-01,9.99999e-01,9.99999e-01,4.60232e-01,9.99999e-01
6.424448591e-01,4.67341e-01,9.99999e-01,9.99999e-01,4.67341e-01,9.99999e-01
6.456570834e-01,4.74416e-01,9.99999e-01,9.99999e-01,4.74416e-01,9.99999e-01
6.488853688e-01,4.81455e-01,9.99999e-01,9.99999e-01,4.81455e-01,9.99999e-01
6.521297956e-01,4.88457e-01,9.99999e-01,9.99999e-01,4.88457e-01,9.99999e-01
6.553904446e-01,4.95419e-01,9.99999e-01,9.99999e-01,4.95419e-01,9.99999e-01
6.586673968e-01,5.02340e-01,9.99999e-01,9.99999e-01,5.02340e-01,9.99999e-01
6.619607338e-01,5.09218e-01,9.99999e-01,9.99999e-01,5.09218e-01,9.99999e-01
6.652705375e-01,5.16052e-01,9.99999e-01,9.99999e-01,5.16052e-01,9.99999e-01
6.685968902e-01,5.22839e-01,9.99999e-01,9.99999e-01,5.22839e-01,9.99999e-01
6.719398746e-01,5.29579e-01,9.99999e-01,9.99999e-01,5.29579e-01,9.99999e-01
6.752995740e-01,5.36271e-01,9.99999e-01,9.99999e-01,5.36271e-01,9.99999e-01
6.786760719e-01,5.42912e-01,9.99999e-01,9.99999e-01,5.42912e-01,9.99999e-01
6.820694522e-01,5.49502e-01,9.99999e-01,9.99999e-01,5.49502e-01,9.99999e-01
6.854797995e-01,5.56039e-01,9.99999e-01,9.99999e-01,5.56039e-01,9.99999e-01
6.889071985e-01,5.62523e-01,9.99999e-01,9.99999e-01,5.62523e-01,9.99999e-01
6.923517345e-01,5.68952e-01,9.99999e-01,9.99999e-01,5.68952e-01,9.99999e-01
6.958134932e-01,5.75325e-01,9.99999e-01,9.99999e-01,5.75325e-01,9.99999e-01
6.992925606e-01,5.81642e-01,9.99999e-01,9.99999e-01,5.81642e-01,9.99999e-01
7.027890234e-01,5.87901e-01,9.99999e-01,9.99999e-01,5.87901e-01,9.99999e-01
7.063029686e-01,5.94102e-01,9.99999e-01,9.99999e-01,5.94102e-01,9.99999e-01
7.098344834e-01,6.00244e-01,9.99999e-01,9.99999e-01,6.00244e-01,9.99999e-01
7.133836558e-01,6.06326e-01,9.99999e-01,9.99999e-01,6.06326e-01,9.99999e-01
7.169505741e-01,6.12348e-01,9.99999e-01,9.99999e-01,6.12348e-01,9.99999e-01
7.205353270e-01,6.18309e-01,9.99999e-01,9.99999e-01,6.18309e-01,9.99999e-01
7.241380036e-01,6.24209e-01,9.99999e-01,9.99999e-01,6.24209e-01,9.99999e-01
7.277586936e-01,6.30047e-01,9.99999e-01,9.99999e-01,6.30047e-01,9.99999e-01
7.313974871e-01,6.35822e-01,9.99999e-01,9.99999e-01,6.35822e-01,9.99999e-01
7.350544745e-01,6.41535e-01,9.99999e-01,9.99999e-01,6.41535e-01,9.99999e-01
7.387297469e-01,6.47184e-01,9.99999e-01,9.99999e-01,6.47184e-01,9.99999e-01
7.424233956e-01,6.52771e-01,9.99999e-01,9.99999e-01,6.52771e-01,9.99999e-01
7.461355126e-01,6.58294e-01,9.99999e-01,9.99999e-01,6.58294e-01,9.99999e-01
7.498661902e-01,6.63753e-01,9.99999e-01,9.99999e-01,6.63753e-01,9.99999e-01
7.536155211e-01,6.69148e-01,9.99999e-01,9.99999e-01,6.69148e-01,9.99999e-01
7.573835987e-01,6.74479e-01,9.99999e-01,9.99999e-01,6.74479e-01,9.99999e-01
7.611705167e-01,6.79746e-01,9.99999e-01,9.99999e-01,6.79746e-01,9.99999e-01
7.649763693e-01,6.84949e-01,9.99999e-01,9.99999e-01,6.84949e-01,9.99999e-01
7.688012511e-01,6.90088e-01,9.99999e-01,9.99999e-01,6.90088e-01,9.99999e-01
7.726452574e-01,6.95163e-01,9.99999e-01,9.99999e-01,6.95163e-01,9.99999e-01
7.765084837e-01,7.00174e-01,9.99999e-01,9.99999e-01,7.00174e-01,9.99999e-01
7.803910261e-01,6.92546e-01,9.99999e-01,9.82166e-01,7.05120e-01,9.99999e-01
7.842929812e-01,6.58813e-01,9.99999e-01,9.27900e-01,7.10003e-01,9.99999e-01
7.882144461e-01,6.59378e-01,9.99999e-01,9.22435e-01,7.14823e-01,9.99999e-01
7.921555184e-01,6.86973e-01,9.99999e-01,9.54686e-01,7.19579e-01,9.99999e-01
7.961162960e-01,7.02298e-01,9.99999e-01,9.69660e-01,7.24271e-01,9.99999e-01
8.000968774e-01,7.16822e-01,9.99999e-01,9.83427e-01,7.28901e-01,9.99999e-01
8.040973618e-01,7.27166e-01,9.99999e-01,9.91407e-01,7.33468e-01,9.99999e-01
8.081178486e-01,7.35050e-01,9.99999e-01,9.96038e-01,7.37973e-01,9.99999e-01
8.121584379e-01,7.41511e-01,9.99999e-01,9.98781e-01,7.42415e-01,9.99999e-01
8.162192301e-01,7.46595e-01,9.99999e-01,9.99730e-01,7.46796e-01,9.99999e-01
8.203003262e-01,7.51112e-01,9.99999e-01,9.99995e-01,7.51115e-01,9.99999e-01
8.244018279e-01,7.55373e-01,9.99999e-01,9.99999e-01,7.55373e-01,9.99999e-01
8.285238370e-01,7.59571e-01,9.99999e-01,9.99999e-01,7.59571e-01,9.99999e-01
8.326664562e-01,7.63708e-01,9.99999e-01,9.99999e-01,7.63708e-01,9.99999e-01
8.368297885e-01,7.67785e-01,9.99999e-01,9.99999e-01,7.67785e-01,9.99999e-01
8.410139374e-01,7.71803e-01,9.99999e-01,9.99999e-01,7.71803e-01,9.99999e-01
8.452190071e-01,7.75762e-01,9.99999e-01,9.99999e-01,7.75762e-01,9.99999e-01
8.494451021e-01,7.79662e-01,9.99999e-01,9.99999e-01,7.79662e-01,9.99999e-01
8.536923276e-01,7.83505e-01,9.99999e-01,9.99999e-01,7.83505e-01,9.99999e-01
8.579607893e-01,7.87290e-01,9.99999e-01,9.99999e-01,7.87290e-01,9.99999e-01
8.622505932e-01,7.91018e-01,9.99999e-01,9.99999e-01,7.91018e-01,9.99999e-01
8.665618462e-01,7.57361e-01,9.99999e-01,9.53027e-01,7.94689e-01,9.99999e-01
8.708946554e-01,6.57841e-01,9.99999e-01,8.24046e-01,7.98305e-01,9.99999e-01
8.752491287e-01,6.87702e-01,9.99999e-01,8.57627e-01,8.01865e-01,9.99999e-01
8.796253743e-01,7.40910e-01,9.99999e-01,9.19962e-01,8.05370e-01,9.99999e-01
8.840235012e-01,7.74748e-01,9.99999e-01,9.57872e-01,8.08820e-01,9.99999e-01
8.884436187e-01,7.98612e-01,9.99999e-01,9.83248e-01,8.12217e-01,9.99999e-01
8.928858368e-01,8.10000e-01,9.99999e-01,9.93180e-01,8.15561e-01,9.99999e-01
8.973502660e-01,8.17498e-01,9.99999e-01,9.98345e-01,8.18852e-01,9.99999e-01
9.018370173e-01,8.21941e-01,9.99999e-01,9.99817e-01,8.22091e-01,9.99999e-01
9.063462024e-01,8.21332e-01,9.99999e-01,9.95217e-01,8.25278e-01,9.99999e-01
9.108779334e-01,8.19501e-01,9.99999e-01,9.89240e-01,8.28414e-01,9.99999e-01
9.154323231e-01,8.29406e-01,9.99999e-01,9.97480e-01,8.31500e-01,9.99999e-01
9.200094847e-01,8.02948e-01,9.99999e-01,9.62147e-01,8.34537e-01,9.99999e-01
9.246095321e-01,7.94231e-01,9.99999e-01,9.48308e-01,8.37524e-01,9.99999e-01
9.292325798e-01,8.05847e-01,9.99999e-01,9.58813e-01,8.40462e-01,9.99999e-01
9.338787427e-01,8.10058e-01,9.99999e-01,9.60520e-01,8.43352e-01,9.99999e-01
9.385481364e-01,8.21564e-01,9.99999e-01,9.70891e-01,8.46195e-01,9.99999e-01
9.432408771e-01,8.33822e-01,9.99999e-01,9.82132e-01,8.48991e-01,9.99999e-01
9.479570815e-01,8.43893e-01,9.99999e-01,9.90785e-01,8.51741e-01,9.99999e-01
9.526968669e-01,8.50644e-01,9.99999e-01,9.95551e-01,8.54445e-01,9.99999e-01
9.574603512e-01,8.55473e-01,9.99999e-01,9.98097e-01,8.57104e-01,9.99999e-01
9.622476530e-01,8.59208e-01,9.99999e-01,9.99406e-01,8.59718e-01,9.99999e-01
9.670588912e-01,8.62136e-01,9.99999e-01,9.99822e-01,8.62289e-01,9.99999e-01
9.718941857e-01,8.64805e-01,9.99999e-01,9.99987e-01,8.64816e-01,9.99999e-01
9.767536566e-01,8.67301e-01,9.99999e-01,9.99999e-01,8.67301e-01,9.99999e-01
9.816374249e-01,8.69743e-01,9.99999e-01,9.99999e-01,8.69743e-01,9.99999e-01
9.865456120e-01,8.72144e-01,9.99999e-01,9.99999e-01,8.72144e-01,9.99999e-01
9.914783401e-01,8.74504e-01,9.99999e-01,9.99999e-01,8.74504e-01,9.99999e-01
9.964357318e-01,8.76823e-01,9.99999e-01,9.99999e-01,8.76823e-01,9.99999e-01
1.001417910e+00,8.79103e-01,9.99999e-01,9.99999e-01,8.79103e-01,9.99999e-01
1.006425000e+00,8.81343e-01,9.99999e-01,9.99999e-01,8.81343e-01,9.99999e-01
1.011457125e+00,8.83545e-01,9.99999e-01,9.99999e-01,8.83545e-01,9.99999e-01
1.016514411e+00,8.85708e-01,9.99999e-01,9.99999e-01,8.85708e-01,9.99999e-01
1.021596983e+00,8.87810e-01,9.99999e-01,9.99972e-01,8.87834e-01,9.99999e-01
1.026704968e+00,8.88264e-01,9.99999e-01,9.98135e-01,8.89923e-01,9.99999e-01
1.031838492e+00,8.66716e-01,9.99999e-01,9.71680e-01,8.91975e-01,9.99999e-01
1.036997685e+00,2.53856e-01,9.99999e-01,2.83958e-01,8.93991e-01,9.99999e-01
1.042182673e+00,3.03257e-01,9.99999e-01,3.38466e-01,8.95972e-01,9.99999e-01
1.047393587e+00,2.80703e-01,9.99999e-01,3.12615e-01,8.97919e-01,9.99999e-01
1.052630555e+00,4.16012e-02,9.99999e-01,4.62322e-02,8.99830e-01,9.99999e-01
1.057893707e+00,7.90957e-02,9.99999e-01,8.77175e-02,9.01708e-01,9.99999e-01
1.063183176e+00,1.54735e-01,9.99999e-01,1.71252e-01,9.03553e-01,9.99999e-01
1.068499092e+00,2.78050e-01,9.99999e-01,3.07114e-01,9.05365e-01,9.99999e-01
1.073841587e+00,4.31629e-01,9.99999e-01,4.75810e-01,9.07144e-01,9.99999e-01
1.079210795e+00,5.68842e-01,9.99999e-01,6.25862e-01,9.08892e-01,9.99999e-01
1.084606849e+00,7.05275e-01,9.99999e-01,7.74509e-01,9.10609e-01,9.99999e-01
1.090029883e+00,7.99192e-01,9.99999e-01,8.76022e-01,9.12295e-01,9.99999e-01
1.095480033e+00,8.56353e-01,9.99999e-01,9.36978e-01,9.13950e-01,9.99999e-01
1.100957433e+00,8.87342e-01,9.99999e-01,9.69161e-01,9.15576e-01,9.99999e-01
1.106462220e+00,9.05386e-01,9.99999e-01,9.87148e-01,9.17173e-01,9.99999e-01
1.111994531e+00,9.14348e-01,9.99999e-01,9.95218e-01,9.18740e-01,9.99999e-01
1.117554504e+00,9.19207e-01,9.99999e-01,9.98834e-01,9.20280e-01,9.99999e-01
1.123142276e+00,9.21721e-01,9.99999e-01,9.99923e-01,9.21791e-01,9.99999e-01
1.128757988e+00,9.23275e-01,9.99999e-01,9.99999e-01,9.23275e-01,9.99999e-01
1.134401778e+00,9.24732e-01,9.99999e-01,9.99999e-01,9.24732e-01,9.99999e-01
1.140073787e+00,9.26162e-01,9.99999e-01,9.99999e-01,9.26162e-01,9.99999e-01
1.145774156e+00,9.27567e-01,9.99999e-01,9.99999e-01,9.27567e-01,9.99999e-01
1.151503026e+00,9.28945e-01,9.99999e-01,9.99999e-01,9.28945e-01,9.99999e-01
1.157260541e+00,9.30299e-01,9.99999e-01,9.99999e-01,9.30299e-01,9.99999e-01
1.163046844e+00,9.31627e-01,9.99999e-01,9.99999e-01,9.31627e-01,9.99999e-01
1.168862078e+00,9.32931e-01,9.99999e-01,9.99999e-01,9.32931e-01,9.99999e-01
1.174706389e+00,9.34212e-01,9.99999e-01,9.99999e-01,9.34212e-01,9.99999e-01
1.180579921e+00,9.35468e-01,9.99999e-01,9.99999e-01,9.35468e-01,9.99999e-01
1.186482820e+00,9.36698e-01,9.99999e-01,9.99995e-01,9.36702e-01,9.99999e-01
1.192415234e+00,9.31617e-01,9.99999e-01,9.93287e-01,9.37912e-01,9.99999e-01
1.198377311e+00,5.48662e-01,9.99999e-01,5.84241e-01,9.39100e-01,9.99999e-01
1.204369197e+00,1.22556e-06,9.99999e-01,1.30342e-06,9.40267e-01,9.99999e-01
1.210391043e+00,4.13500e-21,9.99999e-01,4.39234e-21,9.41411e-01,9.99999e-01
1.216442998e+00,1.61640e-18,9.99999e-01,1.71495e-18,9.42535e-01,9.99999e-01
1.222525213e+00,2.98811e-18,9.99999e-01,3.16659e-18,9.43637e-01,9.99999e-01
1.228637839e+00,4.83056e-14,9.99999e-01,5.11322e-14,9.44719e-01,9.99999e-01
1.234781029e+00,9.84557e-10,9.99999e-01,1.04100e-09,9.45781e-01,9.99999e-01
1.240954934e+00,1.33679e-06,9.99999e-01,1.41187e-06,9.46823e-01,9.99999e-01
1.247159708e+00,4.94674e-04,9.99999e-01,5.21893e-04,9.47845e-01,9.99999e-01
1.253395507e+00,1.47172e-02,9.99999e-01,1.55106e-02,9.48849e-01,9.99999e-01
1.259662485e+00,8.92620e-02,9.99999e-01,9.39764e-02,9.49833e-01,9.99999e-01
1.265960797e+00,2.41746e-01,9.99999e-01,2.54255e-01,9.50799e-01,9.99999e-01
1.272290601e+00,5.42569e-01,9.99999e-01,5.70076e-01,9.51747e-01,9.99999e-01
1.278652054e+00,4.78269e-01,9.99999e-01,5.02026e-01,9.52677e-01,9.99999e-01
1.285045314e+00,2.82049e-02,9.99999e-01,2.95776e-02,9.53590e-01,9.99999e-01
1.291470541e+00,3.65698e-03,9.99999e-01,3.83136e-03,9.54486e-01,9.99999e-01
1.297927893e+00,6.47747e-02,9.99999e-01,6.78010e-02,9.55364e-01,9.99999e-01
1.304417533e+00,3.45245e-01,9.99999e-01,3.61049e-01,9.56226e-01,9.99999e-01
1.310939621e+00,6.56799e-02,9.99999e-01,6.86258e-02,9.57072e-01,9.99999e-01
1.317494319e+00,1.03435e-07,9.99999e-01,1.07981e-07,9.57902e-01,9.99999e-01
1.324081790e+00,1.10794e-05,9.99999e-01,1.15565e-05,9.58716e-01,9.99999e-01
1.330702199e+00,2.29179e-03,9.99999e-01,2.38849e-03,9.59515e-01,9.99999e-01
1.337355710e+00,1.66100e-03,9.99999e-01,1.72967e-03,9.60298e-01,9.99999e-01
1.344042489e+00,5.59609e-04,9.99999e-01,5.82279e-04,9.61067e-01,9.99999e-01
1.350762701e+00,1.77347e-03,9.99999e-01,1.84386e-03,9.61821e-01,9.99999e-01
1.357516515e+00,1.52950e-02,9.99999e-01,1.58898e-02,9.62561e-01,9.99999e-01
1.364304097e+00,7.30080e-02,9.99999e-01,7.57904e-02,9.63287e-01,9.99999e-01
1.371125618e+00,2.46826e-01,9.99999e-01,2.56043e-01,9.63999e-01,9.99999e-01
1.377981246e+00,3.24473e-01,9.99999e-01,3.36347e-01,9.64697e-01,9.99999e-01
1.384871152e+00,5.12123e-01,9.99999e-01,5.30487e-01,9.65382e-01,9.99999e-01
1.391795508e+00,5.38035e-01,9.99999e-01,5.56941e-01,9.66054e-01,9.99999e-01
1.398754485e+00,6.74604e-01,9.99999e-01,6.97832e-01,9.66713e-01,9.99999e-01
1.405748258e+00,7.41849e-01,9.99999e-01,7.66880e-01,9.67360e-01,9.99999e-01
1.412776999e+00,8.18905e-01,9.99999e-01,8.45981e-01,9.67994e-01,9.99999e-01
1.419840884e+00,7.57093e-01,9.99999e-01,7.81623e-01,9.68616e-01,9.99999e-01
1.426940089e+00,1.00911e-01,9.99999e-01,1.04115e-01,9.69227e-01,9.99999e-01
1.434074789e+00,2.29447e-297,9.99999e-01,2.36585e-297,9.69825e-01,9.99999e-01
1.441245163e+00,0.00000e+00,9.99999e-01,0.00000e+00,9.70412e-01,9.99999e-01
1.448451389e+00,0.00000e+00,9.99999e-01,0.00000e+00,9.70988e-01,9.99999e-01
1.455693646e+00,2.02162e-161,9.99999e-01,2.08081e-161,9.71553e-01,9.99999e-01
1.462972114e+00,8.33807e-79,9.99999e-01,8.57731e-79,9.72107e-01,9.99999e-01
1.470286975e+00,9.51990e-34,9.99999e-01,9.78758e-34,9.72650e-01,9.99999e-01
