#,Wave/freq,Total,O2,CO2,Rayleigh,CIA
4.000000000e-01,1.77091e-05,9.99999e-01,9.99999e-01,1.77091e-05,9.99999e-01
4.020000000e-01,2.19864e-05,9.99999e-01,9.99999e-01,2.19864e-05,9.99999e-01
4.040100000e-01,2.71743e-05,9.99999e-01,9.99999e-01,2.71743e-05,9.99999e-01
4.060300500e-01,3.34461e-05,9.99999e-01,9.99999e-01,3.34461e-05,9.99999e-01
4.080602003e-01,4.09969e-05,9.99999e-01,9.99999e-01,4.09969e-05,9.99999e-01
4.101005013e-01,5.00507e-05,9.99999e-01,9.99999e-01,5.00507e-05,9.99999e-01
4.121510038e-01,6.08635e-05,9.99999e-01,9.99999e-01,6.08635e-05,9.99999e-01
4.142117588e-01,7.37270e-05,9.99999e-01,9.99999e-01,7.37270e-05,9.99999e-01
4.162828176e-01,8.89715e-05,9.99999e-01,9.99999e-01,8.89715e-05,9.99999e-01
4.183642317e-01,1.06970e-04,9.99999e-01,9.99999e-01,1.06970e-04,9.99999e-01
4.204560528e-01,1.28143e-04,9.99999e-01,9.99999e-01,1.28143e-04,9.99999e-01
4.225583331e-01,1.52960e-04,9.99999e-01,9.99999e-01,1.52960e-04,9.99999e-01
4.246711247e-01,1.81946e-04,9.99999e-01,9.99999e-01,1.81946e-04,9.99999e-01
4.267944804e-01,2.15684e-04,9.99999e-01,9.99999e-01,2.15684e-04,9.99999e-01
4.289284528e-01,2.54820e-04,9.99999e-01,9.99999e-01,2.54820e-04,9.99999e-01
4.310730950e-01,3.00068e-04,9.99999e-01,9.99999e-01,3.00068e-04,9.99999e-01
4.332284605e-01,3.52211e-04,9.99999e-01,9.99999e-01,3.52211e-04,9.99999e-01
4.353946028e-01,4.12109e-04,9.99999e-01,9.99999e-01,4.12109e-04,9.99999e-01
4.375715758e-01,4.80700e-04,9.99999e-01,9.99999e-01,4.80700e-04,9.99999e-01
4.397594337e-01,5.59005e-04,9.99999e-01,9.99999e-01,5.59005e-04,9.99999e-01
4.419582309e-01,6.48130e-04,9.99999e-01,9.99999e-01,6.48130e-04,9.99999e-01
4.441680220e-01,7.49272e-04,9.99999e-01,9.99999e-01,7.49272e-04,9.99999e-01
4.463888621e-01,8.63720e-04,9.99999e-01,9.99999e-01,8.63720e-04,9.99999e-01
4.486208064e-01,9.92858e-04,9.99999e-01,9.99999e-01,9.92858e-04,9.99999e-01
4.508639105e-01,1.13817e-03,9.99999e-01,9.99999e-01,1.13817e-03,9.99999e-01
4.531182300e-01,1.30123e-03,9.99999e-01,9.99999e-01,1.30123e-03,9.99999e-01
4.553838212e-01,1.48372e-03,9.99999e-01,9.99999e-01,1.48372e-03,9.99999e-01
4.576607403e-01,1.68743e-03,9.99999e-01,9.99999e-01,1.68743e-03,9.99999e-01
4.599490440e-01,1.91423e-03,9.99999e-01,9.99999e-01,1.91423e-03,9.99999e-01
4.622487892e-01,2.16611e-03,9.99999e-01,9.99999e-01,2.16611e-03,9.99999e-01
4.645600332e-01,2.44517e-03,9.99999e-01,9.99999e-01,2.44517e-03,9.99999e-01
4.668828333e-01,2.75357e-03,9.99999e-01,9.99999e-01,2.75357e-03,9.99999e-01
4.692172475e-01,3.09360e-03,9.99999e-01,9.99999e-01,3.09360e-03,9.99999e-01
4.715633337e-01,3.46764e-03,9.99999e-01,9.99999e-01,3.46764e-03,9.99999e-01
4.739211504e-01,3.87814e-03,9.99999e-01,9.99999e-01,3.87814e-03,9.99999e-01
4.762907561e-01,4.32768e-03,9.99999e-01,9.99999e-01,4.32768e-03,9.99999e-01
4.786722099e-01,4.81886e-03,9.99999e-01,9.99999e-01,4.81886e-03,9.99999e-01
4.810655710e-01,5.35442e-03,9.99999e-01,9.99999e-01,5.35442e-03,9.99999e-01
4.834708988e-01,5.93712e-03,9.99999e-01,9.99999e-01,5.93712e-03,9.99999e-01
4.858882533e-01,6.56981e-03,9.99999e-01,9.99999e-01,6.56981e-03,9.99999e-01
4.883176946e-01,7.25541e-03,9.99999e-01,9.99999e-01,7.25541e-03,9.99999e-01
4.907592831e-01,7.99685e-03,9.99999e-01,9.99999e-01,7.99685e-03,9.99999e-01
4.932130795e-01,8.79714e-03,9.99999e-01,9.99999e-01,8.79714e-03,9.99999e-01
4.956791449e-01,9.65930e-03,9.99999e-01,9.99999e-01,9.65930e-03,9.99999e-01
4.981575406e-01,1.05864e-02,9.99999e-01,9.99999e-01,1.05864e-02,9.99999e-01
5.006483283e-01,1.15815e-02,9.99999e-01,9.99999e-01,1.15815e-02,9.99999e-01
5.031515699e-01,1.26476e-02,9.99999e-01,9.99999e-01,1.26476e-02,9.99999e-01
5.056673278e-01,1.37880e-02,9.99999e-01,9.99999e-01,1.37880e-02,9.99999e-01
5.081956644e-01,1.50055e-02,9.99999e-01,9.99999e-01,1.50055e-02,9.99999e-01
5.107366428e-01,1.63032e-02,9.99999e-01,9.99999e-01,1.63032e-02,9.99999e-01
5.132903260e-01,1.76842e-02,9.99999e-01,9.99999e-01,1.76842e-02,9.99999e-01
5.158567776e-01,1.91513e-02,9.99999e-01,9.99999e-01,1.91513e-02,9.99999e-01
5.184360615e-01,2.07076e-02,9.99999e-01,9.99999e-01,2.07076e-02,9.99999e-01
5.210282418e-01,2.23558e-02,9.99999e-01,9.99999e-01,2.23558e-02,9.99999e-01
5.236333830e-01,2.40987e-02,9.99999e-01,9.99999e-01,2.40987e-02,9.99999e-01
5.262515499e-01,2.59390e-02,9.99999e-01,9.99999e-01,2.59390e-02,9.99999e-01
5.288828077e-01,2.78793e-02,9.99999e-01,9.99999e-01,2.78793e-02,9.99999e-01
5.315272217e-01,2.99221e-02,9.99999e-01,9.99999e-01,2.99221e-02,9.99999e-01
5.341848578e-01,3.20697e-02,9.99999e-01,9.99999e-01,3.20697e-02,9.99999e-01
5.368557821e-01,3.43244e-02,9.99999e-01,9.99999e-01,3.43244e-02,9.99999e-01
5.395400610e-01,3.66884e-02,9.99999e-01,9.99999e-01,3.66884e-02,9.99999e-01
5.422377613e-01,3.91636e-02,9.99999e-01,9.99999e-01,3.91636e-02,9.99999e-01
5.449489501e-01,4.17519e-02,9.99999e-01,9.99999e-01,4.17519e-02,9.99999e-01
5.476736949e-01,4.44551e-02,9.99999e-01,9.99999e-01,4.44551e-02,9.99999e-01
5.504120634e-01,4.72747e-02,9.99999e-01,9.99999e-01,4.72747e-02,9.99999e-01
5.531641237e-01,5.02121e-02,9.99999e-01,9.99999e-01,5.02121e-02,9.99999e-01
5.559299443e-01,5.32685e-02,9.99999e-01,9.99999e-01,5.32685e-02,9.99999e-01
5.587095940e-01,5.64450e-02,9.99999e-01,9.99999e-01,5.64450e-02,9.99999e-01
5.615031420e-01,5.97426e-02,9.99999e-01,9.99999e-01,5.97426e-02,9.99999e-01
5.643106577e-01,6.31619e-02,9.99999e-01,9.99999e-01,6.31619e-02,9.99999e-01
5.671322110e-01,6.67036e-02,9.99999e-01,9.99999e-01,6.67036e-02,9.99999e-01
5.699678720e-01,7.03680e-02,9.99999e-01,9.99999e-01,7.03680e-02,9.99999e-01
5.728177114e-01,7.41554e-02,9.99999e-01,9.99999e-01,7.41554e-02,9.99999e-01
5.756818000e-01,7.80657e-02,9.99999e-01,9.99999e-01,7.80657e-02,9.99999e-01
5.785602090e-01,8.20988e-02,9.99999e-01,9.99999e-01,8.20988e-02,9.99999e-01
5.814530100e-01,8.62544e-02,9.99999e-01,9.99999e-01,8.62544e-02,9.99999e-01
5.843602750e-01,9.05320e-02,9.99999e-01,9.99999e-01,9.05320e-02,9.99999e-01
5.872820764e-01,9.49310e-02,9.99999e-01,9.99999e-01,9.49310e-02,9.99999e-01
5.902184868e-01,9.94504e-02,9.99999e-01,9.99999e-01,9.94504e-02,9.99999e-01
5.931695792e-01,1.04089e-01,9.99999e-01,9.99999e-01,1.04089e-01,9.99999e-01
5.961354271e-01,1.08847e-01,9.99999e-01,9.99999e-01,1.08847e-01,9.99999e-01
5.991161043e-01,1.13721e-01,9.99999e-01,9.99999e-01,1.13721e-01,9.99999e-01
6.021116848e-01,1.18711e-01,9.99999e-01,9.99999e-01,1.18711e-01,9.99999e-01
6.051222432e-01,1.23814e-01,9.99999e-01,9.99999e-01,1.23814e-01,9.99999e-01
6.081478544e-01,1.29030e-01,9.99999e-01,9.99999e-01,1.29030e-01,9.99999e-01
6.111885937e-01,1.34356e-01,9.99999e-01,9.99999e-01,1.34356e-01,9.99999e-01
6.142445367e-01,1.39790e-01,9.99999e-01,9.99999e-01,1.39790e-01,9.99999e-01
6.173157594e-01,1.45330e-01,9.99999e-01,9.99999e-01,1.45330e-01,9.99999e-01
6.204023382e-01,1.50973e-01,9.99999e-01,9.99999e-01,1.50973e-01,9.99999e-01
6.235043498e-01,1.56718e-01,9.99999e-01,9.99999e-01,1.56718e-01,9.99999e-01
6.266218716e-01,1.62562e-01,9.99999e-01,9.99999e-01,1.62562e-01,9.99999e-01
6.297549810e-01,1.68501e-01,9.99999e-01,9.99999e-01,1.68501e-01,9.99999e-01
6.329037559e-01,1.74533e-01,9.99999e-01,9.99999e-01,1.74533e-01,9.99999e-01
6.360682746e-01,1.80656e-01,9.99999e-01,9.99999e-01,1.80656e-01,9.99999e-01
6.392486160e-01,1.86867e-01,9.99999e-01,9.99999e-01,1.86867e-01,9.99999e-01
6.424448591e-01,1.93162e-01,9.99999e-01,9.99999e-01,1.93162e-01,9.99999e-01
6.456570834e-01,1.99538e-01,9.99999e-01,9.99999e-01,1.99538e-01,9.99999e-01
6.488853688e-01,2.05993e-01,9.99999e-01,9.99999e-01,2.05993e-01,9.99999e-01
6.521297956e-01,2.12523e-01,9.99999e-01,9.99999e-01,2.12523e-01,9.99999e-01
6.553904446e-01,2.19124e-01,9.99999e-01,9.99999e-01,2.19124e-01,9.99999e-01
6.586673968e-01,2.25795e-01,9.99999e-01,9.99999e-01,2.25795e-01,9.99999e-01
6.619607338e-01,2.32530e-01,9.99999e-01,9.99999e-01,2.32530e-01,9.99999e-01
6.652705375e-01,2.39328e-01,9.99999e-01,9.99999e-01,2.39328e-01,9.99999e-01
6.685968902e-01,2.46184e-01,9.99999e-01,9.99999e-01,2.46184e-01,9.99999e-01
6.719398746e-01,2.53095e-01,9.99999e-01,9.99999e-01,2.53095e-01,9.99999e-01
6.752995740e-01,2.60058e-01,9.99999e-01,9.99999e-01,2.60058e-01,9.99999e-01
6.786760719e-01,2.67069e-01,9.99999e-01,9.99999e-01,2.67069e-01,9.99999e-01
6.820694522e-01,2.74126e-01,9.99999e-01,9.99999e-01,2.74126e-01,9.99999e-01
6.854797995e-01,2.81224e-01,9.99999e-01,9.99999e-01,2.81224e-01,9.99999e-01
6.889071985e-01,2.88359e-01,9.99999e-01,9.99999e-01,2.88359e-01,9.99999e-01
6.923517345e-01,2.95530e-01,9.99999e-01,9.99999e-01,2.95530e-01,9.99999e-01
6.958134932e-01,3.02732e-01,9.99999e-01,9.99999e-01,3.02732e-01,9.99999e-01
6.992925606e-01,3.09962e-01,9.99999e-01,9.99999e-01,3.09962e-01,9.99999e-01
7.027890234e-01,3.17217e-01,9.99999e-01,9.99999e-01,3.17217e-01,9.99999e-01
7.063029686e-01,3.24494e-01,9.99999e-01,9.99999e-01,3.24494e-01,9.99999e-01
7.098344834e-01,3.31788e-01,9.99999e-01,9.99999e-01,3.31788e-01,9.99999e-01
7.133836558e-01,3.39098e-01,9.99999e-01,9.99999e-01,3.39098e-01,9.99999e-01
7.169505741e-01,3.46420e-01,9.99999e-01,9.99999e-01,3.46420e-01,9.99999e-01
7.205353270e-01,3.53750e-01,9.99999e-01,9.99999e-01,3.53750e-01,9.99999e-01
7.241380036e-01,3.61086e-01,9.99999e-01,9.99999e-01,3.61086e-01,9.99999e-01
7.277586936e-01,3.68425e-01,9.99999e-01,9.99999e-01,3.68425e-01,9.99999e-01
7.313974871e-01,3.75764e-01,9.99999e-01,9.99999e-01,3.75764e-01,9.99999e-01
7.350544745e-01,3.83099e-01,9.99999e-01,9.99999e-01,3.83099e-01,9.99999e-01
7.387297469e-01,3.90429e-01,9.99999e-01,9.99999e-01,3.90429e-01,9.99999e-01
7.424233956e-01,3.97750e-01,9.99999e-01,9.99999e-01,3.97750e-01,9.99999e-01
7.461355126e-01,4.05059e-01,9.99999e-01,9.99999e-01,4.05059e-01,9.99999e-01
7.498661902e-01,4.12355e-01,9.99999e-01,9.99999e-01,4.12355e-01,9.99999e-01
7.536155211e-01,4.19634e-01,9.99999e-01,9.99999e-01,4.19634e-01,9.99999e-01
7.573835987e-01,4.26894e-01,9.99999e-01,9.99999e-01,4.26894e-01,9.99999e-01
7.611705167e-01,4.34132e-01,9.99999e-01,9.99999e-01,4.34132e-01,9.99999e-01
7.649763693e-01,4.41347e-01,9.99999e-01,9.99999e-01,4.41347e-01,9.99999e-01
7.688012511e-01,4.48535e-01,9.99999e-01,9.99999e-01,4.48535e-01,9.99999e-01
7.726452574e-01,4.55695e-01,9.99999e-01,9.99999e-01,4.55695e-01,9.99999e-01
7.765084837e-01,4.62824e-01,9.99999e-01,9.99999e-01,4.62824e-01,9.99999e-01
7.803910261e-01,4.53998e-01,9.99999e-01,9.66114e-01,4.69921e-01,9.99999e-01
7.842929812e-01,4.06376e-01,9.99999e-01,8.51970e-01,4.76983e-01,9.99999e-01
7.882144461e-01,4.08211e-01,9.99999e-01,8.43394e-01,4.84009e-01,9.99999e-01
7.921555184e-01,4.44530e-01,9.99999e-01,9.05362e-01,4.90997e-01,9.99999e-01
7.961162960e-01,4.65629e-01,9.99999e-01,9.35103e-01,4.97944e-01,9.99999e-01
8.000968774e-01,4.86849e-01,9.99999e-01,9.64344e-01,5.04850e-01,9.99999e-01
8.040973618e-01,5.02137e-01,9.99999e-01,9.81289e-01,5.11712e-01,9.99999e-01
8.081178486e-01,5.14073e-01,9.99999e-01,9.91406e-01,5.18529e-01,9.99999e-01
8.121584379e-01,5.23889e-01,9.99999e-01,9.97315e-01,5.25299e-01,9.99999e-01
8.162192301e-01,5.31706e-01,9.99999e-01,9.99406e-01,5.32022e-01,9.99999e-01
8.203003262e-01,5.38690e-01,9.99999e-01,9.99989e-01,5.38695e-01,9.99999e-01
8.244018279e-01,5.45318e-01,9.99999e-01,9.99999e-01,5.45318e-01,9.99999e-01
8.285238370e-01,5.51888e-01,9.99999e-01,9.99999e-01,5.51888e-01,9.99999e-01
8.326664562e-01,5.58406e-01,9.99999e-01,9.99999e-01,5.58406e-01,9.99999e-01
8.368297885e-01,5.64870e-01,9.99999e-01,9.99999e-01,5.64870e-01,9.99999e-01
8.410139374e-01,5.71279e-01,9.99999e-01,9.99999e-01,5.71279e-01,9.99999e-01
8.452190071e-01,5.77632e-01,9.99999e-01,9.99999e-01,5.77632e-01,9.99999e-01
8.494451021e-01,5.83928e-01,9.99999e-01,9.99999e-01,5.83928e-01,9.99999e-01
8.536923276e-01,5.90166e-01,9.99999e-01,9.99999e-01,5.90166e-01,9.99999e-01
8.579607893e-01,5.96346e-01,9.99999e-01,9.99999e-01,5.96346e-01,9.99999e-01
8.622505932e-01,6.02466e-01,9.99999e-01,9.99999e-01,6.02466e-01,9.99999e-01
8.665618462e-01,5.63340e-01,9.99999e-01,9.25745e-01,6.08526e-01,9.99999e-01
8.708946554e-01,4.10208e-01,9.99999e-01,6.67518e-01,6.14526e-01,9.99999e-01
8.752491287e-01,4.47229e-01,9.99999e-01,7.20795e-01,6.20465e-01,9.99999e-01
8.796253743e-01,5.23027e-01,9.99999e-01,8.35050e-01,6.26342e-01,9.99999e-01
8.840235012e-01,5.75753e-01,9.99999e-01,9.10774e-01,6.32157e-01,9.99999e-01
8.884436187e-01,6.14736e-01,9.99999e-01,9.63672e-01,6.37910e-01,9.99999e-01
8.928858368e-01,6.34056e-01,9.99999e-01,9.85170e-01,6.43599e-01,9.99999e-01
8.973502660e-01,6.46859e-01,9.99999e-01,9.96354e-01,6.49226e-01,9.99999e-01
9.018370173e-01,6.54525e-01,9.99999e-01,9.99596e-01,6.54789e-01,9.99999e-01
9.063462024e-01,6.53727e-01,9.99999e-01,9.90061e-01,6.60289e-01,9.99999e-01
9.108779334e-01,6.50244e-01,9.99999e-01,9.76745e-01,6.65725e-01,9.99999e-01
9.154323231e-01,6.67364e-01,9.99999e-01,9.94438e-01,6.71097e-01,9.99999e-01
9.200094847e-01,6.25255e-01,9.99999e-01,9.24380e-01,6.76404e-01,9.99999e-01
9.246095321e-01,6.07579e-01,9.99999e-01,8.91338e-01,6.81648e-01,9.99999e-01
9.292325798e-01,6.28261e-01,9.99999e-01,9.14728e-01,6.86828e-01,9.99999e-01
9.338787427e-01,6.34238e-01,9.99999e-01,9.16603e-01,6.91943e-01,9.99999e-01
9.385481364e-01,6.53795e-01,9.99999e-01,9.38018e-01,6.96995e-01,9.99999e-01
9.432408771e-01,6.74917e-01,9.99999e-01,9.61444e-01,7.01982e-01,9.99999e-01
9.479570815e-01,6.92836e-01,9.99999e-01,9.80095e-01,7.06906e-01,9.99999e-01
9.526968669e-01,7.04888e-01,9.99999e-01,9.90336e-01,7.11766e-01,9.99999e-01
9.574603512e-01,7.13592e-01,9.99999e-01,9.95854e-01,7.16562e-01,9.99999e-01
9.622476530e-01,7.20360e-01,9.99999e-01,9.98703e-01,7.21295e-01,9.99999e-01
9.670588912e-01,7.25682e-01,9.99999e-01,9.99610e-01,7.25965e-01,9.99999e-01
9.718941857e-01,7.30551e-01,9.99999e-01,9.99971e-01,7.30571e-01,9.99999e-01
9.767536566e-01,7.35116e-01,9.99999e-01,9.99999e-01,7.35116e-01,9.99999e-01
9.816374249e-01,7.39598e-01,9.99999e-01,9.99999e-01,7.39598e-01,9.99999e-01
9.865456120e-01,7.44018e-01,9.99999e-01,9.99999e-01,7.44018e-01,9.99999e-01
9.914783401e-01,7.48376e-01,9.99999e-01,9.99999e-01,7.48376e-01,9.99999e-01
9.964357318e-01,7.52673e-01,9.99999e-01,9.99999e-01,7.52673e-01,9.99999e-01
1.001417910e+00,7.56909e-01,9.99999e-01,9.99999e-01,7.56909e-01,9.99999e-01
1.006425000e+00,7.61084e-01,9.99999e-01,9.99999e-01,7.61084e-01,9.99999e-01
1.011457125e+00,7.65199e-01,9.99999e-01,9.99999e-01,7.65199e-01,9.99999e-01
1.016514411e+00,7.69255e-01,9.99999e-01,9.99999e-01,7.69255e-01,9.99999e-01
1.021596983e+00,7.73215e-01,9.99999e-01,9.99951e-01,7.73251e-01,9.99999e-01
1.026704968e+00,7.74179e-01,9.99999e-01,9.96126e-01,7.77189e-01,9.99999e-01
1.031838492e+00,7.47818e-01,9.99999e-01,9.57429e-01,7.81068e-01,9.99999e-01
1.036997685e+00,1.15576e-01,9.99999e-01,1.47251e-01,7.84890e-01,9.99999e-01
1.042182673e+00,8.42169e-02,9.99999e-01,1.06785e-01,7.88654e-01,9.99999e-01
1.047393587e+00,1.04719e-01,9.99999e-01,1.32161e-01,7.92361e-01,9.99999e-01
1.052630555e+00,2.44778e-03,9.99999e-01,3.07505e-03,7.96012e-01,9.99999e-01
1.057893707e+00,6.28728e-03,9.99999e-01,7.86295e-03,7.99607e-01,9.99999e-01
1.063183176e+00,2.24775e-02,9.99999e-01,2.79867e-02,8.03147e-01,9.99999e-01
1.068499092e+00,6.69360e-02,9.99999e-01,8.29820e-02,8.06633e-01,9.99999e-01
1.073841587e+00,1.67081e-01,9.99999e-01,2.06257e-01,8.10064e-01,9.99999e-01
1.079210795e+00,2.99401e-01,9.99999e-01,3.68067e-01,8.13441e-01,9.99999e-01
1.084606849e+00,4.70427e-01,9.99999e-01,5.75963e-01,8.16765e-01,9.99999e-01
1.090029883e+00,6.15931e-01,9.99999e-01,7.51100e-01,8.20037e-01,9.99999e-01
1.095480033e+00,7.14812e-01,9.99999e-01,8.68272e-01,8.23257e-01,9.99999e-01
1.100957433e+00,7.72063e-01,9.99999e-01,9.34218e-01,8.26426e-01,9.99999e-01
1.106462220e+00,8.06500e-01,9.99999e-01,9.72220e-01,8.29544e-01,9.99999e-01
1.111994531e+00,8.23964e-01,9.99999e-01,9.89613e-01,8.32612e-01,9.99999e-01
1.117554504e+00,8.33493e-01,9.99999e-01,9.97442e-01,8.35630e-01,9.99999e-01
1.123142276e+00,8.38457e-01,9.99999e-01,9.99830e-01,8.38599e-01,9.99999e-01
1.128757988e+00,8.41520e-01,9.99999e-01,9.99999e-01,8.41520e-01,9.99999e-01
1.134401778e+00,8.44393e-01,9.99999e-01,9.99999e-01,8.44393e-01,9.99999e-01
1.140073787e+00,8.47219e-01,9.99999e-01,9.99999e-01,8.47219e-01,9.99999e-01
1.145774156e+00,8.49998e-01,9.99999e-01,9.99999e-01,8.49998e-01,9.99999e-01
1.151503026e+00,8.52731e-01,9.99999e-01,9.99999e-01,8.52731e-01,9.99999e-01
1.157260541e+00,8.55418e-01,9.99999e-01,9.99999e-01,8.55418e-01,9.99999e-01
1.163046844e+00,8.58061e-01,9.99999e-01,9.99999e-01,8.58061e-01,9.99999e-01
1.168862078e+00,8.60659e-01,9.99999e-01,9.99999e-01,8.60659e-01,9.99999e-01
1.174706389e+00,8.63214e-01,9.99999e-01,9.99999e-01,8.63214e-01,9.99999e-01
1.180579921e+00,8.65726e-01,9.99999e-01,9.99999e-01,8.65726e-01,9.99999e-01
1.186482820e+00,8.68191e-01,9.99999e-01,9.99994e-01,8.68195e-01,9.99999e-01
1.192415234e+00,8.58728e-01,9.99999e-01,9.86338e-01,8.70622e-01,9.99999e-01
1.198377311e+00,4.89730e-01,9.99999e-01,5.60968e-01,8.73008e-01,9.99999e-01
1.204369197e+00,9.79036e-12,9.99999e-01,1.11845e-11,8.75353e-01,9.99999e-01
1.210391043e+00,5.28592e-43,9.99999e-01,6.02276e-43,8.77658e-01,9.99999e-01
1.216442998e+00,2.06055e-37,9.99999e-01,2.34174e-37,8.79923e-01,9.99999e-01
1.222525213e+00,7.14143e-37,9.99999e-01,8.09548e-37,8.82149e-01,9.99999e-01
1.228637839e+00,1.46608e-28,9.99999e-01,1.65783e-28,8.84337e-01,9.99999e-01
1.234781029e+00,1.82329e-18,9.99999e-01,2.05676e-18,8.86487e-01,9.99999e-01
1.240954934e+00,1.74812e-12,9.99999e-01,1.96727e-12,8.88599e-01,9.99999e-01
1.247159708e+00,6.98745e-07,9.99999e-01,7.84512e-07,8.90674e-01,9.99999e-01
1.253395507e+00,1.81189e-04,9.99999e-01,2.02964e-04,8.92713e-01,9.99999e-01
1.259662485e+00,4.74153e-03,9.99999e-01,5.29947e-03,8.94717e-01,9.99999e-01
1.265960797e+00,5.28087e-02,9.99999e-01,5.88932e-02,8.96685e-01,9.99999e-01
1.272290601e+00,2.46378e-01,9.99999e-01,2.74174e-01,8.98619e-01,9.99999e-01
1.278652054e+00,2.34804e-01,9.99999e-01,2.60743e-01,9.00518e-01,9.99999e-01
1.285045314e+00,5.85171e-03,9.99999e-01,6.48472e-03,9.02384e-01,9.99999e-01
1.291470541e+00,1.00435e-05,9.99999e-01,1.11074e-05,9.04216e-01,9.99999e-01
1.297927893e+00,3.41700e-03,9.99999e-01,3.77146e-03,9.06017e-01,9.99999e-01
1.304417533e+00,1.02206e-01,9.99999e-01,1.12588e-01,9.07785e-01,9.99999e-01
1.310939621e+00,2.56173e-02,9.99999e-01,2.81657e-02,9.09521e-01,9.99999e-01
1.317494319e+00,3.06403e-15,9.99999e-01,3.36253e-15,9.11226e-01,9.99999e-01
1.324081790e+00,1.56502e-10,9.99999e-01,1.71434e-10,9.12901e-01,9.99999e-01
1.330702199e+00,3.17035e-06,9.99999e-01,3.46658e-06,9.14546e-01,9.99999e-01
1.337355710e+00,4.37654e-06,9.99999e-01,4.77704e-06,9.16161e-01,9.99999e-01
1.344042489e+00,1.38810e-06,9.99999e-01,1.51251e-06,9.17747e-01,9.99999e-01
1.350762701e+00,1.90448e-06,9.99999e-01,2.07165e-06,9.19304e-01,9.99999e-01
1.357516515e+00,2.13961e-04,9.99999e-01,2.32356e-04,9.20833e-01,9.99999e-01
1.364304097e+00,3.86771e-03,9.99999e-01,4.19339e-03,9.22335e-01,9.99999e-01
1.371125618e+00,5.31928e-02,9.99999e-01,5.75798e-02,9.23809e-01,9.99999e-01
1.377981246e+00,8.87713e-02,9.99999e-01,9.59423e-02,9.25256e-01,9.99999e-01
1.384871152e+00,2.36731e-01,9.99999e-01,2.55463e-01,9.26677e-01,9.99999e-01
1.391795508e+00,2.62700e-01,9.99999e-01,2.83060e-01,9.28072e-01,9.99999e-01
1.398754485e+00,4.26384e-01,9.99999e-01,4.58752e-01,9.29441e-01,9.99999e-01
1.405748258e+00,5.24244e-01,9.99999e-01,5.63227e-01,9.30785e-01,9.99999e-01
1.412776999e+00,6.48350e-01,9.99999e-01,6.95575e-01,9.32105e-01,9.99999e-01
1.419840884e+00,5.87944e-01,9.99999e-01,6.29894e-01,9.33400e-01,9.99999e-01
1.426940089e+00,5.28308e-02,9.99999e-01,5.65233e-02,9.34672e-01,9.99999e-01
1.434074789e+00,0.00000e+00,9.99999e-01,0.00000e+00,9.35920e-01,9.99999e-01
1.441245163e+00,0.00000e+00,9.99999e-01,0.00000e+00,9.37145e-01,9.99999e-01
1.448451389e+00,0.00000e+00,9.99999e-01,0.00000e+00,9.38347e-01,9.99999e-01
1.455693646e+00,0.00000e+00,9.99999e-01,0.00000e+00,9.39528e-01,9.99999e-01
1.462972114e+00,1.13854e-167,9.99999e-01,1.21032e-167,9.40686e-01,9.99999e-01
1.470286975e+00,2.57085e-70,9.99999e-01,2.72966e-70,9.41823e-01,9.99999e-01
