#,Wave/freq,Total,O2,CO2,Rayleigh,CIA
4.000000000e-01,3.52205e-02,9.99999e-01,9.99999e-01,3.52205e-02,9.99999e-01
4.020000000e-01,3.76295e-02,9.99999e-01,9.99999e-01,3.76295e-02,9.99999e-01
4.040100000e-01,4.01482e-02,9.99999e-01,9.99999e-01,4.01482e-02,9.99999e-01
4.060300500e-01,4.27806e-02,9.99999e-01,9.99999e-01,4.27806e-02,9.99999e-01
4.080602003e-01,4.55285e-02,9.99999e-01,9.99999e-01,4.55285e-02,9.99999e-01
4.101005013e-01,4.83933e-02,9.99999e-01,9.99999e-01,4.83933e-02,9.99999e-01
4.121510038e-01,5.13764e-02,9.99999e-01,9.99999e-01,5.13764e-02,9.99999e-01
4.142117588e-01,5.44791e-02,9.99999e-01,9.99999e-01,5.44791e-02,9.99999e-01
4.162828176e-01,5.77022e-02,9.99999e-01,9.99999e-01,5.77022e-02,9.99999e-01
4.183642317e-01,6.10466e-02,9.99999e-01,9.99999e-01,6.10466e-02,9.99999e-01
4.204560528e-01,6.45131e-02,9.99999e-01,9.99999e-01,6.45131e-02,9.99999e-01
4.225583331e-01,6.81021e-02,9.99999e-01,9.99999e-01,6.81021e-02,9.99999e-01
4.246711247e-01,7.18139e-02,9.99999e-01,9.99999e-01,7.18139e-02,9.99999e-01
4.267944804e-01,7.56486e-02,9.99999e-01,9.99999e-01,7.56486e-02,9.99999e-01
4.289284528e-01,7.96063e-02,9.99999e-01,9.99999e-01,7.96063e-02,9.99999e-01
4.310730950e-01,8.36867e-02,9.99999e-01,9.99999e-01,8.36867e-02,9.99999e-01
4.332284605e-01,8.78894e-02,9.99999e-01,9.99999e-01,8.78894e-02,9.99999e-01
4.353946028e-01,9.22139e-02,9.99999e-01,9.99999e-01,9.22139e-02,9.99999e-01
4.375715758e-01,9.66595e-02,9.99999e-01,9.99999e-01,9.66595e-02,9.99999e-01
4.397594337e-01,1.01225e-01,9.99999e-01,9.99999e-01,1.01225e-01,9.99999e-01
4.419582309e-01,1.05910e-01,9.99999e-01,9.99999e-01,1.05910e-01,9.99999e-01
4.441680220e-01,1.10712e-01,9.99999e-01,9.99999e-01,1.10712e-01,9.99999e-01
4.463888621e-01,1.15631e-01,9.99999e-01,9.99999e-01,1.15631e-01,9.99999e-01
4.486208064e-01,1.20665e-01,9.99999e-01,9.99999e-01,1.20665e-01,9.99999e-01
4.508639105e-01,1.25812e-01,9.99999e-01,9.99999e-01,1.25812e-01,9.99999e-01
4.531182300e-01,1.31071e-01,9.99999e-01,9.99999e-01,1.31071e-01,9.99999e-01
4.553838212e-01,1.36439e-01,9.99999e-01,9.99999e-01,1.36439e-01,9.99999e-01
4.576607403e-01,1.41914e-01,9.99999e-01,9.99999e-01,1.41914e-01,9.99999e-01
4.599490440e-01,1.47494e-01,9.99999e-01,9.99999e-01,1.47494e-01,9.99999e-01
4.622487892e-01,1.53177e-01,9.99999e-01,9.99999e-01,1.53177e-01,9.99999e-01
4.645600332e-01,1.58960e-01,9.99999e-01,9.99999e-01,1.58960e-01,9.99999e-01
4.668828333e-01,1.64840e-01,9.99999e-01,9.99999e-01,1.64840e-01,9.99999e-01
4.692172475e-01,1.70816e-01,9.99999e-01,9.99999e-01,1.70816e-01,9.99999e-01
4.715633337e-01,1.76884e-01,9.99999e-01,9.99999e-01,1.76884e-01,9.99999e-01
4.739211504e-01,1.83041e-01,9.99999e-01,9.99999e-01,1.83041e-01,9.99999e-01
4.762907561e-01,1.89284e-01,9.99999e-01,9.99999e-01,1.89284e-01,9.99999e-01
4.786722099e-01,1.95611e-01,9.99999e-01,9.99999e-01,1.95611e-01,9.99999e-01
4.810655710e-01,2.02018e-01,9.99999e-01,9.99999e-01,2.02018e-01,9.99999e-01
4.834708988e-01,2.08502e-01,9.99999e-01,9.99999e-01,2.08502e-01,9.99999e-01
4.858882533e-01,2.15060e-01,9.99999e-01,9.99999e-01,2.15060e-01,9.99999e-01
4.883176946e-01,2.21689e-01,9.99999e-01,9.99999e-01,2.21689e-01,9.99999e-01
4.907592831e-01,2.28384e-01,9.99999e-01,9.99999e-01,2.28384e-01,9.99999e-01
4.932130795e-01,2.35144e-01,9.99999e-01,9.99999e-01,2.35144e-01,9.99999e-01
4.956791449e-01,2.41965e-01,9.99999e-01,9.99999e-01,2.41965e-01,9.99999e-01
4.981575406e-01,2.48842e-01,9.99999e-01,9.99999e-01,2.48842e-01,9.99999e-01
5.006483283e-01,2.55774e-01,9.99999e-01,9.99999e-01,2.55774e-01,9.99999e-01
5.031515699e-01,2.62756e-01,9.99999e-01,9.99999e-01,2.62756e-01,9.99999e-01
5.056673278e-01,2.69785e-01,9.99999e-01,9.99999e-01,2.69785e-01,9.99999e-01
5.081956644e-01,2.76858e-01,9.99999e-01,9.99999e-01,2.76858e-01,9.99999e-01
5.107366428e-01,2.83971e-01,9.99999e-01,9.99999e-01,2.83971e-01,9.99999e-01
5.132903260e-01,2.91121e-01,9.99999e-01,9.99999e-01,2.91121e-01,9.99999e-01
5.158567776e-01,2.98304e-01,9.99999e-01,9.99999e-01,2.98304e-01,9.99999e-01
5.184360615e-01,3.05517e-01,9.99999e-01,9.99999e-01,3.05517e-01,9.99999e-01
5.210282418e-01,3.12757e-01,9.99999e-01,9.99999e-01,3.12757e-01,9.99999e-01
5.236333830e-01,3.20021e-01,9.99999e-01,9.99999e-01,3.20021e-01,9.99999e-01
5.262515499e-01,3.27305e-01,9.99999e-01,9.99999e-01,3.27305e-01,9.99999e-01
5.288828077e-01,3.34606e-01,9.99999e-01,9.99999e-01,3.34606e-01,9.99999e-01
5.315272217e-01,3.41920e-01,9.99999e-01,9.99999e-01,3.41920e-01,9.99999e-01
5.341848578e-01,3.49246e-01,9.99999e-01,9.99999e-01,3.49246e-01,9.99999e-01
5.368557821e-01,3.56578e-01,9.99999e-01,9.99999e-01,3.56578e-01,9.99999e-01
5.395400610e-01,3.63916e-01,9.99999e-01,9.99999e-01,3.63916e-01,9.99999e-01
5.422377613e-01,3.71255e-01,9.99999e-01,9.99999e-01,3.71255e-01,9.99999e-01
5.449489501e-01,3.78593e-01,9.99999e-01,9.99999e-01,3.78593e-01,9.99999e-01
5.476736949e-01,3.85927e-01,9.99999e-01,9.99999e-01,3.85927e-01,9.99999e-01
5.504120634e-01,3.93253e-01,9.99999e-01,9.99999e-01,3.93253e-01,9.99999e-01
5.531641237e-01,4.00570e-01,9.99999e-01,9.99999e-01,4.00570e-01,9.99999e-01
5.559299443e-01,4.07874e-01,9.99999e-01,9.99999e-01,4.07874e-01,9.99999e-01
5.587095940e-01,4.15164e-01,9.99999e-01,9.99999e-01,4.15164e-01,9.99999e-01
5.615031420e-01,4.22436e-01,9.99999e-01,9.99999e-01,4.22436e-01,9.99999e-01
5.643106577e-01,4.29688e-01,9.99999e-01,9.99999e-01,4.29688e-01,9.99999e-01
5.671322110e-01,4.36917e-01,9.99999e-01,9.99999e-01,4.36917e-01,9.99999e-01
5.699678720e-01,4.44122e-01,9.99999e-01,9.99999e-01,4.44122e-01,9.99999e-01
5.728177114e-01,4.51299e-01,9.99999e-01,9.99999e-01,4.51299e-01,9.99999e-01
5.756818000e-01,4.58448e-01,9.99999e-01,9.99999e-01,4.58448e-01,9.99999e-01
5.785602090e-01,4.65565e-01,9.99999e-01,9.99999e-01,4.65565e-01,9.99999e-01
5.814530100e-01,4.72649e-01,9.99999e-01,9.99999e-01,4.72649e-01,9.99999e-01
5.843602750e-01,4.79697e-01,9.99999e-01,9.99999e-01,4.79697e-01,9.99999e-01
5.872820764e-01,4.86708e-01,9.99999e-01,9.99999e-01,4.86708e-01,9.99999e-01
5.902184868e-01,4.93680e-01,9.99999e-01,9.99999e-01,4.93680e-01,9.99999e-01
5.931695792e-01,5.00612e-01,9.99999e-01,9.99999e-01,5.00612e-01,9.99999e-01
5.961354271e-01,5.07501e-01,9.99999e-01,9.99999e-01,5.07501e-01,9.99999e-01
5.991161043e-01,5.14346e-01,9.99999e-01,9.99999e-01,5.14346e-01,9.99999e-01
6.021116848e-01,5.21145e-01,9.99999e-01,9.99999e-01,5.21145e-01,9.99999e-01
6.051222432e-01,5.27897e-01,9.99999e-01,9.99999e-01,5.27897e-01,9.99999e-01
6.081478544e-01,5.34601e-01,9.99999e-01,9.99999e-01,5.34601e-01,9.99999e-01
6.111885937e-01,5.41255e-01,9.99999e-01,9.99999e-01,5.41255e-01,9.99999e-01
6.142445367e-01,5.47858e-01,9.99999e-01,9.99999e-01,5.47858e-01,9.99999e-01
6.173157594e-01,5.54408e-01,9.99999e-01,9.99999e-01,5.54408e-01,9.99999e-01
6.204023382e-01,5.60905e-01,9.99999e-01,9.99999e-01,5.60905e-01,9.99999e-01
6.235043498e-01,5.67348e-01,9.99999e-01,9.99999e-01,5.67348e-01,9.99999e-01
6.266218716e-01,5.73735e-01,9.99999e-01,9.99999e-01,5.73735e-01,9.99999e-01
6.297549810e-01,5.80066e-01,9.99999e-01,9.99999e-01,5.80066e-01,9.99999e-01
6.329037559e-01,5.86340e-01,9.99999e-01,9.99999e-01,5.86340e-01,9.99999e-01
6.360682746e-01,5.92556e-01,9.99999e-01,9.99999e-01,5.92556e-01,9.99999e-01
6.392486160e-01,5.98713e-01,9.99999e-01,9.99999e-01,5.98713e-01,9.99999e-01
6.424448591e-01,6.04810e-01,9.99999e-01,9.99999e-01,6.04810e-01,9.99999e-01
6.456570834e-01,6.10847e-01,9.99999e-01,9.99999e-01,6.10847e-01,9.99999e-01
6.488853688e-01,6.16823e-01,9.99999e-01,9.99999e-01,6.16823e-01,9.99999e-01
6.521297956e-01,6.22738e-01,9.99999e-01,9.99999e-01,6.22738e-01,9.99999e-01
6.553904446e-01,6.28592e-01,9.99999e-01,9.99999e-01,6.28592e-01,9.99999e-01
6.586673968e-01,6.34383e-01,9.99999e-01,9.99999e-01,6.34383e-01,9.99999e-01
6.619607338e-01,6.40111e-01,9.99999e-01,9.99999e-01,6.40111e-01,9.99999e-01
6.652705375e-01,6.45777e-01,9.99999e-01,9.99999e-01,6.45777e-01,9.99999e-01
6.685968902e-01,6.51379e-01,9.99999e-01,9.99999e-01,6.51379e-01,9.99999e-01
6.719398746e-01,6.56918e-01,9.99999e-01,9.99999e-01,6.56918e-01,9.99999e-01
6.752995740e-01,6.62393e-01,9.99999e-01,9.99999e-01,6.62393e-01,9.99999e-01
6.786760719e-01,6.67804e-01,9.99999e-01,9.99999e-01,6.67804e-01,9.99999e-01
6.820694522e-01,6.73151e-01,9.99999e-01,9.99999e-01,6.73151e-01,9.99999e-01
6.854797995e-01,6.78434e-01,9.99999e-01,9.99999e-01,6.78434e-01,9.99999e-01
6.889071985e-01,6.83653e-01,9.99999e-01,9.99999e-01,6.83653e-01,9.99999e-01
6.923517345e-01,6.88808e-01,9.99999e-01,9.99999e-01,6.88808e-01,9.99999e-01
6.958134932e-01,6.93899e-01,9.99999e-01,9.99999e-01,6.93899e-01,9.99999e-01
6.992925606e-01,6.98926e-01,9.99999e-01,9.99999e-01,6.98926e-01,9.99999e-01
7.027890234e-01,7.03888e-01,9.99999e-01,9.99999e-01,7.03888e-01,9.99999e-01
7.063029686e-01,7.08787e-01,9.99999e-01,9.99999e-01,7.08787e-01,9.99999e-01
7.098344834e-01,7.13623e-01,9.99999e-01,9.99999e-01,7.13623e-01,9.99999e-01
7.133836558e-01,7.18394e-01,9.99999e-01,9.99999e-01,7.18394e-01,9.99999e-01
7.169505741e-01,7.23103e-01,9.99999e-01,9.99999e-01,7.23103e-01,9.99999e-01
7.205353270e-01,7.27748e-01,9.99999e-01,9.99999e-01,7.27748e-01,9.99999e-01
7.241380036e-01,7.32331e-01,9.99999e-01,9.99999e-01,7.32331e-01,9.99999e-01
7.277586936e-01,7.36851e-01,9.99999e-01,9.99999e-01,7.36851e-01,9.99999e-01
7.313974871e-01,7.41309e-01,9.99999e-01,9.99999e-01,7.41309e-01,9.99999e-01
7.350544745e-01,7.45705e-01,9.99999e-01,9.99999e-01,7.45705e-01,9.99999e-01
7.387297469e-01,7.50040e-01,9.99999e-01,9.99999e-01,7.50040e-01,9.99999e-01
7.424233956e-01,7.54313e-01,9.99999e-01,9.99999e-01,7.54313e-01,9.99999e-01
7.461355126e-01,7.58526e-01,9.99999e-01,9.99999e-01,7.58526e-01,9.99999e-01
7.498661902e-01,7.62678e-01,9.99999e-01,9.99999e-01,7.62678e-01,9.99999e-01
7.536155211e-01,7.66770e-01,9.99999e-01,9.99999e-01,7.66770e-01,9.99999e-01
7.573835987e-01,7.70803e-01,9.99999e-01,9.99999e-01,7.70803e-01,9.99999e-01
7.611705167e-01,7.74777e-01,9.99999e-01,9.99999e-01,7.74777e-01,9.99999e-01
7.649763693e-01,7.78692e-01,9.99999e-01,9.99999e-01,7.78692e-01,9.99999e-01
7.688012511e-01,7.82549e-01,9.99999e-01,9.99999e-01,7.82549e-01,9.99999e-01
7.726452574e-01,7.86348e-01,9.99999e-01,9.99999e-01,7.86348e-01,9.99999e-01
7.765084837e-01,7.90090e-01,9.99999e-01,9.99999e-01,7.90090e-01,9.99999e-01
7.803910261e-01,7.84284e-01,9.99999e-01,9.88042e-01,7.93776e-01,9.99999e-01
7.842929812e-01,7.58682e-01,9.99999e-01,9.51437e-01,7.97405e-01,9.99999e-01
7.882144461e-01,7.59083e-01,9.99999e-01,9.47694e-01,8.00979e-01,9.99999e-01
7.921555184e-01,7.80182e-01,9.99999e-01,9.69774e-01,8.04498e-01,9.99999e-01
7.961162960e-01,7.91654e-01,9.99999e-01,9.79815e-01,8.07962e-01,9.99999e-01
8.000968774e-01,8.02452e-01,9.99999e-01,9.89005e-01,8.11372e-01,9.99999e-01
8.040973618e-01,8.10089e-01,9.99999e-01,9.94304e-01,8.14729e-01,9.99999e-01
8.081178486e-01,8.15889e-01,9.99999e-01,9.97377e-01,8.18033e-01,9.99999e-01
8.121584379e-01,8.20623e-01,9.99999e-01,9.99192e-01,8.21285e-01,9.99999e-01
8.162192301e-01,8.24338e-01,9.99999e-01,9.99821e-01,8.24485e-01,9.99999e-01
8.203003262e-01,8.27632e-01,9.99999e-01,9.99996e-01,8.27634e-01,9.99999e-01
8.244018279e-01,8.30733e-01,9.99999e-01,9.99999e-01,8.30733e-01,9.99999e-01
8.285238370e-01,8.33781e-01,9.99999e-01,9.99999e-01,8.33781e-01,9.99999e-01
8.326664562e-01,8.36781e-01,9.99999e-01,9.99999e-01,8.36781e-01,9.99999e-01
8.368297885e-01,8.39731e-01,9.99999e-01,9.99999e-01,8.39731e-01,9.99999e-01
8.410139374e-01,8.42633e-01,9.99999e-01,9.99999e-01,8.42633e-01,9.99999e-01
8.452190071e-01,8.45488e-01,9.99999e-01,9.99999e-01,8.45488e-01,9.99999e-01
8.494451021e-01,8.48296e-01,9.99999e-01,9.99999e-01,8.48296e-01,9.99999e-01
8.536923276e-01,8.51057e-01,9.99999e-01,9.99999e-01,8.51057e-01,9.99999e-01
8.579607893e-01,8.53772e-01,9.99999e-01,9.99999e-01,8.53772e-01,9.99999e-01
8.622505932e-01,8.56443e-01,9.99999e-01,9.99999e-01,8.56443e-01,9.99999e-01
8.665618462e-01,8.29975e-01,9.99999e-01,9.66133e-01,8.59068e-01,9.99999e-01
8.708946554e-01,7.57028e-01,9.99999e-01,8.78579e-01,8.61650e-01,9.99999e-01
8.752491287e-01,7.80189e-01,9.99999e-01,9.02800e-01,8.64188e-01,9.99999e-01
8.796253743e-01,8.20033e-01,9.99999e-01,9.46174e-01,8.66683e-01,9.99999e-01
8.840235012e-01,8.44718e-01,9.99999e-01,9.71905e-01,8.69136e-01,9.99999e-01
8.884436187e-01,8.61854e-01,9.99999e-01,9.88877e-01,8.71547e-01,9.99999e-01
8.928858368e-01,8.69969e-01,9.99999e-01,9.95481e-01,8.73917e-01,9.99999e-01
8.973502660e-01,8.75287e-01,9.99999e-01,9.98904e-01,8.76246e-01,9.99999e-01
9.018370173e-01,8.78430e-01,9.99999e-01,9.99878e-01,8.78536e-01,9.99999e-01
9.063462024e-01,8.78002e-01,9.99999e-01,9.96838e-01,8.80786e-01,9.99999e-01
9.108779334e-01,8.76700e-01,9.99999e-01,9.92867e-01,8.82997e-01,9.99999e-01
9.154323231e-01,8.83692e-01,9.99999e-01,9.98329e-01,8.85170e-01,9.99999e-01
9.200094847e-01,8.64735e-01,9.99999e-01,9.74562e-01,8.87305e-01,9.99999e-01
9.246095321e-01,8.58701e-01,9.99999e-01,9.65479e-01,8.89403e-01,9.99999e-01
9.292325798e-01,8.66982e-01,9.99999e-01,9.72536e-01,8.91465e-01,9.99999e-01
9.338787427e-01,8.69971e-01,9.99999e-01,9.73676e-01,8.93490e-01,9.99999e-01
9.385481364e-01,8.78147e-01,9.99999e-01,9.80643e-01,8.95480e-01,9.99999e-01
9.432408771e-01,8.86794e-01,9.99999e-01,9.88143e-01,8.97435e-01,9.99999e-01
9.479570815e-01,8.93866e-01,9.99999e-01,9.93896e-01,8.99355e-01,9.99999e-01
9.526968669e-01,8.98587e-01,9.99999e-01,9.97054e-01,9.01241e-01,9.99999e-01
9.574603512e-01,9.01957e-01,9.99999e-01,9.98740e-01,9.03094e-01,9.99999e-01
9.622476530e-01,9.04559e-01,9.99999e-01,9.99607e-01,9.04914e-01,9.99999e-01
9.670588912e-01,9.06596e-01,9.99999e-01,9.99882e-01,9.06702e-01,9.99999e-01
9.718941857e-01,9.08450e-01,9.99999e-01,9.99991e-01,9.08458e-01,9.99999e-01
9.767536566e-01,9.10182e-01,9.99999e-01,9.99999e-01,9.10182e-01,9.99999e-01
9.816374249e-01,9.11876e-01,9.99999e-01,9.99999e-01,9.11876e-01,9.99999e-01
9.865456120e-01,9.13539e-01,9.99999e-01,9.99999e-01,9.13539e-01,9.99999e-01
9.914783401e-01,9.15172e-01,9.99999e-01,9.99999e-01,9.15172e-01,9.99999e-01
9.964357318e-01,9.16776e-01,9.99999e-01,9.99999e-01,9.16776e-01,9.99999e-01
1.001417910e+00,9.18351e-01,9.99999e-01,9.99999e-01,9.18351e-01,9.99999e-01
1.006425000e+00,9.19897e-01,9.99999e-01,9.99999e-01,9.19897e-01,9.99999e-01
1.011457125e+00,9.21415e-01,9.99999e-01,9.99999e-01,9.21415e-01,9.99999e-01
1.016514411e+00,9.22906e-01,9.99999e-01,9.99999e-01,9.22906e-01,9.99999e-01
1.021596983e+00,9.24354e-01,9.99999e-01,9.99981e-01,9.24370e-01,9.99999e-01
1.026704968e+00,9.24669e-01,9.99999e-01,9.98770e-01,9.25807e-01,9.99999e-01
1.031838492e+00,9.07891e-01,9.99999e-01,9.79156e-01,9.27218e-01,9.99999e-01
1.036997685e+00,3.58837e-01,9.99999e-01,3.86426e-01,9.28603e-01,9.99999e-01
1.042182673e+00,4.48919e-01,9.99999e-01,4.82728e-01,9.29962e-01,9.99999e-01
1.047393587e+00,3.92668e-01,9.99999e-01,4.21636e-01,9.31297e-01,9.99999e-01
1.052630555e+00,1.06513e-01,9.99999e-01,1.14210e-01,9.32607e-01,9.99999e-01
1.057893707e+00,1.76839e-01,9.99999e-01,1.89356e-01,9.33893e-01,9.99999e-01
1.063183176e+00,2.82516e-01,9.99999e-01,3.02105e-01,9.35156e-01,9.99999e-01
1.068499092e+00,4.26397e-01,9.99999e-01,4.55360e-01,9.36395e-01,9.99999e-01
1.073841587e+00,5.71549e-01,9.99999e-01,6.09580e-01,9.37611e-01,9.99999e-01
1.079210795e+00,6.87565e-01,9.99999e-01,7.32382e-01,9.38805e-01,9.99999e-01
1.084606849e+00,7.93529e-01,9.99999e-01,8.44200e-01,9.39977e-01,9.99999e-01
1.090029883e+00,8.62168e-01,9.99999e-01,9.16100e-01,9.41127e-01,9.99999e-01
1.095480033e+00,9.02517e-01,9.99999e-01,9.57826e-01,9.42255e-01,9.99999e-01
1.100957433e+00,9.24015e-01,9.99999e-01,9.79489e-01,9.43363e-01,9.99999e-01
1.106462220e+00,9.36402e-01,9.99999e-01,9.91478e-01,9.44450e-01,9.99999e-01
1.111994531e+00,9.42524e-01,9.99999e-01,9.96834e-01,9.45517e-01,9.99999e-01
1.117554504e+00,9.45833e-01,9.99999e-01,9.99227e-01,9.46564e-01,9.99999e-01
1.123142276e+00,9.47543e-01,9.99999e-01,9.99949e-01,9.47591e-01,9.99999e-01
1.128757988e+00,9.48599e-01,9.99999e-01,9.99999e-01,9.48599e-01,9.99999e-01
1.134401778e+00,9.49588e-01,9.99999e-01,9.99999e-01,9.49588e-01,9.99999e-01
1.140073787e+00,9.50559e-01,9.99999e-01,9.99999e-01,9.50559e-01,9.99999e-01
1.145774156e+00,9.51512e-01,9.99999e-01,9.99999e-01,9.51512e-01,9.99999e-01
1.151503026e+00,9.52446e-01,9.99999e-01,9.99999e-01,9.52446e-01,9.99999e-01
1.157260541e+00,9.53363e-01,9.99999e-01,9.99999e-01,9.53363e-01,9.99999e-01
1.163046844e+00,9.54263e-01,9.99999e-01,9.99999e-01,9.54263e-01,9.99999e-01
1.168862078e+00,9.55146e-01,9.99999e-01,9.99999e-01,9.55146e-01,9.99999e-01
1.174706389e+00,9.56012e-01,9.99999e-01,9.99999e-01,9.56012e-01,9.99999e-01
1.180579921e+00,9.56862e-01,9.99999e-01,9.99999e-01,9.56862e-01,9.99999e-01
1.186482820e+00,9.57693e-01,9.99999e-01,9.99997e-01,9.57696e-01,9.99999e-01
1.192415234e+00,9.54257e-01,9.99999e-01,9.95558e-01,9.58514e-01,9.99999e-01
1.198377311e+00,5.84458e-01,9.99999e-01,6.09244e-01,9.59316e-01,9.99999e-01
1.204369197e+00,3.87409e-05,9.99999e-01,4.03507e-05,9.60104e-01,9.99999e-01
1.210391043e+00,1.02327e-14,9.99999e-01,1.06493e-14,9.60876e-01,9.99999e-01
1.216442998e+00,5.74426e-13,9.99999e-01,5.97343e-13,9.61634e-01,9.99999e-01
1.222525213e+00,9.71691e-13,9.99999e-01,1.00968e-12,9.62377e-01,9.99999e-01
1.228637839e+00,9.76951e-10,9.99999e-01,1.01437e-09,9.63106e-01,9.99999e-01
1.234781029e+00,4.26034e-07,9.99999e-01,4.42025e-07,9.63822e-01,9.99999e-01
1.240954934e+00,7.91529e-05,9.99999e-01,8.20641e-05,9.64523e-01,9.99999e-01
1.247159708e+00,5.12393e-03,9.99999e-01,5.30861e-03,9.65212e-01,9.99999e-01
1.253395507e+00,5.71804e-02,9.99999e-01,5.91999e-02,9.65887e-01,9.99999e-01
1.259662485e+00,1.96571e-01,9.99999e-01,2.03374e-01,9.66550e-01,9.99999e-01
1.265960797e+00,3.85289e-01,9.99999e-01,3.98355e-01,9.67199e-01,9.99999e-01
1.272290601e+00,6.65981e-01,9.99999e-01,6.88113e-01,9.67837e-01,9.99999e-01
1.278652054e+00,6.03637e-01,9.99999e-01,6.23294e-01,9.68462e-01,9.99999e-01
1.285045314e+00,6.70864e-02,9.99999e-01,6.92272e-02,9.69075e-01,9.99999e-01
1.291470541e+00,2.23677e-02,9.99999e-01,2.30671e-02,9.69676e-01,9.99999e-01
1.297927893e+00,1.43475e-01,9.99999e-01,1.47872e-01,9.70266e-01,9.99999e-01
1.304417533e+00,4.93793e-01,9.99999e-01,5.08621e-01,9.70845e-01,9.99999e-01
1.310939621e+00,1.54859e-01,9.99999e-01,1.59416e-01,9.71413e-01,9.99999e-01
1.317494319e+00,1.97530e-05,9.99999e-01,2.03227e-05,9.71969e-01,9.99999e-01
1.324081790e+00,3.35974e-04,9.99999e-01,3.45469e-04,9.72515e-01,9.99999e-01
1.330702199e+00,1.66595e-02,9.99999e-01,1.71208e-02,9.73051e-01,9.99999e-01
1.337355710e+00,1.09207e-02,9.99999e-01,1.12171e-02,9.73576e-01,9.99999e-01
1.344042489e+00,4.90664e-03,9.99999e-01,5.03715e-03,9.74091e-01,9.99999e-01
1.350762701e+00,1.42112e-02,9.99999e-01,1.45816e-02,9.74596e-01,9.99999e-01
1.357516515e+00,5.88595e-02,9.99999e-01,6.03630e-02,9.75092e-01,9.99999e-01
1.364304097e+00,1.75010e-01,9.99999e-01,1.79391e-01,9.75578e-01,9.99999e-01
1.371125618e+00,3.91773e-01,9.99999e-01,4.01385e-01,9.76054e-01,9.99999e-01
1.377981246e+00,4.74458e-01,9.99999e-01,4.85864e-01,9.76522e-01,9.99999e-01
1.384871152e+00,6.41826e-01,9.99999e-01,6.56948e-01,9.76980e-01,9.99999e-01
1.391795508e+00,6.63269e-01,9.99999e-01,6.78585e-01,9.77429e-01,9.99999e-01
1.398754485e+00,7.70776e-01,9.99999e-01,7.88218e-01,9.77870e-01,9.99999e-01
1.405748258e+00,8.20605e-01,9.99999e-01,8.38804e-01,9.78303e-01,9.99999e-01
1.412776999e+00,8.76178e-01,9.99999e-01,8.95222e-01,9.78727e-01,9.99999e-01
1.419840884e+00,8.26419e-01,9.99999e-01,8.44022e-01,9.79142e-01,9.99999e-01
1.426940089e+00,1.25490e-01,9.99999e-01,1.28110e-01,9.79550e-01,9.99999e-01
1.434074789e+00,2.51436e-197,9.99999e-01,2.56581e-197,9.79950e-01,9.99999e-01
1.441245163e+00,1.26912e-290,9.99999e-01,1.29457e-290,9.80342e-01,9.99999e-01
1.448451389e+00,4.24654e-239,9.99999e-01,4.32999e-239,9.80726e-01,9.99999e-01
1.455693646e+00,1.82844e-107,9.99999e-01,1.86365e-107,9.81104e-01,9.99999e-01
1.462972114e+00,7.48779e-53,9.99999e-01,7.62912e-53,9.81473e-01,9.99999e-01
1.470286975e+00,4.70721e-23,9.99999e-01,4.79429e-23,9.81836e-01,9.99999e-01
