#,Wave/freq,Total,O2,CO2,Rayleigh,CIA
4.000000000e-01,5.21813e-04,9.99999e-01,9.99999e-01,5.21813e-04,9.99999e-01
4.020000000e-01,6.05923e-04,9.99999e-01,9.99999e-01,6.05923e-04,9.99999e-01
4.040100000e-01,7.01411e-04,9.99999e-01,9.99999e-01,7.01411e-04,9.99999e-01
4.060300500e-01,8.09604e-04,9.99999e-01,9.99999e-01,8.09604e-04,9.99999e-01
4.080602003e-01,9.31841e-04,9.99999e-01,9.99999e-01,9.31841e-04,9.99999e-01
4.101005013e-01,1.06956e-03,9.99999e-01,9.99999e-01,1.06956e-03,9.99999e-01
4.121510038e-01,1.22429e-03,9.99999e-01,9.99999e-01,1.22429e-03,9.99999e-01
4.142117588e-01,1.39768e-03,9.99999e-01,9.99999e-01,1.39768e-03,9.99999e-01
4.162828176e-01,1.59145e-03,9.99999e-01,9.99999e-01,1.59145e-03,9.99999e-01
4.183642317e-01,1.80744e-03,9.99999e-01,9.99999e-01,1.80744e-03,9.99999e-01
4.204560528e-01,2.04759e-03,9.99999e-01,9.99999e-01,2.04759e-03,9.99999e-01
4.225583331e-01,2.31394e-03,9.99999e-01,9.99999e-01,2.31394e-03,9.99999e-01
4.246711247e-01,2.60864e-03,9.99999e-01,9.99999e-01,2.60864e-03,9.99999e-01
4.267944804e-01,2.93390e-03,9.99999e-01,9.99999e-01,2.93390e-03,9.99999e-01
4.289284528e-01,3.29208e-03,9.99999e-01,9.99999e-01,3.29208e-03,9.99999e-01
4.310730950e-01,3.68558e-03,9.99999e-01,9.99999e-01,3.68558e-03,9.99999e-01
4.332284605e-01,4.11693e-03,9.99999e-01,9.99999e-01,4.11693e-03,9.99999e-01
4.353946028e-01,4.58872e-03,9.99999e-01,9.99999e-01,4.58872e-03,9.99999e-01
4.375715758e-01,5.10363e-03,9.99999e-01,9.99999e-01,5.10363e-03,9.99999e-01
4.397594337e-01,5.66440e-03,9.99999e-01,9.99999e-01,5.66440e-03,9.99999e-01
4.419582309e-01,6.27386e-03,9.99999e-01,9.99999e-01,6.27386e-03,9.99999e-01
4.441680220e-01,6.93488e-03,9.99999e-01,9.99999e-01,6.93488e-03,9.99999e-01
4.463888621e-01,7.65040e-03,9.99999e-01,9.99999e-01,7.65040e-03,9.99999e-01
4.486208064e-01,8.42338e-03,9.99999e-01,9.99999e-01,8.42338e-03,9.99999e-01
4.508639105e-01,9.25685e-03,9.99999e-01,9.99999e-01,9.25685e-03,9.99999e-01
4.531182300e-01,1.01538e-02,9.99999e-01,9.99999e-01,1.01538e-02,9.99999e-01
4.553838212e-01,1.11174e-02,9.99999e-01,9.99999e-01,1.11174e-02,9.99999e-01
4.576607403e-01,1.21507e-02,9.99999e-01,9.99999e-01,1.21507e-02,9.99999e-01
4.599490440e-01,1.32567e-02,9.99999e-01,9.99999e-01,1.32567e-02,9.99999e-01
4.622487892e-01,1.44385e-02,9.99999e-01,9.99999e-01,1.44385e-02,9.99999e-01
4.645600332e-01,1.56991e-02,9.99999e-01,9.99999e-01,1.56991e-02,9.99999e-01
4.668828333e-01,1.70416e-02,9.99999e-01,9.99999e-01,1.70416e-02,9.99999e-01
4.692172475e-01,1.84690e-02,9.99999e-01,9.99999e-01,1.84690e-02,9.99999e-01
4.715633337e-01,1.99841e-02,9.99999e-01,9.99999e-01,1.99841e-02,9.99999e-01
4.739211504e-01,2.15899e-02,9.99999e-01,9.99999e-01,2.15899e-02,9.99999e-01
4.762907561e-01,2.32891e-02,9.99999e-01,9.99999e-01,2.32891e-02,9.99999e-01
4.786722099e-01,2.50845e-02,9.99999e-01,9.99999e-01,2.50845e-02,9.99999e-01
4.810655710e-01,2.69788e-02,9.99999e-01,9.99999e-01,2.69788e-02,9.99999e-01
4.834708988e-01,2.89743e-02,9.99999e-01,9.99999e-01,2.89743e-02,9.99999e-01
4.858882533e-01,3.10736e-02,9.99999e-01,9.99999e-01,3.10736e-02,9.99999e-01
4.883176946e-01,3.32791e-02,9.99999e-01,9.99999e-01,3.32791e-02,9.99999e-01
4.907592831e-01,3.55928e-02,9.99999e-01,9.99999e-01,3.55928e-02,9.99999e-01
4.932130795e-01,3.80168e-02,9.99999e-01,9.99999e-01,3.80168e-02,9.99999e-01
4.956791449e-01,4.05532e-02,9.99999e-01,9.99999e-01,4.05532e-02,9.99999e-01
4.981575406e-01,4.32036e-02,9.99999e-01,9.99999e-01,4.32036e-02,9.99999e-01
5.006483283e-01,4.59697e-02,9.99999e-01,9.99999e-01,4.59697e-02,9.99999e-01
5.031515699e-01,4.88530e-02,9.99999e-01,9.99999e-01,4.88530e-02,9.99999e-01
5.056673278e-01,5.18548e-02,9.99999e-01,9.99999e-01,5.18548e-02,9.99999e-01
5.081956644e-01,5.49763e-02,9.99999e-01,9.99999e-01,5.49763e-02,9.99999e-01
5.107366428e-01,5.82183e-02,9.99999e-01,9.99999e-01,5.82183e-02,9.99999e-01
5.132903260e-01,6.15819e-02,9.99999e-01,9.99999e-01,6.15819e-02,9.99999e-01
5.158567776e-01,6.50675e-02,9.99999e-01,9.99999e-01,6.50675e-02,9.99999e-01
5.184360615e-01,6.86757e-02,9.99999e-01,9.99999e-01,6.86757e-02,9.99999e-01
5.210282418e-01,7.24068e-02,9.99999e-01,9.99999e-01,7.24068e-02,9.99999e-01
5.236333830e-01,7.62608e-02,9.99999e-01,9.99999e-01,7.62608e-02,9.99999e-01
5.262515499e-01,8.02377e-02,9.99999e-01,9.99999e-01,8.02377e-02,9.99999e-01
5.288828077e-01,8.43373e-02,9.99999e-01,9.99999e-01,8.43373e-02,9.99999e-01
5.315272217e-01,8.85592e-02,9.99999e-01,9.99999e-01,8.85592e-02,9.99999e-01
5.341848578e-01,9.29027e-02,9.99999e-01,9.99999e-01,9.29027e-02,9.99999e-01
5.368557821e-01,9.73671e-02,9.99999e-01,9.99999e-01,9.73671e-02,9.99999e-01
5.395400610e-01,1.01952e-01,9.99999e-01,9.99999e-01,1.01952e-01,9.99999e-01
5.422377613e-01,1.06655e-01,9.99999e-01,9.99999e-01,1.06655e-01,9.99999e-01
5.449489501e-01,1.11476e-01,9.99999e-01,9.99999e-01,1.11476e-01,9.99999e-01
5.476736949e-01,1.16413e-01,9.99999e-01,9.99999e-01,1.16413e-01,9.99999e-01
5.504120634e-01,1.21465e-01,9.99999e-01,9.99999e-01,1.21465e-01,9.99999e-01
5.531641237e-01,1.26629e-01,9.99999e-01,9.99999e-01,1.26629e-01,9.99999e-01
5.559299443e-01,1.31905e-01,9.99999e-01,9.99999e-01,1.31905e-01,9.99999e-01
5.587095940e-01,1.37290e-01,9.99999e-01,9.99999e-01,1.37290e-01,9.99999e-01
5.615031420e-01,1.42781e-01,9.99999e-01,9.99999e-01,1.42781e-01,9.99999e-01
5.643106577e-01,1.48378e-01,9.99999e-01,9.99999e-01,1.48378e-01,9.99999e-01
5.671322110e-01,1.54077e-01,9.99999e-01,9.99999e-01,1.54077e-01,9.99999e-01
5.699678720e-01,1.59875e-01,9.99999e-01,9.99999e-01,1.59875e-01,9.99999e-01
5.728177114e-01,1.65771e-01,9.99999e-01,9.99999e-01,1.65771e-01,9.99999e-01
5.756818000e-01,1.71761e-01,9.99999e-01,9.99999e-01,1.71761e-01,9.99999e-01
5.785602090e-01,1.77843e-01,9.99999e-01,9.99999e-01,1.77843e-01,9.99999e-01
5.814530100e-01,1.84014e-01,9.99999e-01,9.99999e-01,1.84014e-01,9.99999e-01
5.843602750e-01,1.90271e-01,9.99999e-01,9.99999e-01,1.90271e-01,9.99999e-01
5.872820764e-01,1.96610e-01,9.99999e-01,9.99999e-01,1.96610e-01,9.99999e-01
5.902184868e-01,2.03029e-01,9.99999e-01,9.99999e-01,2.03029e-01,9.99999e-01
5.931695792e-01,2.09525e-01,9.99999e-01,9.99999e-01,2.09525e-01,9.99999e-01
5.961354271e-01,2.16094e-01,9.99999e-01,9.99999e-01,2.16094e-01,9.99999e-01
5.991161043e-01,2.22734e-01,9.99999e-01,9.99999e-01,2.22734e-01,9.99999e-01
6.021116848e-01,2.29440e-01,9.99999e-01,9.99999e-01,2.29440e-01,9.99999e-01
6.051222432e-01,2.36209e-01,9.99999e-01,9.99999e-01,2.36209e-01,9.99999e-01
6.081478544e-01,2.43039e-01,9.99999e-01,9.99999e-01,2.43039e-01,9.99999e-01
6.111885937e-01,2.49925e-01,9.99999e-01,9.99999e-01,2.49925e-01,9.99999e-01
6.142445367e-01,2.56865e-01,9.99999e-01,9.99999e-01,2.56865e-01,9.99999e-01
6.173157594e-01,2.63855e-01,9.99999e-01,9.99999e-01,2.63855e-01,9.99999e-01
6.204023382e-01,2.70891e-01,9.99999e-01,9.99999e-01,2.70891e-01,9.99999e-01
6.235043498e-01,2.77970e-01,9.99999e-01,9.99999e-01,2.77970e-01,9.99999e-01
6.266218716e-01,2.85089e-01,9.99999e-01,9.99999e-01,2.85089e-01,9.99999e-01
6.297549810e-01,2.92244e-01,9.99999e-01,9.99999e-01,2.92244e-01,9.99999e-01
6.329037559e-01,2.99432e-01,9.99999e-01,9.99999e-01,2.99432e-01,9.99999e-01
6.360682746e-01,3.06650e-01,9.99999e-01,9.99999e-01,3.06650e-01,9.99999e-01
6.392486160e-01,3.13894e-01,9.99999e-01,9.99999e-01,3.13894e-01,9.99999e-01
6.424448591e-01,3.21161e-01,9.99999e-01,9.99999e-01,3.21161e-01,9.99999e-01
6.456570834e-01,3.28448e-01,9.99999e-01,9.99999e-01,3.28448e-01,9.99999e-01
6.488853688e-01,3.35751e-01,9.99999e-01,9.99999e-01,3.35751e-01,9.99999e-01
6.521297956e-01,3.43068e-01,9.99999e-01,9.99999e-01,3.43068e-01,9.99999e-01
6.553904446e-01,3.50394e-01,9.99999e-01,9.99999e-01,3.50394e-01,9.99999e-01
6.586673968e-01,3.57728e-01,9.99999e-01,9.99999e-01,3.57728e-01,9.99999e-01
6.619607338e-01,3.65066e-01,9.99999e-01,9.99999e-01,3.65066e-01,9.99999e-01
6.652705375e-01,3.72405e-01,9.99999e-01,9.99999e-01,3.72405e-01,9.99999e-01
6.685968902e-01,3.79743e-01,9.99999e-01,9.99999e-01,3.79743e-01,9.99999e-01
6.719398746e-01,3.87075e-01,9.99999e-01,9.99999e-01,3.87075e-01,9.99999e-01
6.752995740e-01,3.94401e-01,9.99999e-01,9.99999e-01,3.94401e-01,9.99999e-01
6.786760719e-01,4.01716e-01,9.99999e-01,9.99999e-01,4.01716e-01,9.99999e-01
6.820694522e-01,4.09018e-01,9.99999e-01,9.99999e-01,4.09018e-01,9.99999e-01
6.854797995e-01,4.16305e-01,9.99999e-01,9.99999e-01,4.16305e-01,9.99999e-01
6.889071985e-01,4.23574e-01,9.99999e-01,9.99999e-01,4.23574e-01,9.99999e-01
6.923517345e-01,4.30822e-01,9.99999e-01,9.99999e-01,4.30822e-01,9.99999e-01
6.958134932e-01,4.38048e-01,9.99999e-01,9.99999e-01,4.38048e-01,9.99999e-01
6.992925606e-01,4.45248e-01,9.99999e-01,9.99999e-01,4.45248e-01,9.99999e-01
7.027890234e-01,4.52422e-01,9.99999e-01,9.99999e-01,4.52422e-01,9.99999e-01
7.063029686e-01,4.59565e-01,9.99999e-01,9.99999e-01,4.59565e-01,9.99999e-01
7.098344834e-01,4.66677e-01,9.99999e-01,9.99999e-01,4.66677e-01,9.99999e-01
7.133836558e-01,4.73756e-01,9.99999e-01,9.99999e-01,4.73756e-01,9.99999e-01
7.169505741e-01,4.80798e-01,9.99999e-01,9.99999e-01,4.80798e-01,9.99999e-01
7.205353270e-01,4.87804e-01,9.99999e-01,9.99999e-01,4.87804e-01,9.99999e-01
7.241380036e-01,4.94770e-01,9.99999e-01,9.99999e-01,4.94770e-01,9.99999e-01
7.277586936e-01,5.01694e-01,9.99999e-01,9.99999e-01,5.01694e-01,9.99999e-01
7.313974871e-01,5.08577e-01,9.99999e-01,9.99999e-01,5.08577e-01,9.99999e-01
7.350544745e-01,5.15414e-01,9.99999e-01,9.99999e-01,5.15414e-01,9.99999e-01
7.387297469e-01,5.22206e-01,9.99999e-01,9.99999e-01,5.22206e-01,9.99999e-01
7.424233956e-01,5.28951e-01,9.99999e-01,9.99999e-01,5.28951e-01,9.99999e-01
7.461355126e-01,5.35647e-01,9.99999e-01,9.99999e-01,5.35647e-01,9.99999e-01
7.498661902e-01,5.42293e-01,9.99999e-01,9.99999e-01,5.42293e-01,9.99999e-01
7.536155211e-01,5.48888e-01,9.99999e-01,9.99999e-01,5.48888e-01,9.99999e-01
7.573835987e-01,5.55430e-01,9.99999e-01,9.99999e-01,5.55430e-01,9.99999e-01
7.611705167e-01,5.61919e-01,9.99999e-01,9.99999e-01,5.61919e-01,9.99999e-01
7.649763693e-01,5.68353e-01,9.99999e-01,9.99999e-01,5.68353e-01,9.99999e-01
7.688012511e-01,5.74731e-01,9.99999e-01,9.99999e-01,5.74731e-01,9.99999e-01
7.726452574e-01,5.81054e-01,9.99999e-01,9.99999e-01,5.81054e-01,9.99999e-01
7.765084837e-01,5.87318e-01,9.99999e-01,9.99999e-01,5.87318e-01,9.99999e-01
7.803910261e-01,5.78070e-01,9.99999e-01,9.73960e-01,5.93525e-01,9.99999e-01
7.842929812e-01,5.36793e-01,9.99999e-01,8.95143e-01,5.99672e-01,9.99999e-01
7.882144461e-01,5.37573e-01,9.99999e-01,8.87434e-01,6.05760e-01,9.99999e-01
7.921555184e-01,5.70938e-01,9.99999e-01,9.33228e-01,6.11788e-01,9.99999e-01
7.961162960e-01,5.90020e-01,9.99999e-01,9.55103e-01,6.17754e-01,9.99999e-01
8.000968774e-01,6.08306e-01,9.99999e-01,9.75381e-01,6.23660e-01,9.99999e-01
8.040973618e-01,6.21454e-01,9.99999e-01,9.87212e-01,6.29503e-01,9.99999e-01
8.081178486e-01,6.31533e-01,9.99999e-01,9.94094e-01,6.35285e-01,9.99999e-01
8.121584379e-01,6.39840e-01,9.99999e-01,9.98185e-01,6.41003e-01,9.99999e-01
8.162192301e-01,6.46400e-01,9.99999e-01,9.99598e-01,6.46659e-01,9.99999e-01
8.203003262e-01,6.52247e-01,9.99999e-01,9.99993e-01,6.52251e-01,9.99999e-01
8.244018279e-01,6.57780e-01,9.99999e-01,9.99999e-01,6.57780e-01,9.99999e-01
8.285238370e-01,6.63245e-01,9.99999e-01,9.99999e-01,6.63245e-01,9.99999e-01
8.326664562e-01,6.68646e-01,9.99999e-01,9.99999e-01,6.68646e-01,9.99999e-01
8.368297885e-01,6.73983e-01,9.99999e-01,9.99999e-01,6.73983e-01,9.99999e-01
8.410139374e-01,6.79256e-01,9.99999e-01,9.99999e-01,6.79256e-01,9.99999e-01
8.452190071e-01,6.84465e-01,9.99999e-01,9.99999e-01,6.84465e-01,9.99999e-01
8.494451021e-01,6.89610e-01,9.99999e-01,9.99999e-01,6.89610e-01,9.99999e-01
8.536923276e-01,6.94691e-01,9.99999e-01,9.99999e-01,6.94691e-01,9.99999e-01
8.579607893e-01,6.99708e-01,9.99999e-01,9.99999e-01,6.99708e-01,9.99999e-01
8.622505932e-01,7.04660e-01,9.99999e-01,9.99999e-01,7.04660e-01,9.99999e-01
8.665618462e-01,6.65157e-01,9.99999e-01,9.37436e-01,7.09549e-01,9.99999e-01
8.708946554e-01,5.37483e-01,9.99999e-01,7.52382e-01,7.14375e-01,9.99999e-01
8.752491287e-01,5.73018e-01,9.99999e-01,7.96813e-01,7.19137e-01,9.99999e-01
8.796253743e-01,6.39419e-01,9.99999e-01,8.83376e-01,7.23835e-01,9.99999e-01
8.840235012e-01,6.83219e-01,9.99999e-01,9.37880e-01,7.28471e-01,9.99999e-01
8.884436187e-01,7.14829e-01,9.99999e-01,9.75152e-01,7.33044e-01,9.99999e-01
8.928858368e-01,7.30066e-01,9.99999e-01,9.89846e-01,7.37554e-01,9.99999e-01
8.973502660e-01,7.40174e-01,9.99999e-01,9.97535e-01,7.42002e-01,9.99999e-01
9.018370173e-01,7.46186e-01,9.99999e-01,9.99728e-01,7.46389e-01,9.99999e-01
9.063462024e-01,7.45360e-01,9.99999e-01,9.92867e-01,7.50714e-01,9.99999e-01
9.108779334e-01,7.42894e-01,9.99999e-01,9.83994e-01,7.54978e-01,9.99999e-01
9.154323231e-01,7.56333e-01,9.99999e-01,9.96248e-01,7.59181e-01,9.99999e-01
9.200094847e-01,7.21213e-01,9.99999e-01,9.44832e-01,7.63323e-01,9.99999e-01
9.246095321e-01,7.09035e-01,9.99999e-01,9.23936e-01,7.67406e-01,9.99999e-01
9.292325798e-01,7.24602e-01,9.99999e-01,9.39296e-01,7.71430e-01,9.99999e-01
9.338787427e-01,7.30242e-01,9.99999e-01,9.41768e-01,7.75394e-01,9.99999e-01
9.385481364e-01,7.45717e-01,9.99999e-01,9.56905e-01,7.79300e-01,9.99999e-01
9.432408771e-01,7.62367e-01,9.99999e-01,9.73464e-01,7.83148e-01,9.99999e-01
9.479570815e-01,7.76142e-01,9.99999e-01,9.86280e-01,7.86938e-01,9.99999e-01
9.526968669e-01,7.85431e-01,9.99999e-01,9.93371e-01,7.90672e-01,9.99999e-01
9.574603512e-01,7.92095e-01,9.99999e-01,9.97162e-01,7.94348e-01,9.99999e-01
9.622476530e-01,7.97263e-01,9.99999e-01,9.99114e-01,7.97969e-01,9.99999e-01
9.670588912e-01,8.01322e-01,9.99999e-01,9.99734e-01,8.01534e-01,9.99999e-01
9.718941857e-01,8.05029e-01,9.99999e-01,9.99981e-01,8.05044e-01,9.99999e-01
9.767536566e-01,8.08500e-01,9.99999e-01,9.99999e-01,8.08500e-01,9.99999e-01
9.816374249e-01,8.11902e-01,9.99999e-01,9.99999e-01,8.11902e-01,9.99999e-01
9.865456120e-01,8.15251e-01,9.99999e-01,9.99999e-01,8.15251e-01,9.99999e-01
9.914783401e-01,8.18546e-01,9.99999e-01,9.99999e-01,8.18546e-01,9.99999e-01
9.964357318e-01,8.21790e-01,9.99999e-01,9.99999e-01,8.21790e-01,9.99999e-01
1.001417910e+00,8.24982e-01,9.99999e-01,9.99999e-01,8.24982e-01,9.99999e-01
1.006425000e+00,8.28123e-01,9.99999e-01,9.99999e-01,8.28123e-01,9.99999e-01
1.011457125e+00,8.31214e-01,9.99999e-01,9.99999e-01,8.31214e-01,9.99999e-01
1.016514411e+00,8.34255e-01,9.99999e-01,9.99999e-01,8.34255e-01,9.99999e-01
1.021596983e+00,8.37212e-01,9.99999e-01,9.99958e-01,8.37246e-01,9.99999e-01
1.026704968e+00,8.37847e-01,9.99999e-01,9.97211e-01,8.40189e-01,9.99999e-01
1.031838492e+00,8.11320e-01,9.99999e-01,9.62323e-01,8.43084e-01,9.99999e-01
1.036997685e+00,1.70551e-01,9.99999e-01,2.01613e-01,8.45931e-01,9.99999e-01
1.042182673e+00,1.74650e-01,9.99999e-01,2.05778e-01,8.48731e-01,9.99999e-01
1.047393587e+00,1.79706e-01,9.99999e-01,2.11049e-01,8.51485e-01,9.99999e-01
1.052630555e+00,1.17848e-02,9.99999e-01,1.37964e-02,8.54194e-01,9.99999e-01
1.057893707e+00,2.62876e-02,9.99999e-01,3.06790e-02,8.56857e-01,9.99999e-01
1.063183176e+00,6.70318e-02,9.99999e-01,7.79915e-02,8.59476e-01,9.99999e-01
1.068499092e+00,1.50746e-01,9.99999e-01,1.74869e-01,8.62050e-01,9.99999e-01
1.073841587e+00,2.88396e-01,9.99999e-01,3.33567e-01,8.64582e-01,9.99999e-01
1.079210795e+00,4.32971e-01,9.99999e-01,4.99349e-01,8.67070e-01,9.99999e-01
1.084606849e+00,5.94529e-01,9.99999e-01,6.83746e-01,8.69516e-01,9.99999e-01
1.090029883e+00,7.15847e-01,9.99999e-01,8.20999e-01,8.71921e-01,9.99999e-01
1.095480033e+00,7.93443e-01,9.99999e-01,9.07533e-01,8.74285e-01,9.99999e-01
1.100957433e+00,8.36592e-01,9.99999e-01,9.54351e-01,8.76608e-01,9.99999e-01
1.106462220e+00,8.62096e-01,9.99999e-01,9.80890e-01,8.78891e-01,9.99999e-01
1.111994531e+00,8.74858e-01,9.99999e-01,9.92875e-01,8.81135e-01,9.99999e-01
1.117554504e+00,8.81806e-01,9.99999e-01,9.98262e-01,8.83340e-01,9.99999e-01
1.123142276e+00,8.85407e-01,9.99999e-01,9.99886e-01,8.85507e-01,9.99999e-01
1.128757988e+00,8.87637e-01,9.99999e-01,9.99999e-01,8.87637e-01,9.99999e-01
1.134401778e+00,8.89729e-01,9.99999e-01,9.99999e-01,8.89729e-01,9.99999e-01
1.140073787e+00,8.91785e-01,9.99999e-01,9.99999e-01,8.91785e-01,9.99999e-01
1.145774156e+00,8.93804e-01,9.99999e-01,9.99999e-01,8.93804e-01,9.99999e-01
1.151503026e+00,8.95789e-01,9.99999e-01,9.99999e-01,8.95789e-01,9.99999e-01
1.157260541e+00,8.97738e-01,9.99999e-01,9.99999e-01,8.97738e-01,9.99999e-01
1.163046844e+00,8.99653e-01,9.99999e-01,9.99999e-01,8.99653e-01,9.99999e-01
1.168862078e+00,9.01534e-01,9.99999e-01,9.99999e-01,9.01534e-01,9.99999e-01
1.174706389e+00,9.03382e-01,9.99999e-01,9.99999e-01,9.03382e-01,9.99999e-01
1.180579921e+00,9.05197e-01,9.99999e-01,9.99999e-01,9.05197e-01,9.99999e-01
1.186482820e+00,9.06974e-01,9.99999e-01,9.99993e-01,9.06979e-01,9.99999e-01
1.192415234e+00,8.99650e-01,9.99999e-01,9.90007e-01,9.08730e-01,9.99999e-01
1.198377311e+00,5.18397e-01,9.99999e-01,5.69385e-01,9.10450e-01,9.99999e-01
1.204369197e+00,8.35493e-09,9.99999e-01,9.15971e-09,9.12138e-01,9.99999e-01
1.210391043e+00,2.06713e-30,9.99999e-01,2.26213e-30,9.13797e-01,9.99999e-01
1.216442998e+00,1.50998e-26,9.99999e-01,1.64949e-26,9.15425e-01,9.99999e-01
1.222525213e+00,3.58289e-26,9.99999e-01,3.90708e-26,9.17025e-01,9.99999e-01
1.228637839e+00,3.06216e-20,9.99999e-01,3.33352e-20,9.18595e-01,9.99999e-01
1.234781029e+00,1.87580e-13,9.99999e-01,2.03861e-13,9.20137e-01,9.99999e-01
1.240954934e+00,4.17305e-09,9.99999e-01,4.52780e-09,9.21651e-01,9.99999e-01
1.247159708e+00,2.47207e-05,9.99999e-01,2.67790e-05,9.23137e-01,9.99999e-01
1.253395507e+00,2.21639e-03,9.99999e-01,2.39714e-03,9.24597e-01,9.99999e-01
1.259662485e+00,2.94648e-02,9.99999e-01,3.18184e-02,9.26030e-01,9.99999e-01
1.265960797e+00,1.25953e-01,9.99999e-01,1.35808e-01,9.27436e-01,9.99999e-01
1.272290601e+00,4.04164e-01,9.99999e-01,4.35138e-01,9.28817e-01,9.99999e-01
1.278652054e+00,3.47356e-01,9.99999e-01,3.73431e-01,9.30173e-01,9.99999e-01
1.285045314e+00,1.12863e-02,9.99999e-01,1.21162e-02,9.31504e-01,9.99999e-01
1.291470541e+00,2.87104e-04,9.99999e-01,3.07784e-04,9.32810e-01,9.99999e-01
1.297927893e+00,2.35980e-02,9.99999e-01,2.52630e-02,9.34093e-01,9.99999e-01
1.304417533e+00,2.06054e-01,9.99999e-01,2.20296e-01,9.35352e-01,9.99999e-01
1.310939621e+00,3.54982e-02,9.99999e-01,3.79016e-02,9.36587e-01,9.99999e-01
1.317494319e+00,5.69850e-11,9.99999e-01,6.07645e-11,9.37800e-01,9.99999e-01
1.324081790e+00,9.15623e-08,9.99999e-01,9.75114e-08,9.38990e-01,9.99999e-01
1.330702199e+00,1.36197e-04,9.99999e-01,1.44866e-04,9.40158e-01,9.99999e-01
1.337355710e+00,1.28132e-04,9.99999e-01,1.36121e-04,9.41305e-01,9.99999e-01
1.344042489e+00,3.71103e-05,9.99999e-01,3.93772e-05,9.42430e-01,9.99999e-01
1.350762701e+00,9.40226e-05,9.99999e-01,9.96492e-05,9.43535e-01,9.99999e-01
1.357516515e+00,2.39216e-03,9.99999e-01,2.53241e-03,9.44619e-01,9.99999e-01
1.364304097e+00,2.08706e-02,9.99999e-01,2.20693e-02,9.45682e-01,9.99999e-01
1.371125618e+00,1.28262e-01,9.99999e-01,1.35480e-01,9.46726e-01,9.99999e-01
1.377981246e+00,1.87203e-01,9.99999e-01,1.97523e-01,9.47750e-01,9.99999e-01
1.384871152e+00,3.69377e-01,9.99999e-01,3.89328e-01,9.48755e-01,9.99999e-01
1.391795508e+00,3.97411e-01,9.99999e-01,4.18441e-01,9.49742e-01,9.99999e-01
1.398754485e+00,5.55831e-01,9.99999e-01,5.84648e-01,9.50710e-01,9.99999e-01
1.405748258e+00,6.40894e-01,9.99999e-01,6.73448e-01,9.51659e-01,9.99999e-01
1.412776999e+00,7.42326e-01,9.99999e-01,7.79270e-01,9.52591e-01,9.99999e-01
1.419840884e+00,6.72721e-01,9.99999e-01,7.05524e-01,9.53505e-01,9.99999e-01
1.426940089e+00,7.45787e-02,9.99999e-01,7.81417e-02,9.54402e-01,9.99999e-01
1.434074789e+00,0.00000e+00,9.99999e-01,0.00000e+00,9.55283e-01,9.99999e-01
1.441245163e+00,0.00000e+00,9.99999e-01,0.00000e+00,9.56146e-01,9.99999e-01
1.448451389e+00,0.00000e+00,9.99999e-01,0.00000e+00,9.56994e-01,9.99999e-01
1.455693646e+00,6.47209e-240,9.99999e-01,6.75707e-240,9.57825e-01,9.99999e-01
1.462972114e+00,1.47153e-116,9.99999e-01,1.53502e-116,9.58640e-01,9.99999e-01
1.470286975e+00,2.76360e-49,9.99999e-01,2.88042e-49,9.59441e-01,9.99999e-01
