#,Wave/freq,Total,O2,CO2,Rayleigh,CIA
4.000000000e-01,1.07037e-06,9.99999e-01,9.99999e-01,1.07037e-06,9.99999e-01
4.020000000e-01,1.40471e-06,9.99999e-01,9.99999e-01,1.40471e-06,9.99999e-01
4.040100000e-01,1.83310e-06,9.99999e-01,9.99999e-01,1.83310e-06,9.99999e-01
4.060300500e-01,2.37959e-06,9.99999e-01,9.99999e-01,2.37959e-06,9.99999e-01
4.080602003e-01,3.07312e-06,9.99999e-01,9.99999e-01,3.07312e-06,9.99999e-01
4.101005013e-01,3.94879e-06,9.99999e-01,9.99999e-01,3.94879e-06,9.99999e-01
4.121510038e-01,5.04890e-06,9.99999e-01,9.99999e-01,5.04890e-06,9.99999e-01
4.142117588e-01,6.42424e-06,9.99999e-01,9.99999e-01,6.42424e-06,9.99999e-01
4.162828176e-01,8.13543e-06,9.99999e-01,9.99999e-01,8.13543e-06,9.99999e-01
4.183642317e-01,1.02545e-05,9.99999e-01,9.99999e-01,1.02545e-05,9.99999e-01
4.204560528e-01,1.28665e-05,9.99999e-01,9.99999e-01,1.28665e-05,9.99999e-01
4.225583331e-01,1.60716e-05,9.99999e-01,9.99999e-01,1.60716e-05,9.99999e-01
4.246711247e-01,1.99872e-05,9.99999e-01,9.99999e-01,1.99872e-05,9.99999e-01
4.267944804e-01,2.47499e-05,9.99999e-01,9.99999e-01,2.47499e-05,9.99999e-01
4.289284528e-01,3.05184e-05,9.99999e-01,9.99999e-01,3.05184e-05,9.99999e-01
4.310730950e-01,3.74760e-05,9.99999e-01,9.99999e-01,3.74760e-05,9.99999e-01
4.332284605e-01,4.58335e-05,9.99999e-01,9.99999e-01,4.58335e-05,9.99999e-01
4.353946028e-01,5.58322e-05,9.99999e-01,9.99999e-01,5.58322e-05,9.99999e-01
4.375715758e-01,6.77477e-05,9.99999e-01,9.99999e-01,6.77477e-05,9.99999e-01
4.397594337e-01,8.18926e-05,9.99999e-01,9.99999e-01,8.18926e-05,9.99999e-01
4.419582309e-01,9.86207e-05,9.99999e-01,9.99999e-01,9.86207e-05,9.99999e-01
4.441680220e-01,1.18331e-04,9.99999e-01,9.99999e-01,1.18331e-04,9.99999e-01
4.463888621e-01,1.41470e-04,9.99999e-01,9.99999e-01,1.41470e-04,9.99999e-01
4.486208064e-01,1.68538e-04,9.99999e-01,9.99999e-01,1.68538e-04,9.99999e-01
4.508639105e-01,2.00092e-04,9.99999e-01,9.99999e-01,2.00092e-04,9.99999e-01
4.531182300e-01,2.36750e-04,9.99999e-01,9.99999e-01,2.36750e-04,9.99999e-01
4.553838212e-01,2.79194e-04,9.99999e-01,9.99999e-01,2.79194e-04,9.99999e-01
4.576607403e-01,3.28177e-04,9.99999e-01,9.99999e-01,3.28177e-04,9.99999e-01
4.599490440e-01,3.84524e-04,9.99999e-01,9.99999e-01,3.84524e-04,9.99999e-01
4.622487892e-01,4.49138e-04,9.99999e-01,9.99999e-01,4.49138e-04,9.99999e-01
4.645600332e-01,5.23002e-04,9.99999e-01,9.99999e-01,5.23002e-04,9.99999e-01
4.668828333e-01,6.07185e-04,9.99999e-01,9.99999e-01,6.07185e-04,9.99999e-01
4.692172475e-01,7.02844e-04,9.99999e-01,9.99999e-01,7.02844e-04,9.99999e-01
4.715633337e-01,8.11224e-04,9.99999e-01,9.99999e-01,8.11224e-04,9.99999e-01
4.739211504e-01,9.33670e-04,9.99999e-01,9.99999e-01,9.33670e-04,9.99999e-01
4.762907561e-01,1.07162e-03,9.99999e-01,9.99999e-01,1.07162e-03,9.99999e-01
4.786722099e-01,1.22660e-03,9.99999e-01,9.99999e-01,1.22660e-03,9.99999e-01
4.810655710e-01,1.40026e-03,9.99999e-01,9.99999e-01,1.40026e-03,9.99999e-01
4.834708988e-01,1.59433e-03,9.99999e-01,9.99999e-01,1.59433e-03,9.99999e-01
4.858882533e-01,1.81065e-03,9.99999e-01,9.99999e-01,1.81065e-03,9.99999e-01
4.883176946e-01,2.05116e-03,9.99999e-01,9.99999e-01,2.05116e-03,9.99999e-01
4.907592831e-01,2.31789e-03,9.99999e-01,9.99999e-01,2.31789e-03,9.99999e-01
4.932130795e-01,2.61300e-03,9.99999e-01,9.99999e-01,2.61300e-03,9.99999e-01
4.956791449e-01,2.93871e-03,9.99999e-01,9.99999e-01,2.93871e-03,9.99999e-01
4.981575406e-01,3.29737e-03,9.99999e-01,9.99999e-01,3.29737e-03,9.99999e-01
5.006483283e-01,3.69139e-03,9.99999e-01,9.99999e-01,3.69139e-03,9.99999e-01
5.031515699e-01,4.12329e-03,9.99999e-01,9.99999e-01,4.12329e-03,9.99999e-01
5.056673278e-01,4.59567e-03,9.99999e-01,9.99999e-01,4.59567e-03,9.99999e-01
5.081956644e-01,5.11120e-03,9.99999e-01,9.99999e-01,5.11120e-03,9.99999e-01
5.107366428e-01,5.67264e-03,9.99999e-01,9.99999e-01,5.67264e-03,9.99999e-01
5.132903260e-01,6.28281e-03,9.99999e-01,9.99999e-01,6.28281e-03,9.99999e-01
5.158567776e-01,6.94457e-03,9.99999e-01,9.99999e-01,6.94457e-03,9.99999e-01
5.184360615e-01,7.66088e-03,9.99999e-01,9.99999e-01,7.66088e-03,9.99999e-01
5.210282418e-01,8.43469e-03,9.99999e-01,9.99999e-01,8.43469e-03,9.99999e-01
5.236333830e-01,9.26903e-03,9.99999e-01,9.99999e-01,9.26903e-03,9.99999e-01
5.262515499e-01,1.01669e-02,9.99999e-01,9.99999e-01,1.01669e-02,9.99999e-01
5.288828077e-01,1.11315e-02,9.99999e-01,9.99999e-01,1.11315e-02,9.99999e-01
5.315272217e-01,1.21657e-02,9.99999e-01,9.99999e-01,1.21657e-02,9.99999e-01
5.341848578e-01,1.32728e-02,9.99999e-01,9.99999e-01,1.32728e-02,9.99999e-01
5.368557821e-01,1.44557e-02,9.99999e-01,9.99999e-01,1.44557e-02,9.99999e-01
5.395400610e-01,1.57174e-02,9.99999e-01,9.99999e-01,1.57174e-02,9.99999e-01
5.422377613e-01,1.70611e-02,9.99999e-01,9.99999e-01,1.70611e-02,9.99999e-01
5.449489501e-01,1.84897e-02,9.99999e-01,9.99999e-01,1.84897e-02,9.99999e-01
5.476736949e-01,2.00061e-02,9.99999e-01,9.99999e-01,2.00061e-02,9.99999e-01
5.504120634e-01,2.16132e-02,9.99999e-01,9.99999e-01,2.16132e-02,9.99999e-01
5.531641237e-01,2.33138e-02,9.99999e-01,9.99999e-01,2.33138e-02,9.99999e-01
5.559299443e-01,2.51105e-02,9.99999e-01,9.99999e-01,2.51105e-02,9.99999e-01
5.587095940e-01,2.70062e-02,9.99999e-01,9.99999e-01,2.70062e-02,9.99999e-01
5.615031420e-01,2.90032e-02,9.99999e-01,9.99999e-01,2.90032e-02,9.99999e-01
5.643106577e-01,3.11040e-02,9.99999e-01,9.99999e-01,3.11040e-02,9.99999e-01
5.671322110e-01,3.33109e-02,9.99999e-01,9.99999e-01,3.33109e-02,9.99999e-01
5.699678720e-01,3.56262e-02,9.99999e-01,9.99999e-01,3.56262e-02,9.99999e-01
5.728177114e-01,3.80518e-02,9.99999e-01,9.99999e-01,3.80518e-02,9.99999e-01
5.756818000e-01,4.05897e-02,9.99999e-01,9.99999e-01,4.05897e-02,9.99999e-01
5.785602090e-01,4.32418e-02,9.99999e-01,9.99999e-01,4.32418e-02,9.99999e-01
5.814530100e-01,4.60095e-02,9.99999e-01,9.99999e-01,4.60095e-02,9.99999e-01
5.843602750e-01,4.88945e-02,9.99999e-01,9.99999e-01,4.88945e-02,9.99999e-01
5.872820764e-01,5.18979e-02,9.99999e-01,9.99999e-01,5.18979e-02,9.99999e-01
5.902184868e-01,5.50211e-02,9.99999e-01,9.99999e-01,5.50211e-02,9.99999e-01
5.931695792e-01,5.82649e-02,9.99999e-01,9.99999e-01,5.82649e-02,9.99999e-01
5.961354271e-01,6.16301e-02,9.99999e-01,9.99999e-01,6.16301e-02,9.99999e-01
5.991161043e-01,6.51175e-02,9.99999e-01,9.99999e-01,6.51175e-02,9.99999e-01
6.021116848e-01,6.87274e-02,9.99999e-01,9.99999e-01,6.87274e-02,9.99999e-01
6.051222432e-01,7.24602e-02,9.99999e-01,9.99999e-01,7.24602e-02,9.99999e-01
6.081478544e-01,7.63160e-02,9.99999e-01,9.99999e-01,7.63160e-02,9.99999e-01
6.111885937e-01,8.02946e-02,9.99999e-01,9.99999e-01,8.02946e-02,9.99999e-01
6.142445367e-01,8.43960e-02,9.99999e-01,9.99999e-01,8.43960e-02,9.99999e-01
6.173157594e-01,8.86195e-02,9.99999e-01,9.99999e-01,8.86195e-02,9.99999e-01
6.204023382e-01,9.29648e-02,9.99999e-01,9.99999e-01,9.29648e-02,9.99999e-01
6.235043498e-01,9.74309e-02,9.99999e-01,9.99999e-01,9.74309e-02,9.99999e-01
6.266218716e-01,1.02017e-01,9.99999e-01,9.99999e-01,1.02017e-01,9.99999e-01
6.297549810e-01,1.06722e-01,9.99999e-01,9.99999e-01,1.06722e-01,9.99999e-01
6.329037559e-01,1.11544e-01,9.99999e-01,9.99999e-01,1.11544e-01,9.99999e-01
6.360682746e-01,1.16483e-01,9.99999e-01,9.99999e-01,1.16483e-01,9.99999e-01
6.392486160e-01,1.21537e-01,9.99999e-01,9.99999e-01,1.21537e-01,9.99999e-01
6.424448591e-01,1.26703e-01,9.99999e-01,9.99999e-01,1.26703e-01,9.99999e-01
6.456570834e-01,1.31980e-01,9.99999e-01,9.99999e-01,1.31980e-01,9.99999e-01
6.488853688e-01,1.37366e-01,9.99999e-01,9.99999e-01,1.37366e-01,9.99999e-01
6.521297956e-01,1.42860e-01,9.99999e-01,9.99999e-01,1.42860e-01,9.99999e-01
6.553904446e-01,1.48457e-01,9.99999e-01,9.99999e-01,1.48457e-01,9.99999e-01
6.586673968e-01,1.54158e-01,9.99999e-01,9.99999e-01,1.54158e-01,9.99999e-01
6.619607338e-01,1.59957e-01,9.99999e-01,9.99999e-01,1.59957e-01,9.99999e-01
6.652705375e-01,1.65855e-01,9.99999e-01,9.99999e-01,1.65855e-01,9.99999e-01
6.685968902e-01,1.71846e-01,9.99999e-01,9.99999e-01,1.71846e-01,9.99999e-01
6.719398746e-01,1.77929e-01,9.99999e-01,9.99999e-01,1.77929e-01,9.99999e-01
6.752995740e-01,1.84101e-01,9.99999e-01,9.99999e-01,1.84101e-01,9.99999e-01
6.786760719e-01,1.90359e-01,9.99999e-01,9.99999e-01,1.90359e-01,9.99999e-01
6.820694522e-01,1.96700e-01,9.99999e-01,9.99999e-01,1.96700e-01,9.99999e-01
6.854797995e-01,2.03120e-01,9.99999e-01,9.99999e-01,2.03120e-01,9.99999e-01
6.889071985e-01,2.09617e-01,9.99999e-01,9.99999e-01,2.09617e-01,9.99999e-01
6.923517345e-01,2.16187e-01,9.99999e-01,9.99999e-01,2.16187e-01,9.99999e-01
6.958134932e-01,2.22828e-01,9.99999e-01,9.99999e-01,2.22828e-01,9.99999e-01
6.992925606e-01,2.29535e-01,9.99999e-01,9.99999e-01,2.29535e-01,9.99999e-01
7.027890234e-01,2.36305e-01,9.99999e-01,9.99999e-01,2.36305e-01,9.99999e-01
7.063029686e-01,2.43136e-01,9.99999e-01,9.99999e-01,2.43136e-01,9.99999e-01
7.098344834e-01,2.50023e-01,9.99999e-01,9.99999e-01,2.50023e-01,9.99999e-01
7.133836558e-01,2.56963e-01,9.99999e-01,9.99999e-01,2.56963e-01,9.99999e-01
7.169505741e-01,2.63954e-01,9.99999e-01,9.99999e-01,2.63954e-01,9.99999e-01
7.205353270e-01,2.70990e-01,9.99999e-01,9.99999e-01,2.70990e-01,9.99999e-01
7.241380036e-01,2.78070e-01,9.99999e-01,9.99999e-01,2.78070e-01,9.99999e-01
7.277586936e-01,2.85190e-01,9.99999e-01,9.99999e-01,2.85190e-01,9.99999e-01
7.313974871e-01,2.92345e-01,9.99999e-01,9.99999e-01,2.92345e-01,9.99999e-01
7.350544745e-01,2.99534e-01,9.99999e-01,9.99999e-01,2.99534e-01,9.99999e-01
7.387297469e-01,3.06752e-01,9.99999e-01,9.99999e-01,3.06752e-01,9.99999e-01
7.424233956e-01,3.13996e-01,9.99999e-01,9.99999e-01,3.13996e-01,9.99999e-01
7.461355126e-01,3.21264e-01,9.99999e-01,9.99999e-01,3.21264e-01,9.99999e-01
7.498661902e-01,3.28551e-01,9.99999e-01,9.99999e-01,3.28551e-01,9.99999e-01
7.536155211e-01,3.35854e-01,9.99999e-01,9.99999e-01,3.35854e-01,9.99999e-01
7.573835987e-01,3.43171e-01,9.99999e-01,9.99999e-01,3.43171e-01,9.99999e-01
7.611705167e-01,3.50498e-01,9.99999e-01,9.99999e-01,3.50498e-01,9.99999e-01
7.649763693e-01,3.57832e-01,9.99999e-01,9.99999e-01,3.57832e-01,9.99999e-01
7.688012511e-01,3.65170e-01,9.99999e-01,9.99999e-01,3.65170e-01,9.99999e-01
7.726452574e-01,3.72509e-01,9.99999e-01,9.99999e-01,3.72509e-01,9.99999e-01
7.765084837e-01,3.79846e-01,9.99999e-01,9.99999e-01,3.79846e-01,9.99999e-01
7.803910261e-01,3.70372e-01,9.99999e-01,9.56591e-01,3.87179e-01,9.99999e-01
7.842929812e-01,3.23500e-01,9.99999e-01,8.20017e-01,3.94504e-01,9.99999e-01
7.882144461e-01,3.24996e-01,9.99999e-01,8.08811e-01,4.01819e-01,9.99999e-01
7.921555184e-01,3.61085e-01,9.99999e-01,8.82586e-01,4.09121e-01,9.99999e-01
7.961162960e-01,3.82977e-01,9.99999e-01,9.19717e-01,4.16407e-01,9.99999e-01
8.000968774e-01,4.04879e-01,9.99999e-01,9.55633e-01,4.23676e-01,9.99999e-01
8.040973618e-01,4.20916e-01,9.99999e-01,9.76774e-01,4.30924e-01,9.99999e-01
8.081178486e-01,4.33446e-01,9.99999e-01,9.89264e-01,4.38149e-01,9.99999e-01
8.121584379e-01,4.43870e-01,9.99999e-01,9.96676e-01,4.45350e-01,9.99999e-01
8.162192301e-01,4.52190e-01,9.99999e-01,9.99265e-01,4.52522e-01,9.99999e-01
8.203003262e-01,4.59661e-01,9.99999e-01,9.99988e-01,4.59666e-01,9.99999e-01
8.244018279e-01,4.66777e-01,9.99999e-01,9.99999e-01,4.66777e-01,9.99999e-01
8.285238370e-01,4.73855e-01,9.99999e-01,9.99999e-01,4.73855e-01,9.99999e-01
8.326664562e-01,4.80897e-01,9.99999e-01,9.99999e-01,4.80897e-01,9.99999e-01
8.368297885e-01,4.87902e-01,9.99999e-01,9.99999e-01,4.87902e-01,9.99999e-01
8.410139374e-01,4.94867e-01,9.99999e-01,9.99999e-01,4.94867e-01,9.99999e-01
8.452190071e-01,5.01792e-01,9.99999e-01,9.99999e-01,5.01792e-01,9.99999e-01
8.494451021e-01,5.08673e-01,9.99999e-01,9.99999e-01,5.08673e-01,9.99999e-01
8.536923276e-01,5.15510e-01,9.99999e-01,9.99999e-01,5.15510e-01,9.99999e-01
8.579607893e-01,5.22302e-01,9.99999e-01,9.99999e-01,5.22302e-01,9.99999e-01
8.622505932e-01,5.29046e-01,9.99999e-01,9.99999e-01,5.29046e-01,9.99999e-01
8.665618462e-01,4.88651e-01,9.99999e-01,9.12102e-01,5.35741e-01,9.99999e-01
8.708946554e-01,3.28707e-01,9.99999e-01,6.06038e-01,5.42386e-01,9.99999e-01
8.752491287e-01,3.65819e-01,9.99999e-01,6.66359e-01,5.48980e-01,9.99999e-01
8.796253743e-01,4.43959e-01,9.99999e-01,7.99174e-01,5.55522e-01,9.99999e-01
8.840235012e-01,5.00152e-01,9.99999e-01,8.89933e-01,5.62010e-01,9.99999e-01
8.884436187e-01,5.42901e-01,9.99999e-01,9.55065e-01,5.68443e-01,9.99999e-01
8.928858368e-01,5.64211e-01,9.99999e-01,9.81541e-01,5.74821e-01,9.99999e-01
8.973502660e-01,5.78522e-01,9.99999e-01,9.95490e-01,5.81142e-01,9.99999e-01
9.018370173e-01,5.87114e-01,9.99999e-01,9.99502e-01,5.87406e-01,9.99999e-01
9.063462024e-01,5.86059e-01,9.99999e-01,9.87276e-01,5.93612e-01,9.99999e-01
9.108779334e-01,5.82387e-01,9.99999e-01,9.71035e-01,5.99758e-01,9.99999e-01
9.154323231e-01,6.01686e-01,9.99999e-01,9.93134e-01,6.05845e-01,9.99999e-01
9.200094847e-01,5.54553e-01,9.99999e-01,9.06321e-01,6.11872e-01,9.99999e-01
9.246095321e-01,5.35112e-01,9.99999e-01,8.66104e-01,6.17838e-01,9.99999e-01
9.292325798e-01,5.57402e-01,9.99999e-01,8.93641e-01,6.23743e-01,9.99999e-01
9.338787427e-01,5.64685e-01,9.99999e-01,8.96916e-01,6.29585e-01,9.99999e-01
9.385481364e-01,5.86483e-01,9.99999e-01,9.23063e-01,6.35366e-01,9.99999e-01
9.432408771e-01,6.10408e-01,9.99999e-01,9.52150e-01,6.41083e-01,9.99999e-01
9.479570815e-01,6.30667e-01,9.99999e-01,9.75150e-01,6.46738e-01,9.99999e-01
9.526968669e-01,6.44467e-01,9.99999e-01,9.87947e-01,6.52329e-01,9.99999e-01
9.574603512e-01,6.54456e-01,9.99999e-01,9.94829e-01,6.57857e-01,9.99999e-01
9.622476530e-01,6.62250e-01,9.99999e-01,9.98384e-01,6.63321e-01,9.99999e-01
9.670588912e-01,6.68398e-01,9.99999e-01,9.99515e-01,6.68722e-01,9.99999e-01
9.718941857e-01,6.74035e-01,9.99999e-01,9.99965e-01,6.74058e-01,9.99999e-01
9.767536566e-01,6.79330e-01,9.99999e-01,9.99999e-01,6.79330e-01,9.99999e-01
9.816374249e-01,6.84538e-01,9.99999e-01,9.99999e-01,6.84538e-01,9.99999e-01
9.865456120e-01,6.89682e-01,9.99999e-01,9.99999e-01,6.89682e-01,9.99999e-01
9.914783401e-01,6.94762e-01,9.99999e-01,9.99999e-01,6.94762e-01,9.99999e-01
9.964357318e-01,6.99778e-01,9.99999e-01,9.99999e-01,6.99778e-01,9.99999e-01
1.001417910e+00,7.04730e-01,9.99999e-01,9.99999e-01,7.04730e-01,9.99999e-01
1.006425000e+00,7.09618e-01,9.99999e-01,9.99999e-01,7.09618e-01,9.99999e-01
1.011457125e+00,7.14442e-01,9.99999e-01,9.99999e-01,7.14442e-01,9.99999e-01
1.016514411e+00,7.19203e-01,9.99999e-01,9.99999e-01,7.19203e-01,9.99999e-01
1.021596983e+00,7.23852e-01,9.99999e-01,9.99931e-01,7.23901e-01,9.99999e-01
1.026704968e+00,7.24901e-01,9.99999e-01,9.95011e-01,7.28536e-01,9.99999e-01
1.031838492e+00,6.93432e-01,9.99999e-01,9.45879e-01,7.33108e-01,9.99999e-01
1.036997685e+00,8.67452e-02,9.99999e-01,1.17602e-01,7.37617e-01,9.99999e-01
1.042182673e+00,4.79255e-02,9.99999e-01,6.45839e-02,7.42065e-01,9.99999e-01
1.047393587e+00,6.64640e-02,9.99999e-01,8.90400e-02,7.46450e-01,9.99999e-01
1.052630555e+00,7.10961e-04,9.99999e-01,9.46970e-04,7.50774e-01,9.99999e-01
1.057893707e+00,2.08628e-03,9.99999e-01,2.76315e-03,7.55037e-01,9.99999e-01
1.063183176e+00,9.58259e-03,9.99999e-01,1.26213e-02,7.59239e-01,9.99999e-01
1.068499092e+00,3.44604e-02,9.99999e-01,4.51418e-02,7.63381e-01,9.99999e-01
1.073841587e+00,1.07807e-01,9.99999e-01,1.40472e-01,7.67463e-01,9.99999e-01
1.079210795e+00,2.22547e-01,9.99999e-01,2.88465e-01,7.71486e-01,9.99999e-01
1.084606849e+00,3.89735e-01,9.99999e-01,5.02592e-01,7.75450e-01,9.99999e-01
1.090029883e+00,5.44917e-01,9.99999e-01,6.99189e-01,7.79355e-01,9.99999e-01
1.095480033e+00,6.56547e-01,9.99999e-01,8.38285e-01,7.83202e-01,9.99999e-01
1.100957433e+00,7.22820e-01,9.99999e-01,9.18459e-01,7.86991e-01,9.99999e-01
1.106462220e+00,7.63394e-01,9.99999e-01,9.65436e-01,7.90724e-01,9.99999e-01
1.111994531e+00,7.84109e-01,9.99999e-01,9.87045e-01,7.94400e-01,9.99999e-01
1.117554504e+00,7.95486e-01,9.99999e-01,9.96824e-01,7.98019e-01,9.99999e-01
1.123142276e+00,8.01417e-01,9.99999e-01,9.99791e-01,8.01584e-01,9.99999e-01
1.128757988e+00,8.05093e-01,9.99999e-01,9.99999e-01,8.05093e-01,9.99999e-01
1.134401778e+00,8.08548e-01,9.99999e-01,9.99999e-01,8.08548e-01,9.99999e-01
1.140073787e+00,8.11949e-01,9.99999e-01,9.99999e-01,8.11949e-01,9.99999e-01
1.145774156e+00,8.15297e-01,9.99999e-01,9.99999e-01,8.15297e-01,9.99999e-01
1.151503026e+00,8.18592e-01,9.99999e-01,9.99999e-01,8.18592e-01,9.99999e-01
1.157260541e+00,8.21835e-01,9.99999e-01,9.99999e-01,8.21835e-01,9.99999e-01
1.163046844e+00,8.25027e-01,9.99999e-01,9.99999e-01,8.25027e-01,9.99999e-01
1.168862078e+00,8.28167e-01,9.99999e-01,9.99999e-01,8.28167e-01,9.99999e-01
1.174706389e+00,8.31257e-01,9.99999e-01,9.99999e-01,8.31257e-01,9.99999e-01
1.180579921e+00,8.34297e-01,9.99999e-01,9.99999e-01,8.34297e-01,9.99999e-01
1.186482820e+00,8.37280e-01,9.99999e-01,9.99990e-01,8.37288e-01,9.99999e-01
1.192415234e+00,8.25430e-01,9.99999e-01,9.82384e-01,8.40230e-01,9.99999e-01
1.198377311e+00,4.66682e-01,9.99999e-01,5.53515e-01,8.43124e-01,9.99999e-01
1.204369197e+00,3.59598e-14,9.99999e-01,4.25071e-14,8.45971e-01,9.99999e-01
1.210391043e+00,1.82627e-53,9.99999e-01,2.15166e-53,8.48771e-01,9.99999e-01
1.216442998e+00,1.93954e-46,9.99999e-01,2.27773e-46,8.51524e-01,9.99999e-01
1.222525213e+00,9.24281e-46,9.99999e-01,1.08200e-45,8.54232e-01,9.99999e-01
1.228637839e+00,1.92932e-35,9.99999e-01,2.25153e-35,8.56894e-01,9.99999e-01
1.234781029e+00,1.25350e-22,9.99999e-01,1.45839e-22,8.59512e-01,9.99999e-01
1.240954934e+00,3.22092e-15,9.99999e-01,3.73619e-15,8.62086e-01,9.99999e-01
1.247159708e+00,4.25496e-08,9.99999e-01,4.92120e-08,8.64617e-01,9.99999e-01
1.253395507e+00,2.50115e-05,9.99999e-01,2.88448e-05,8.67105e-01,9.99999e-01
1.259662485e+00,2.15219e-03,9.99999e-01,2.47506e-03,8.69551e-01,9.99999e-01
1.265960797e+00,2.77145e-02,9.99999e-01,3.17843e-02,8.71955e-01,9.99999e-01
1.272290601e+00,1.97174e-01,9.99999e-01,2.25517e-01,8.74318e-01,9.99999e-01
1.278652054e+00,1.67762e-01,9.99999e-01,1.91370e-01,8.76640e-01,9.99999e-01
1.285045314e+00,2.00284e-03,9.99999e-01,2.27875e-03,8.78923e-01,9.99999e-01
1.291470541e+00,6.62352e-07,9.99999e-01,7.51675e-07,8.81166e-01,9.99999e-01
1.297927893e+00,1.25492e-03,9.99999e-01,1.42060e-03,8.83371e-01,9.99999e-01
1.304417533e+00,5.84295e-02,9.99999e-01,6.59819e-02,8.85538e-01,9.99999e-01
1.310939621e+00,1.37056e-02,9.99999e-01,1.54400e-02,8.87666e-01,9.99999e-01
1.317494319e+00,8.86976e-19,9.99999e-01,9.96873e-19,8.89758e-01,9.99999e-01
1.324081790e+00,9.01146e-13,9.99999e-01,1.01046e-12,8.91813e-01,9.99999e-01
1.330702199e+00,1.45139e-07,9.99999e-01,1.62378e-07,8.93833e-01,9.99999e-01
1.337355710e+00,2.94072e-07,9.99999e-01,3.28273e-07,8.95816e-01,9.99999e-01
1.344042489e+00,9.86524e-08,9.99999e-01,1.09887e-07,8.97765e-01,9.99999e-01
1.350762701e+00,8.46728e-08,9.99999e-01,9.41143e-08,8.99680e-01,9.99999e-01
1.357516515e+00,3.39992e-05,9.99999e-01,3.77115e-05,9.01560e-01,9.99999e-01
1.364304097e+00,1.00535e-03,9.99999e-01,1.11285e-03,9.03408e-01,9.99999e-01
1.371125618e+00,2.67913e-02,9.99999e-01,2.95964e-02,9.05222e-01,9.99999e-01
1.377981246e+00,4.83967e-02,9.99999e-01,5.33588e-02,9.07004e-01,9.99999e-01
1.384871152e+00,1.65134e-01,9.99999e-01,1.81714e-01,9.08755e-01,9.99999e-01
1.391795508e+00,1.88320e-01,9.99999e-01,2.06837e-01,9.10474e-01,9.99999e-01
1.398754485e+00,3.43702e-01,9.99999e-01,3.76799e-01,9.12162e-01,9.99999e-01
1.405748258e+00,4.46132e-01,9.99999e-01,4.88205e-01,9.13820e-01,9.99999e-01
1.412776999e+00,5.81595e-01,9.99999e-01,6.35311e-01,9.15448e-01,9.99999e-01
1.419840884e+00,5.20966e-01,9.99999e-01,5.68091e-01,9.17047e-01,9.99999e-01
1.426940089e+00,3.88693e-02,9.99999e-01,4.23129e-02,9.18617e-01,9.99999e-01
1.434074789e+00,0.00000e+00,9.99999e-01,0.00000e+00,9.20158e-01,9.99999e-01
1.441245163e+00,0.00000e+00,9.99999e-01,0.00000e+00,9.21672e-01,9.99999e-01
1.448451389e+00,0.00000e+00,9.99999e-01,0.00000e+00,9.23158e-01,9.99999e-01
1.455693646e+00,0.00000e+00,9.99999e-01,0.00000e+00,9.24617e-01,9.99999e-01
1.462972114e+00,3.94097e-210,9.99999e-01,4.25567e-210,9.26050e-01,9.99999e-01
1.470286975e+00,8.67944e-88,9.99999e-01,9.35832e-88,9.27456e-01,9.99999e-01
