#,Wave/freq,Total,O2,CO2,Rayleigh,CIA
4.000000000e-01,3.17438e-17,9.99999e-01,9.99999e-01,3.17438e-17,9.99999e-01
4.020000000e-01,6.72778e-17,9.99999e-01,9.99999e-01,6.72778e-17,9.99999e-01
4.040100000e-01,1.40382e-16,9.99999e-01,9.99999e-01,1.40382e-16,9.99999e-01
4.060300500e-01,2.88696e-16,9.99999e-01,9.99999e-01,2.88696e-16,9.99999e-01
4.080602003e-01,5.85310e-16,9.99999e-01,9.99999e-01,5.85310e-16,9.99999e-01
4.101005013e-01,1.17022e-15,9.99999e-01,9.99999e-01,1.17022e-15,9.99999e-01
4.121510038e-01,2.30785e-15,9.99999e-01,9.99999e-01,2.30785e-15,9.99999e-01
4.142117588e-01,4.49076e-15,9.99999e-01,9.99999e-01,4.49076e-15,9.99999e-01
4.162828176e-01,8.62426e-15,9.99999e-01,9.99999e-01,8.62426e-15,9.99999e-01
4.183642317e-01,1.63503e-14,9.99999e-01,9.99999e-01,1.63503e-14,9.99999e-01
4.204560528e-01,3.06086e-14,9.99999e-01,9.99999e-01,3.06086e-14,9.99999e-01
4.225583331e-01,5.65954e-14,9.99999e-01,9.99999e-01,5.65954e-14,9.99999e-01
4.246711247e-01,1.03382e-13,9.99999e-01,9.99999e-01,1.03382e-13,9.99999e-01
4.267944804e-01,1.86614e-13,9.99999e-01,9.99999e-01,1.86614e-13,9.99999e-01
4.289284528e-01,3.32946e-13,9.99999e-01,9.99999e-01,3.32946e-13,9.99999e-01
4.310730950e-01,5.87270e-13,9.99999e-01,9.99999e-01,5.87270e-13,9.99999e-01
4.332284605e-01,1.02432e-12,9.99999e-01,9.99999e-01,1.02432e-12,9.99999e-01
4.353946028e-01,1.76708e-12,9.99999e-01,9.99999e-01,1.76708e-12,9.99999e-01
4.375715758e-01,3.01580e-12,9.99999e-01,9.99999e-01,3.01580e-12,9.99999e-01
4.397594337e-01,5.09288e-12,9.99999e-01,9.99999e-01,5.09288e-12,9.99999e-01
4.419582309e-01,8.51195e-12,9.99999e-01,9.99999e-01,8.51195e-12,9.99999e-01
4.441680220e-01,1.40828e-11,9.99999e-01,9.99999e-01,1.40828e-11,9.99999e-01
4.463888621e-01,2.30690e-11,9.99999e-01,9.99999e-01,2.30690e-11,9.99999e-01
4.486208064e-01,3.74227e-11,9.99999e-01,9.99999e-01,3.74227e-11,9.99999e-01
4.508639105e-01,6.01300e-11,9.99999e-01,9.99999e-01,6.01300e-11,9.99999e-01
4.531182300e-01,9.57150e-11,9.99999e-01,9.99999e-01,9.57150e-11,9.99999e-01
4.553838212e-01,1.50966e-10,9.99999e-01,9.99999e-01,1.50966e-10,9.99999e-01
4.576607403e-01,2.35978e-10,9.99999e-01,9.99999e-01,2.35978e-10,9.99999e-01
4.599490440e-01,3.65621e-10,9.99999e-01,9.99999e-01,3.65621e-10,9.99999e-01
4.622487892e-01,5.61610e-10,9.99999e-01,9.99999e-01,5.61610e-10,9.99999e-01
4.645600332e-01,8.55375e-10,9.99999e-01,9.99999e-01,8.55375e-10,9.99999e-01
4.668828333e-01,1.29202e-09,9.99999e-01,9.99999e-01,1.29202e-09,9.99999e-01
4.692172475e-01,1.93572e-09,9.99999e-01,9.99999e-01,1.93572e-09,9.99999e-01
4.715633337e-01,2.87707e-09,9.99999e-01,9.99999e-01,2.87707e-09,9.99999e-01
4.739211504e-01,4.24284e-09,9.99999e-01,9.99999e-01,4.24284e-09,9.99999e-01
4.762907561e-01,6.20914e-09,9.99999e-01,9.99999e-01,6.20914e-09,9.99999e-01
4.786722099e-01,9.01860e-09,9.99999e-01,9.99999e-01,9.01860e-09,9.99999e-01
4.810655710e-01,1.30030e-08,9.99999e-01,9.99999e-01,1.30030e-08,9.99999e-01
4.834708988e-01,1.86128e-08,9.99999e-01,9.99999e-01,1.86128e-08,9.99999e-01
4.858882533e-01,2.64547e-08,9.99999e-01,9.99999e-01,2.64547e-08,9.99999e-01
4.883176946e-01,3.73402e-08,9.99999e-01,9.99999e-01,3.73402e-08,9.99999e-01
4.907592831e-01,5.23474e-08,9.99999e-01,9.99999e-01,5.23474e-08,9.99999e-01
4.932130795e-01,7.28978e-08,9.99999e-01,9.99999e-01,7.28978e-08,9.99999e-01
4.956791449e-01,1.00854e-07,9.99999e-01,9.99999e-01,1.00854e-07,9.99999e-01
4.981575406e-01,1.38640e-07,9.99999e-01,9.99999e-01,1.38640e-07,9.99999e-01
5.006483283e-01,1.89388e-07,9.99999e-01,9.99999e-01,1.89388e-07,9.99999e-01
5.031515699e-01,2.57123e-07,9.99999e-01,9.99999e-01,2.57123e-07,9.99999e-01
5.056673278e-01,3.46983e-07,9.99999e-01,9.99999e-01,3.46983e-07,9.99999e-01
5.081956644e-01,4.65482e-07,9.99999e-01,9.99999e-01,4.65482e-07,9.99999e-01
5.107366428e-01,6.20837e-07,9.99999e-01,9.99999e-01,6.20837e-07,9.99999e-01
5.132903260e-01,8.23344e-07,9.99999e-01,9.99999e-01,8.23344e-07,9.99999e-01
5.158567776e-01,1.08583e-06,9.99999e-01,9.99999e-01,1.08583e-06,9.99999e-01
5.184360615e-01,1.42420e-06,9.99999e-01,9.99999e-01,1.42420e-06,9.99999e-01
5.210282418e-01,1.85803e-06,9.99999e-01,9.99999e-01,1.85803e-06,9.99999e-01
5.236333830e-01,2.41131e-06,9.99999e-01,9.99999e-01,2.41131e-06,9.99999e-01
5.262515499e-01,3.11328e-06,9.99999e-01,9.99999e-01,3.11328e-06,9.99999e-01
5.288828077e-01,3.99936e-06,9.99999e-01,9.99999e-01,3.99936e-06,9.99999e-01
5.315272217e-01,5.11228e-06,9.99999e-01,9.99999e-01,5.11228e-06,9.99999e-01
5.341848578e-01,6.50329e-06,9.99999e-01,9.99999e-01,6.50329e-06,9.99999e-01
5.368557821e-01,8.23354e-06,9.99999e-01,9.99999e-01,8.23354e-06,9.99999e-01
5.395400610e-01,1.03757e-05,9.99999e-01,9.99999e-01,1.03757e-05,9.99999e-01
5.422377613e-01,1.30155e-05,9.99999e-01,9.99999e-01,1.30155e-05,9.99999e-01
5.449489501e-01,1.62541e-05,9.99999e-01,9.99999e-01,1.62541e-05,9.99999e-01
5.476736949e-01,2.02097e-05,9.99999e-01,9.99999e-01,2.02097e-05,9.99999e-01
5.504120634e-01,2.50199e-05,9.99999e-01,9.99999e-01,2.50199e-05,9.99999e-01
5.531641237e-01,3.08447e-05,9.99999e-01,9.99999e-01,3.08447e-05,9.99999e-01
5.559299443e-01,3.78687e-05,9.99999e-01,9.99999e-01,3.78687e-05,9.99999e-01
5.587095940e-01,4.63042e-05,9.99999e-01,9.99999e-01,4.63042e-05,9.99999e-01
5.615031420e-01,5.63943e-05,9.99999e-01,9.99999e-01,5.63943e-05,9.99999e-01
5.643106577e-01,6.84162e-05,9.99999e-01,9.99999e-01,6.84162e-05,9.99999e-01
5.671322110e-01,8.26847e-05,9.99999e-01,9.99999e-01,8.26847e-05,9.99999e-01
5.699678720e-01,9.95557e-05,9.99999e-01,9.99999e-01,9.95557e-05,9.99999e-01
5.728177114e-01,1.19430e-04,9.99999e-01,9.99999e-01,1.19430e-04,9.99999e-01
5.756818000e-01,1.42758e-04,9.99999e-01,9.99999e-01,1.42758e-04,9.99999e-01
5.785602090e-01,1.70042e-04,9.99999e-01,9.99999e-01,1.70042e-04,9.99999e-01
5.814530100e-01,2.01843e-04,9.99999e-01,9.99999e-01,2.01843e-04,9.99999e-01
5.843602750e-01,2.38780e-04,9.99999e-01,9.99999e-01,2.38780e-04,9.99999e-01
5.872820764e-01,2.81541e-04,9.99999e-01,9.99999e-01,2.81541e-04,9.99999e-01
5.902184868e-01,3.30881e-04,9.99999e-01,9.99999e-01,3.30881e-04,9.99999e-01
5.931695792e-01,3.87630e-04,9.99999e-01,9.99999e-01,3.87630e-04,9.99999e-01
5.961354271e-01,4.52693e-04,9.99999e-01,9.99999e-01,4.52693e-04,9.99999e-01
5.991161043e-01,5.27060e-04,9.99999e-01,9.99999e-01,5.27060e-04,9.99999e-01
6.021116848e-01,6.11803e-04,9.99999e-01,9.99999e-01,6.11803e-04,9.99999e-01
6.051222432e-01,7.08083e-04,9.99999e-01,9.99999e-01,7.08083e-04,9.99999e-01
6.081478544e-01,8.17152e-04,9.99999e-01,9.99999e-01,8.17152e-04,9.99999e-01
6.111885937e-01,9.40356e-04,9.99999e-01,9.99999e-01,9.40356e-04,9.99999e-01
6.142445367e-01,1.07914e-03,9.99999e-01,9.99999e-01,1.07914e-03,9.99999e-01
6.173157594e-01,1.23504e-03,9.99999e-01,9.99999e-01,1.23504e-03,9.99999e-01
6.204023382e-01,1.40970e-03,9.99999e-01,9.99999e-01,1.40970e-03,9.99999e-01
6.235043498e-01,1.60487e-03,9.99999e-01,9.99999e-01,1.60487e-03,9.99999e-01
6.266218716e-01,1.82238e-03,9.99999e-01,9.99999e-01,1.82238e-03,9.99999e-01
6.297549810e-01,2.06418e-03,9.99999e-01,9.99999e-01,2.06418e-03,9.99999e-01
6.329037559e-01,2.33232e-03,9.99999e-01,9.99999e-01,2.33232e-03,9.99999e-01
6.360682746e-01,2.62894e-03,9.99999e-01,9.99999e-01,2.62894e-03,9.99999e-01
6.392486160e-01,2.95629e-03,9.99999e-01,9.99999e-01,2.95629e-03,9.99999e-01
6.424448591e-01,3.31670e-03,9.99999e-01,9.99999e-01,3.31670e-03,9.99999e-01
6.456570834e-01,3.71260e-03,9.99999e-01,9.99999e-01,3.71260e-03,9.99999e-01
6.488853688e-01,4.14651e-03,9.99999e-01,9.99999e-01,4.14651e-03,9.99999e-01
6.521297956e-01,4.62104e-03,9.99999e-01,9.99999e-01,4.62104e-03,9.99999e-01
6.553904446e-01,5.13886e-03,9.99999e-01,9.99999e-01,5.13886e-03,9.99999e-01
6.586673968e-01,5.70273e-03,9.99999e-01,9.99999e-01,5.70273e-03,9.99999e-01
6.619607338e-01,6.31547e-03,9.99999e-01,9.99999e-01,6.31547e-03,9.99999e-01
6.652705375e-01,6.97997e-03,9.99999e-01,9.99999e-01,6.97997e-03,9.99999e-01
6.685968902e-01,7.69915e-03,9.99999e-01,9.99999e-01,7.69915e-03,9.99999e-01
6.719398746e-01,8.47599e-03,9.99999e-01,9.99999e-01,8.47599e-03,9.99999e-01
6.752995740e-01,9.31352e-03,9.99999e-01,9.99999e-01,9.31352e-03,9.99999e-01
6.786760719e-01,1.02148e-02,9.99999e-01,9.99999e-01,1.02148e-02,9.99999e-01
6.820694522e-01,1.11828e-02,9.99999e-01,9.99999e-01,1.11828e-02,9.99999e-01
6.854797995e-01,1.22207e-02,9.99999e-01,9.99999e-01,1.22207e-02,9.99999e-01
6.889071985e-01,1.33316e-02,9.99999e-01,9.99999e-01,1.33316e-02,9.99999e-01
6.923517345e-01,1.45185e-02,9.99999e-01,9.99999e-01,1.45185e-02,9.99999e-01
6.958134932e-01,1.57844e-02,9.99999e-01,9.99999e-01,1.57844e-02,9.99999e-01
6.992925606e-01,1.71323e-02,9.99999e-01,9.99999e-01,1.71323e-02,9.99999e-01
7.027890234e-01,1.85653e-02,9.99999e-01,9.99999e-01,1.85653e-02,9.99999e-01
7.063029686e-01,2.00863e-02,9.99999e-01,9.99999e-01,2.00863e-02,9.99999e-01
7.098344834e-01,2.16981e-02,9.99999e-01,9.99999e-01,2.16981e-02,9.99999e-01
7.133836558e-01,2.34036e-02,9.99999e-01,9.99999e-01,2.34036e-02,9.99999e-01
7.169505741e-01,2.52053e-02,9.99999e-01,9.99999e-01,2.52053e-02,9.99999e-01
7.205353270e-01,2.71061e-02,9.99999e-01,9.99999e-01,2.71061e-02,9.99999e-01
7.241380036e-01,2.91084e-02,9.99999e-01,9.99999e-01,2.91084e-02,9.99999e-01
7.277586936e-01,3.12146e-02,9.99999e-01,9.99999e-01,3.12146e-02,9.99999e-01
7.313974871e-01,3.34270e-02,9.99999e-01,9.99999e-01,3.34270e-02,9.99999e-01
7.350544745e-01,3.57479e-02,9.99999e-01,9.99999e-01,3.57479e-02,9.99999e-01
7.387297469e-01,3.81792e-02,9.99999e-01,9.99999e-01,3.81792e-02,9.99999e-01
7.424233956e-01,4.07230e-02,9.99999e-01,9.99999e-01,4.07230e-02,9.99999e-01
7.461355126e-01,4.33809e-02,9.99999e-01,9.99999e-01,4.33809e-02,9.99999e-01
7.498661902e-01,4.61546e-02,9.99999e-01,9.99999e-01,4.61546e-02,9.99999e-01
7.536155211e-01,4.90456e-02,9.99999e-01,9.99999e-01,4.90456e-02,9.99999e-01
7.573835987e-01,5.20552e-02,9.99999e-01,9.99999e-01,5.20552e-02,9.99999e-01
7.611705167e-01,5.51845e-02,9.99999e-01,9.99999e-01,5.51845e-02,9.99999e-01
7.649763693e-01,5.84345e-02,9.99999e-01,9.99999e-01,5.84345e-02,9.99999e-01
7.688012511e-01,6.18060e-02,9.99999e-01,9.99999e-01,6.18060e-02,9.99999e-01
7.726452574e-01,6.52997e-02,9.99999e-01,9.99999e-01,6.52997e-02,9.99999e-01
7.765084837e-01,6.89159e-02,9.99999e-01,9.99999e-01,6.89159e-02,9.99999e-01
7.803910261e-01,6.53771e-02,9.99999e-01,8.99828e-01,7.26550e-02,9.99999e-01
7.842929812e-01,4.56949e-02,9.99999e-01,5.97184e-01,7.65171e-02,9.99999e-01
7.882144461e-01,4.66815e-02,9.99999e-01,5.79879e-01,8.05020e-02,9.99999e-01
7.921555184e-01,6.02847e-02,9.99999e-01,7.12503e-01,8.46096e-02,9.99999e-01
7.961162960e-01,7.06582e-02,9.99999e-01,7.95346e-01,8.88395e-02,9.99999e-01
8.000968774e-01,8.22803e-02,9.99999e-01,8.82921e-01,9.31909e-02,9.99999e-01
8.040973618e-01,9.15669e-02,9.99999e-01,9.37577e-01,9.76632e-02,9.99999e-01
8.081178486e-01,9.92614e-02,9.99999e-01,9.70719e-01,1.02255e-01,9.99999e-01
8.121584379e-01,1.05997e-01,9.99999e-01,9.90932e-01,1.06966e-01,9.99999e-01
8.162192301e-01,1.11570e-01,9.99999e-01,9.97989e-01,1.11795e-01,9.99999e-01
8.203003262e-01,1.16736e-01,9.99999e-01,9.99971e-01,1.16740e-01,9.99999e-01
8.244018279e-01,1.21799e-01,9.99999e-01,9.99999e-01,1.21799e-01,9.99999e-01
8.285238370e-01,1.26971e-01,9.99999e-01,9.99999e-01,1.26971e-01,9.99999e-01
8.326664562e-01,1.32254e-01,9.99999e-01,9.99999e-01,1.32254e-01,9.99999e-01
8.368297885e-01,1.37646e-01,9.99999e-01,9.99999e-01,1.37646e-01,9.99999e-01
8.410139374e-01,1.43144e-01,9.99999e-01,9.99999e-01,1.43144e-01,9.99999e-01
8.452190071e-01,1.48747e-01,9.99999e-01,9.99999e-01,1.48747e-01,9.99999e-01
8.494451021e-01,1.54453e-01,9.99999e-01,9.99999e-01,1.54453e-01,9.99999e-01
8.536923276e-01,1.60258e-01,9.99999e-01,9.99999e-01,1.60258e-01,9.99999e-01
8.579607893e-01,1.66160e-01,9.99999e-01,9.99999e-01,1.66160e-01,9.99999e-01
8.622505932e-01,1.72156e-01,9.99999e-01,9.99999e-01,1.72156e-01,9.99999e-01
8.665618462e-01,1.52643e-01,9.99999e-01,8.56372e-01,1.78244e-01,9.99999e-01
8.708946554e-01,5.20686e-02,9.99999e-01,2.82336e-01,1.84420e-01,9.99999e-01
8.752491287e-01,6.60972e-02,9.99999e-01,3.46634e-01,1.90683e-01,9.99999e-01
8.796253743e-01,1.08384e-01,9.99999e-01,5.50095e-01,1.97027e-01,9.99999e-01
8.840235012e-01,1.48185e-01,9.99999e-01,7.28356e-01,2.03452e-01,9.99999e-01
8.884436187e-01,1.85177e-01,9.99999e-01,8.81996e-01,2.09952e-01,9.99999e-01
8.928858368e-01,2.05733e-01,9.99999e-01,9.50151e-01,2.16526e-01,9.99999e-01
8.973502660e-01,2.20426e-01,9.99999e-01,9.87705e-01,2.23170e-01,9.99999e-01
9.018370173e-01,2.29568e-01,9.99999e-01,9.98640e-01,2.29881e-01,9.99999e-01
9.063462024e-01,2.28509e-01,9.99999e-01,9.65582e-01,2.36654e-01,9.99999e-01
9.108779334e-01,2.24629e-01,9.99999e-01,9.22547e-01,2.43488e-01,9.99999e-01
9.154323231e-01,2.45716e-01,9.99999e-01,9.81381e-01,2.50378e-01,9.99999e-01
9.200094847e-01,2.03138e-01,9.99999e-01,7.89433e-01,2.57321e-01,9.99999e-01
9.246095321e-01,1.78601e-01,9.99999e-01,6.75716e-01,2.64313e-01,9.99999e-01
9.292325798e-01,2.00486e-01,9.99999e-01,7.38838e-01,2.71352e-01,9.99999e-01
9.338787427e-01,2.07327e-01,9.99999e-01,7.44615e-01,2.78434e-01,9.99999e-01
9.385481364e-01,2.29415e-01,9.99999e-01,8.03398e-01,2.85556e-01,9.99999e-01
9.432408771e-01,2.55831e-01,9.99999e-01,8.73999e-01,2.92713e-01,9.99999e-01
9.479570815e-01,2.79825e-01,9.99999e-01,9.33049e-01,2.99903e-01,9.99999e-01
9.526968669e-01,2.97058e-01,9.99999e-01,9.67228e-01,3.07123e-01,9.99999e-01
9.574603512e-01,3.09919e-01,9.99999e-01,9.85845e-01,3.14369e-01,9.99999e-01
9.622476530e-01,3.20211e-01,9.99999e-01,9.95566e-01,3.21637e-01,9.99999e-01
9.670588912e-01,3.28488e-01,9.99999e-01,9.98671e-01,3.28925e-01,9.99999e-01
9.718941857e-01,3.36198e-01,9.99999e-01,9.99907e-01,3.36229e-01,9.99999e-01
9.767536566e-01,3.43546e-01,9.99999e-01,9.99999e-01,3.43546e-01,9.99999e-01
9.816374249e-01,3.50874e-01,9.99999e-01,9.99999e-01,3.50874e-01,9.99999e-01
9.865456120e-01,3.58208e-01,9.99999e-01,9.99999e-01,3.58208e-01,9.99999e-01
9.914783401e-01,3.65546e-01,9.99999e-01,9.99999e-01,3.65546e-01,9.99999e-01
9.964357318e-01,3.72885e-01,9.99999e-01,9.99999e-01,3.72885e-01,9.99999e-01
1.001417910e+00,3.80222e-01,9.99999e-01,9.99999e-01,3.80222e-01,9.99999e-01
1.006425000e+00,3.87555e-01,9.99999e-01,9.99999e-01,3.87555e-01,9.99999e-01
1.011457125e+00,3.94879e-01,9.99999e-01,9.99999e-01,3.94879e-01,9.99999e-01
1.016514411e+00,4.02194e-01,9.99999e-01,9.99999e-01,4.02194e-01,9.99999e-01
1.021596983e+00,4.09410e-01,9.99999e-01,9.99791e-01,4.09495e-01,9.99999e-01
1.026704968e+00,4.11018e-01,9.99999e-01,9.86172e-01,4.16781e-01,9.99999e-01
1.031838492e+00,3.78092e-01,9.99999e-01,8.91625e-01,4.24048e-01,9.99999e-01
1.036997685e+00,1.80308e-02,9.99999e-01,4.18062e-02,4.31295e-01,9.99999e-01
1.042182673e+00,7.48444e-04,9.99999e-01,1.70675e-03,4.38519e-01,9.99999e-01
1.047393587e+00,2.07593e-03,9.99999e-01,4.65749e-03,4.45718e-01,9.99999e-01
1.052630555e+00,7.31295e-08,9.99999e-01,1.61473e-07,4.52890e-01,9.99999e-01
1.057893707e+00,2.79761e-07,9.99999e-01,6.08135e-07,4.60031e-01,9.99999e-01
1.063183176e+00,1.25080e-05,9.99999e-01,2.67756e-05,4.67141e-01,9.99999e-01
1.068499092e+00,1.58045e-04,9.99999e-01,3.33274e-04,4.74217e-01,9.99999e-01
1.073841587e+00,2.70154e-03,9.99999e-01,5.61349e-03,4.81258e-01,9.99999e-01
1.079210795e+00,1.90854e-02,9.99999e-01,3.90885e-02,4.88260e-01,9.99999e-01
1.084606849e+00,7.78123e-02,9.99999e-01,1.57125e-01,4.95224e-01,9.99999e-01
1.090029883e+00,1.89989e-01,9.99999e-01,3.78354e-01,5.02146e-01,9.99999e-01
1.095480033e+00,3.14689e-01,9.99999e-01,6.18219e-01,5.09025e-01,9.99999e-01
1.100957433e+00,4.08513e-01,9.99999e-01,7.91906e-01,5.15860e-01,9.99999e-01
1.106462220e+00,4.74529e-01,9.99999e-01,9.07931e-01,5.22649e-01,9.99999e-01
1.111994531e+00,5.10743e-01,9.99999e-01,9.64775e-01,5.29390e-01,9.99999e-01
1.117554504e+00,5.31429e-01,9.99999e-01,9.91317e-01,5.36083e-01,9.99999e-01
1.123142276e+00,5.42417e-01,9.99999e-01,9.99430e-01,5.42726e-01,9.99999e-01
1.128757988e+00,5.49317e-01,9.99999e-01,9.99999e-01,5.49317e-01,9.99999e-01
1.134401778e+00,5.55856e-01,9.99999e-01,9.99999e-01,5.55856e-01,9.99999e-01
1.140073787e+00,5.62341e-01,9.99999e-01,9.99999e-01,5.62341e-01,9.99999e-01
1.145774156e+00,5.68772e-01,9.99999e-01,9.99999e-01,5.68772e-01,9.99999e-01
1.151503026e+00,5.75147e-01,9.99999e-01,9.99999e-01,5.75147e-01,9.99999e-01
1.157260541e+00,5.81465e-01,9.99999e-01,9.99999e-01,5.81465e-01,9.99999e-01
1.163046844e+00,5.87726e-01,9.99999e-01,9.99999e-01,5.87726e-01,9.99999e-01
1.168862078e+00,5.93928e-01,9.99999e-01,9.99999e-01,5.93928e-01,9.99999e-01
1.174706389e+00,6.00072e-01,9.99999e-01,9.99999e-01,6.00072e-01,9.99999e-01
1.180579921e+00,6.06156e-01,9.99999e-01,9.99999e-01,6.06156e-01,9.99999e-01
1.186482820e+00,6.12161e-01,9.99999e-01,9.99969e-01,6.12180e-01,9.99999e-01
1.192415234e+00,5.89293e-01,9.99999e-01,9.53327e-01,6.18142e-01,9.99999e-01
1.198377311e+00,3.15379e-01,9.99999e-01,5.05378e-01,6.24044e-01,9.99999e-01
1.204369197e+00,3.42213e-35,9.99999e-01,5.43296e-35,6.29883e-01,9.99999e-01
1.210391043e+00,8.81966e-144,9.99999e-01,1.38748e-143,6.35660e-01,9.99999e-01
1.216442998e+00,2.30450e-124,9.99999e-01,3.59305e-124,6.41375e-01,9.99999e-01
1.222525213e+00,1.72176e-122,9.99999e-01,2.66104e-122,6.47026e-01,9.99999e-01
1.228637839e+00,2.09357e-94,9.99999e-01,3.20797e-94,6.52615e-01,9.99999e-01
1.234781029e+00,1.44955e-58,9.99999e-01,2.20249e-58,6.58139e-01,9.99999e-01
1.240954934e+00,9.74609e-39,9.99999e-01,1.46867e-38,6.63600e-01,9.99999e-01
1.247159708e+00,1.97759e-18,9.99999e-01,2.95606e-18,6.68997e-01,9.99999e-01
1.253395507e+00,1.51762e-12,9.99999e-01,2.25056e-12,6.74330e-01,9.99999e-01
1.259662485e+00,2.05951e-07,9.99999e-01,3.03048e-07,6.79599e-01,9.99999e-01
1.265960797e+00,1.97574e-04,9.99999e-01,2.88511e-04,6.84804e-01,9.99999e-01
1.272290601e+00,1.39122e-02,9.99999e-01,2.01642e-02,6.89944e-01,9.99999e-01
1.278652054e+00,1.31393e-02,9.99999e-01,1.89048e-02,6.95021e-01,9.99999e-01
1.285045314e+00,6.74943e-06,9.99999e-01,9.64157e-06,7.00033e-01,9.99999e-01
1.291470541e+00,1.00189e-16,9.99999e-01,1.42116e-16,7.04982e-01,9.99999e-01
1.297927893e+00,8.03922e-06,9.99999e-01,1.13250e-05,7.09867e-01,9.99999e-01
1.304417533e+00,5.27401e-04,9.99999e-01,7.37945e-04,7.14688e-01,9.99999e-01
1.310939621e+00,1.05250e-04,9.99999e-01,1.46293e-04,7.19446e-01,9.99999e-01
1.317494319e+00,2.03329e-49,9.99999e-01,2.80787e-49,7.24140e-01,9.99999e-01
1.324081790e+00,9.22819e-32,9.99999e-01,1.26626e-31,7.28772e-01,9.99999e-01
1.330702199e+00,6.65255e-19,9.99999e-01,9.07157e-19,7.33341e-01,9.99999e-01
1.337355710e+00,3.40259e-17,9.99999e-01,4.61150e-17,7.37847e-01,9.99999e-01
1.344042489e+00,1.94422e-17,9.99999e-01,2.61922e-17,7.42291e-01,9.99999e-01
1.350762701e+00,3.25672e-19,9.99999e-01,4.36164e-19,7.46673e-01,9.99999e-01
1.357516515e+00,1.42803e-11,9.99999e-01,1.90152e-11,7.50994e-01,9.99999e-01
1.364304097e+00,1.43979e-08,9.99999e-01,1.90637e-08,7.55254e-01,9.99999e-01
1.371125618e+00,9.11112e-05,9.99999e-01,1.19969e-04,7.59453e-01,9.99999e-01
1.377981246e+00,2.97030e-04,9.99999e-01,3.88990e-04,7.63592e-01,9.99999e-01
1.384871152e+00,7.74171e-03,9.99999e-01,1.00847e-02,7.67671e-01,9.99999e-01
1.391795508e+00,1.14014e-02,9.99999e-01,1.47746e-02,7.71691e-01,9.99999e-01
1.398754485e+00,5.31304e-02,9.99999e-01,6.84977e-02,7.75651e-01,9.99999e-01
1.405748258e+00,1.11646e-01,9.99999e-01,1.43217e-01,7.79553e-01,9.99999e-01
1.412776999e+00,2.26725e-01,9.99999e-01,2.89413e-01,7.83398e-01,9.99999e-01
1.419840884e+00,2.16925e-01,9.99999e-01,2.75571e-01,7.87184e-01,9.99999e-01
1.426940089e+00,6.97077e-03,9.99999e-01,8.81355e-03,7.90914e-01,9.99999e-01
1.434074789e+00,0.00000e+00,9.99999e-01,0.00000e+00,7.94587e-01,9.99999e-01
1.441245163e+00,0.00000e+00,9.99999e-01,0.00000e+00,7.98204e-01,9.99999e-01
1.448451389e+00,0.00000e+00,9.99999e-01,0.00000e+00,8.01765e-01,9.99999e-01
1.455693646e+00,0.00000e+00,9.99999e-01,0.00000e+00,8.05272e-01,9.99999e-01
1.462972114e+00,0.00000e+00,9.99999e-01,0.00000e+00,8.08724e-01,9.99999e-01
1.470286975e+00,1.27206e-238,9.99999e-01,1.56634e-238,8.12122e-01,9.99999e-01
