#,Wave/freq,Total,O2,CO2,Rayleigh,CIA
4.000000000e-01,5.60047e-03,9.99999e-01,9.99999e-01,5.60047e-03,9.99999e-01
4.020000000e-01,6.20508e-03,9.99999e-01,9.99999e-01,6.20508e-03,9.99999e-01
4.040100000e-01,6.86034e-03,9.99999e-01,9.99999e-01,6.86034e-03,9.99999e-01
4.060300500e-01,7.56978e-03,9.99999e-01,9.99999e-01,7.56978e-03,9.99999e-01
4.080602003e-01,8.33637e-03,9.99999e-01,9.99999e-01,8.33637e-03,9.99999e-01
4.101005013e-01,9.16310e-03,9.99999e-01,9.99999e-01,9.16310e-03,9.99999e-01
4.121510038e-01,1.00530e-02,9.99999e-01,9.99999e-01,1.00530e-02,9.99999e-01
4.142117588e-01,1.10092e-02,9.99999e-01,9.99999e-01,1.10092e-02,9.99999e-01
4.162828176e-01,1.20347e-02,9.99999e-01,9.99999e-01,1.20347e-02,9.99999e-01
4.183642317e-01,1.31327e-02,9.99999e-01,9.99999e-01,1.31327e-02,9.99999e-01
4.204560528e-01,1.43061e-02,9.99999e-01,9.99999e-01,1.43061e-02,9.99999e-01
4.225583331e-01,1.55580e-02,9.99999e-01,9.99999e-01,1.55580e-02,9.99999e-01
4.246711247e-01,1.68914e-02,9.99999e-01,9.99999e-01,1.68914e-02,9.99999e-01
4.267944804e-01,1.83094e-02,9.99999e-01,9.99999e-01,1.83094e-02,9.99999e-01
4.289284528e-01,1.98149e-02,9.99999e-01,9.99999e-01,1.98149e-02,9.99999e-01
4.310730950e-01,2.14106e-02,9.99999e-01,9.99999e-01,2.14106e-02,9.99999e-01
4.332284605e-01,2.30996e-02,9.99999e-01,9.99999e-01,2.30996e-02,9.99999e-01
4.353946028e-01,2.48844e-02,9.99999e-01,9.99999e-01,2.48844e-02,9.99999e-01
4.375715758e-01,2.67677e-02,9.99999e-01,9.99999e-01,2.67677e-02,9.99999e-01
4.397594337e-01,2.87521e-02,9.99999e-01,9.99999e-01,2.87521e-02,9.99999e-01
4.419582309e-01,3.08400e-02,9.99999e-01,9.99999e-01,3.08400e-02,9.99999e-01
4.441680220e-01,3.30338e-02,9.99999e-01,9.99999e-01,3.30338e-02,9.99999e-01
4.463888621e-01,3.53356e-02,9.99999e-01,9.99999e-01,3.53356e-02,9.99999e-01
4.486208064e-01,3.77476e-02,9.99999e-01,9.99999e-01,3.77476e-02,9.99999e-01
4.508639105e-01,4.02716e-02,9.99999e-01,9.99999e-01,4.02716e-02,9.99999e-01
4.531182300e-01,4.29095e-02,9.99999e-01,9.99999e-01,4.29095e-02,9.99999e-01
4.553838212e-01,4.56630e-02,9.99999e-01,9.99999e-01,4.56630e-02,9.99999e-01
4.576607403e-01,4.85335e-02,9.99999e-01,9.99999e-01,4.85335e-02,9.99999e-01
4.599490440e-01,5.15223e-02,9.99999e-01,9.99999e-01,5.15223e-02,9.99999e-01
4.622487892e-01,5.46307e-02,9.99999e-01,9.99999e-01,5.46307e-02,9.99999e-01
4.645600332e-01,5.78596e-02,9.99999e-01,9.99999e-01,5.78596e-02,9.99999e-01
4.668828333e-01,6.12099e-02,9.99999e-01,9.99999e-01,6.12099e-02,9.99999e-01
4.692172475e-01,6.46822e-02,9.99999e-01,9.99999e-01,6.46822e-02,9.99999e-01
4.715633337e-01,6.82770e-02,9.99999e-01,9.99999e-01,6.82770e-02,9.99999e-01
4.739211504e-01,7.19947e-02,9.99999e-01,9.99999e-01,7.19947e-02,9.99999e-01
4.762907561e-01,7.58354e-02,9.99999e-01,9.99999e-01,7.58354e-02,9.99999e-01
4.786722099e-01,7.97989e-02,9.99999e-01,9.99999e-01,7.97989e-02,9.99999e-01
4.810655710e-01,8.38852e-02,9.99999e-01,9.99999e-01,8.38852e-02,9.99999e-01
4.834708988e-01,8.80938e-02,9.99999e-01,9.99999e-01,8.80938e-02,9.99999e-01
4.858882533e-01,9.24241e-02,9.99999e-01,9.99999e-01,9.24241e-02,9.99999e-01
4.883176946e-01,9.68754e-02,9.99999e-01,9.99999e-01,9.68754e-02,9.99999e-01
4.907592831e-01,1.01447e-01,9.99999e-01,9.99999e-01,1.01447e-01,9.99999e-01
4.932130795e-01,1.06137e-01,9.99999e-01,9.99999e-01,1.06137e-01,9.99999e-01
4.956791449e-01,1.10945e-01,9.99999e-01,9.99999e-01,1.10945e-01,9.99999e-01
4.981575406e-01,1.15870e-01,9.99999e-01,9.99999e-01,1.15870e-01,9.99999e-01
5.006483283e-01,1.20909e-01,9.99999e-01,9.99999e-01,1.20909e-01,9.99999e-01
5.031515699e-01,1.26062e-01,9.99999e-01,9.99999e-01,1.26062e-01,9.99999e-01
5.056673278e-01,1.31325e-01,9.99999e-01,9.99999e-01,1.31325e-01,9.99999e-01
5.081956644e-01,1.36698e-01,9.99999e-01,9.99999e-01,1.36698e-01,9.99999e-01
5.107366428e-01,1.42179e-01,9.99999e-01,9.99999e-01,1.42179e-01,9.99999e-01
5.132903260e-01,1.47764e-01,9.99999e-01,9.99999e-01,1.47764e-01,9.99999e-01
5.158567776e-01,1.53451e-01,9.99999e-01,9.99999e-01,1.53451e-01,9.99999e-01
5.184360615e-01,1.59239e-01,9.99999e-01,9.99999e-01,1.59239e-01,9.99999e-01
5.210282418e-01,1.65125e-01,9.99999e-01,9.99999e-01,1.65125e-01,9.99999e-01
5.236333830e-01,1.71105e-01,9.99999e-01,9.99999e-01,1.71105e-01,9.99999e-01
5.262515499e-01,1.77177e-01,9.99999e-01,9.99999e-01,1.77177e-01,9.99999e-01
5.288828077e-01,1.83338e-01,9.99999e-01,9.99999e-01,1.83338e-01,9.99999e-01
5.315272217e-01,1.89585e-01,9.99999e-01,9.99999e-01,1.89585e-01,9.99999e-01
5.341848578e-01,1.95916e-01,9.99999e-01,9.99999e-01,1.95916e-01,9.99999e-01
5.368557821e-01,2.02327e-01,9.99999e-01,9.99999e-01,2.02327e-01,9.99999e-01
5.395400610e-01,2.08815e-01,9.99999e-01,9.99999e-01,2.08815e-01,9.99999e-01
5.422377613e-01,2.15376e-01,9.99999e-01,9.99999e-01,2.15376e-01,9.99999e-01
5.449489501e-01,2.22008e-01,9.99999e-01,9.99999e-01,2.22008e-01,9.99999e-01
5.476736949e-01,2.28707e-01,9.99999e-01,9.99999e-01,2.28707e-01,9.99999e-01
5.504120634e-01,2.35470e-01,9.99999e-01,9.99999e-01,2.35470e-01,9.99999e-01
5.531641237e-01,2.42293e-01,9.99999e-01,9.99999e-01,2.42293e-01,9.99999e-01
5.559299443e-01,2.49173e-01,9.99999e-01,9.99999e-01,2.49173e-01,9.99999e-01
5.587095940e-01,2.56107e-01,9.99999e-01,9.99999e-01,2.56107e-01,9.99999e-01
5.615031420e-01,2.63092e-01,9.99999e-01,9.99999e-01,2.63092e-01,9.99999e-01
5.643106577e-01,2.70123e-01,9.99999e-01,9.99999e-01,2.70123e-01,9.99999e-01
5.671322110e-01,2.77198e-01,9.99999e-01,9.99999e-01,2.77198e-01,9.99999e-01
5.699678720e-01,2.84312e-01,9.99999e-01,9.99999e-01,2.84312e-01,9.99999e-01
5.728177114e-01,2.91464e-01,9.99999e-01,9.99999e-01,2.91464e-01,9.99999e-01
5.756818000e-01,2.98649e-01,9.99999e-01,9.99999e-01,2.98649e-01,9.99999e-01
5.785602090e-01,3.05863e-01,9.99999e-01,9.99999e-01,3.05863e-01,9.99999e-01
5.814530100e-01,3.13105e-01,9.99999e-01,9.99999e-01,3.13105e-01,9.99999e-01
5.843602750e-01,3.20369e-01,9.99999e-01,9.99999e-01,3.20369e-01,9.99999e-01
5.872820764e-01,3.27654e-01,9.99999e-01,9.99999e-01,3.27654e-01,9.99999e-01
5.902184868e-01,3.34956e-01,9.99999e-01,9.99999e-01,3.34956e-01,9.99999e-01
5.931695792e-01,3.42271e-01,9.99999e-01,9.99999e-01,3.42271e-01,9.99999e-01
5.961354271e-01,3.49597e-01,9.99999e-01,9.99999e-01,3.49597e-01,9.99999e-01
5.991161043e-01,3.56930e-01,9.99999e-01,9.99999e-01,3.56930e-01,9.99999e-01
6.021116848e-01,3.64267e-01,9.99999e-01,9.99999e-01,3.64267e-01,9.99999e-01
6.051222432e-01,3.71607e-01,9.99999e-01,9.99999e-01,3.71607e-01,9.99999e-01
6.081478544e-01,3.78944e-01,9.99999e-01,9.99999e-01,3.78944e-01,9.99999e-01
6.111885937e-01,3.86278e-01,9.99999e-01,9.99999e-01,3.86278e-01,9.99999e-01
6.142445367e-01,3.93604e-01,9.99999e-01,9.99999e-01,3.93604e-01,9.99999e-01
6.173157594e-01,4.00920e-01,9.99999e-01,9.99999e-01,4.00920e-01,9.99999e-01
6.204023382e-01,4.08224e-01,9.99999e-01,9.99999e-01,4.08224e-01,9.99999e-01
6.235043498e-01,4.15513e-01,9.99999e-01,9.99999e-01,4.15513e-01,9.99999e-01
6.266218716e-01,4.22784e-01,9.99999e-01,9.99999e-01,4.22784e-01,9.99999e-01
6.297549810e-01,4.30034e-01,9.99999e-01,9.99999e-01,4.30034e-01,9.99999e-01
6.329037559e-01,4.37263e-01,9.99999e-01,9.99999e-01,4.37263e-01,9.99999e-01
6.360682746e-01,4.44466e-01,9.99999e-01,9.99999e-01,4.44466e-01,9.99999e-01
6.392486160e-01,4.51642e-01,9.99999e-01,9.99999e-01,4.51642e-01,9.99999e-01
6.424448591e-01,4.58789e-01,9.99999e-01,9.99999e-01,4.58789e-01,9.99999e-01
6.456570834e-01,4.65905e-01,9.99999e-01,9.99999e-01,4.65905e-01,9.99999e-01
6.488853688e-01,4.72987e-01,9.99999e-01,9.99999e-01,4.72987e-01,9.99999e-01
6.521297956e-01,4.80034e-01,9.99999e-01,9.99999e-01,4.80034e-01,9.99999e-01
6.553904446e-01,4.87043e-01,9.99999e-01,9.99999e-01,4.87043e-01,9.99999e-01
6.586673968e-01,4.94013e-01,9.99999e-01,9.99999e-01,4.94013e-01,9.99999e-01
6.619607338e-01,5.00943e-01,9.99999e-01,9.99999e-01,5.00943e-01,9.99999e-01
6.652705375e-01,5.07830e-01,9.99999e-01,9.99999e-01,5.07830e-01,9.99999e-01
6.685968902e-01,5.14672e-01,9.99999e-01,9.99999e-01,5.14672e-01,9.99999e-01
6.719398746e-01,5.21469e-01,9.99999e-01,9.99999e-01,5.21469e-01,9.99999e-01
6.752995740e-01,5.28219e-01,9.99999e-01,9.99999e-01,5.28219e-01,9.99999e-01
6.786760719e-01,5.34921e-01,9.99999e-01,9.99999e-01,5.34921e-01,9.99999e-01
6.820694522e-01,5.41572e-01,9.99999e-01,9.99999e-01,5.41572e-01,9.99999e-01
6.854797995e-01,5.48172e-01,9.99999e-01,9.99999e-01,5.48172e-01,9.99999e-01
6.889071985e-01,5.54720e-01,9.99999e-01,9.99999e-01,5.54720e-01,9.99999e-01
6.923517345e-01,5.61215e-01,9.99999e-01,9.99999e-01,5.61215e-01,9.99999e-01
6.958134932e-01,5.67655e-01,9.99999e-01,9.99999e-01,5.67655e-01,9.99999e-01
6.992925606e-01,5.74040e-01,9.99999e-01,9.99999e-01,5.74040e-01,9.99999e-01
7.027890234e-01,5.80368e-01,9.99999e-01,9.99999e-01,5.80368e-01,9.99999e-01
7.063029686e-01,5.86639e-01,9.99999e-01,9.99999e-01,5.86639e-01,9.99999e-01
7.098344834e-01,5.92852e-01,9.99999e-01,9.99999e-01,5.92852e-01,9.99999e-01
7.133836558e-01,5.99006e-01,9.99999e-01,9.99999e-01,5.99006e-01,9.99999e-01
7.169505741e-01,6.05100e-01,9.99999e-01,9.99999e-01,6.05100e-01,9.99999e-01
7.205353270e-01,6.11135e-01,9.99999e-01,9.99999e-01,6.11135e-01,9.99999e-01
7.241380036e-01,6.17108e-01,9.99999e-01,9.99999e-01,6.17108e-01,9.99999e-01
7.277586936e-01,6.23020e-01,9.99999e-01,9.99999e-01,6.23020e-01,9.99999e-01
7.313974871e-01,6.28870e-01,9.99999e-01,9.99999e-01,6.28870e-01,9.99999e-01
7.350544745e-01,6.34658e-01,9.99999e-01,9.99999e-01,6.34658e-01,9.99999e-01
7.387297469e-01,6.40384e-01,9.99999e-01,9.99999e-01,6.40384e-01,9.99999e-01
7.424233956e-01,6.46046e-01,9.99999e-01,9.99999e-01,6.46046e-01,9.99999e-01
7.461355126e-01,6.51645e-01,9.99999e-01,9.99999e-01,6.51645e-01,9.99999e-01
7.498661902e-01,6.57181e-01,9.99999e-01,9.99999e-01,6.57181e-01,9.99999e-01
7.536155211e-01,6.62653e-01,9.99999e-01,9.99999e-01,6.62653e-01,9.99999e-01
7.573835987e-01,6.68061e-01,9.99999e-01,9.99999e-01,6.68061e-01,9.99999e-01
7.611705167e-01,6.73405e-01,9.99999e-01,9.99999e-01,6.73405e-01,9.99999e-01
7.649763693e-01,6.78685e-01,9.99999e-01,9.99999e-01,6.78685e-01,9.99999e-01
7.688012511e-01,6.83901e-01,9.99999e-01,9.99999e-01,6.83901e-01,9.99999e-01
7.726452574e-01,6.89053e-01,9.99999e-01,9.99999e-01,6.89053e-01,9.99999e-01
7.765084837e-01,6.94141e-01,9.99999e-01,9.99999e-01,6.94141e-01,9.99999e-01
7.803910261e-01,6.86240e-01,9.99999e-01,9.81514e-01,6.99165e-01,9.99999e-01
7.842929812e-01,6.52282e-01,9.99999e-01,9.26372e-01,7.04124e-01,9.99999e-01
7.882144461e-01,6.52747e-01,9.99999e-01,9.20632e-01,7.09020e-01,9.99999e-01
7.921555184e-01,6.80723e-01,9.99999e-01,9.53589e-01,7.13853e-01,9.99999e-01
7.961162960e-01,6.96340e-01,9.99999e-01,9.68994e-01,7.18621e-01,9.99999e-01
8.000968774e-01,7.11067e-01,9.99999e-01,9.83049e-01,7.23327e-01,9.99999e-01
8.040973618e-01,7.21578e-01,9.99999e-01,9.91220e-01,7.27969e-01,9.99999e-01
8.081178486e-01,7.29581e-01,9.99999e-01,9.95947e-01,7.32549e-01,9.99999e-01
8.121584379e-01,7.36151e-01,9.99999e-01,9.98757e-01,7.37066e-01,9.99999e-01
8.162192301e-01,7.41318e-01,9.99999e-01,9.99725e-01,7.41521e-01,9.99999e-01
8.203003262e-01,7.45912e-01,9.99999e-01,9.99995e-01,7.45914e-01,9.99999e-01
8.244018279e-01,7.50246e-01,9.99999e-01,9.99999e-01,7.50246e-01,9.99999e-01
8.285238370e-01,7.54516e-01,9.99999e-01,9.99999e-01,7.54516e-01,9.99999e-01
8.326664562e-01,7.58726e-01,9.99999e-01,9.99999e-01,7.58726e-01,9.99999e-01
8.368297885e-01,7.62875e-01,9.99999e-01,9.99999e-01,7.62875e-01,9.99999e-01
8.410139374e-01,7.66965e-01,9.99999e-01,9.99999e-01,7.66965e-01,9.99999e-01
8.452190071e-01,7.70995e-01,9.99999e-01,9.99999e-01,7.70995e-01,9.99999e-01
8.494451021e-01,7.74966e-01,9.99999e-01,9.99999e-01,7.74966e-01,9.99999e-01
8.536923276e-01,7.78878e-01,9.99999e-01,9.99999e-01,7.78878e-01,9.99999e-01
8.579607893e-01,7.82732e-01,9.99999e-01,9.99999e-01,7.82732e-01,9.99999e-01
8.622505932e-01,7.86529e-01,9.99999e-01,9.99999e-01,7.86529e-01,9.99999e-01
8.665618462e-01,7.52055e-01,9.99999e-01,9.51644e-01,7.90268e-01,9.99999e-01
8.708946554e-01,6.51319e-01,9.99999e-01,8.20351e-01,7.93951e-01,9.99999e-01
8.752491287e-01,6.81680e-01,9.99999e-01,8.54688e-01,7.97577e-01,9.99999e-01
8.796253743e-01,7.35655e-01,9.99999e-01,9.18249e-01,8.01149e-01,9.99999e-01
8.840235012e-01,7.70022e-01,9.99999e-01,9.56947e-01,8.04665e-01,9.99999e-01
8.884436187e-01,7.94312e-01,9.99999e-01,9.82905e-01,8.08126e-01,9.99999e-01
8.928858368e-01,8.05880e-01,9.99999e-01,9.93032e-01,8.11534e-01,9.99999e-01
8.973502660e-01,8.13514e-01,9.99999e-01,9.98312e-01,8.14889e-01,9.99999e-01
9.018370173e-01,8.18038e-01,9.99999e-01,9.99814e-01,8.18190e-01,9.99999e-01
9.063462024e-01,8.17393e-01,9.99999e-01,9.95072e-01,8.21440e-01,9.99999e-01
9.108779334e-01,8.15564e-01,9.99999e-01,9.88997e-01,8.24637e-01,9.99999e-01
9.154323231e-01,8.25658e-01,9.99999e-01,9.97431e-01,8.27784e-01,9.99999e-01
9.200094847e-01,7.98579e-01,9.99999e-01,9.61123e-01,8.30880e-01,9.99999e-01
9.246095321e-01,7.89854e-01,9.99999e-01,9.47150e-01,8.33926e-01,9.99999e-01
9.292325798e-01,8.01562e-01,9.99999e-01,9.57747e-01,8.36923e-01,9.99999e-01
9.338787427e-01,8.05964e-01,9.99999e-01,9.59627e-01,8.39871e-01,9.99999e-01
9.385481364e-01,8.17676e-01,9.99999e-01,9.70222e-01,8.42771e-01,9.99999e-01
9.432408771e-01,8.30176e-01,9.99999e-01,9.81732e-01,8.45623e-01,9.99999e-01
9.479570815e-01,8.40431e-01,9.99999e-01,9.90572e-01,8.48429e-01,9.99999e-01
9.526968669e-01,8.47317e-01,9.99999e-01,9.95451e-01,8.51188e-01,9.99999e-01
9.574603512e-01,8.52241e-01,9.99999e-01,9.98054e-01,8.53901e-01,9.99999e-01
9.622476530e-01,8.56050e-01,9.99999e-01,9.99393e-01,8.56569e-01,9.99999e-01
9.670588912e-01,8.59037e-01,9.99999e-01,9.99818e-01,8.59193e-01,9.99999e-01
9.718941857e-01,8.61761e-01,9.99999e-01,9.99986e-01,8.61772e-01,9.99999e-01
9.767536566e-01,8.64308e-01,9.99999e-01,9.99999e-01,8.64308e-01,9.99999e-01
9.816374249e-01,8.66801e-01,9.99999e-01,9.99999e-01,8.66801e-01,9.99999e-01
9.865456120e-01,8.69252e-01,9.99999e-01,9.99999e-01,8.69252e-01,9.99999e-01
9.914783401e-01,8.71661e-01,9.99999e-01,9.99999e-01,8.71661e-01,9.99999e-01
9.964357318e-01,8.74029e-01,9.99999e-01,9.99999e-01,8.74029e-01,9.99999e-01
1.001417910e+00,8.76357e-01,9.99999e-01,9.99999e-01,8.76357e-01,9.99999e-01
1.006425000e+00,8.78645e-01,9.99999e-01,9.99999e-01,8.78645e-01,9.99999e-01
1.011457125e+00,8.80893e-01,9.99999e-01,9.99999e-01,8.80893e-01,9.99999e-01
1.016514411e+00,8.83102e-01,9.99999e-01,9.99999e-01,8.83102e-01,9.99999e-01
1.021596983e+00,8.85248e-01,9.99999e-01,9.99970e-01,8.85273e-01,9.99999e-01
1.026704968e+00,8.85700e-01,9.99999e-01,9.98076e-01,8.87407e-01,9.99999e-01
1.031838492e+00,8.63222e-01,9.99999e-01,9.70453e-01,8.89503e-01,9.99999e-01
1.036997685e+00,2.47849e-01,9.99999e-01,2.77994e-01,8.91563e-01,9.99999e-01
1.042182673e+00,2.95332e-01,9.99999e-01,3.30501e-01,8.93586e-01,9.99999e-01
1.047393587e+00,2.73566e-01,9.99999e-01,3.05464e-01,8.95574e-01,9.99999e-01
1.052630555e+00,3.89844e-02,9.99999e-01,4.34353e-02,8.97527e-01,9.99999e-01
1.057893707e+00,7.49895e-02,9.99999e-01,8.33728e-02,8.99446e-01,9.99999e-01
1.063183176e+00,1.48537e-01,9.99999e-01,1.64797e-01,9.01331e-01,9.99999e-01
1.068499092e+00,2.69664e-01,9.99999e-01,2.98571e-01,9.03182e-01,9.99999e-01
1.073841587e+00,4.23418e-01,9.99999e-01,4.67865e-01,9.05001e-01,9.99999e-01
1.079210795e+00,5.61412e-01,9.99999e-01,6.19122e-01,9.06787e-01,9.99999e-01
1.084606849e+00,6.99589e-01,9.99999e-01,7.70013e-01,9.08541e-01,9.99999e-01
1.090029883e+00,7.94960e-01,9.99999e-01,8.73328e-01,9.10264e-01,9.99999e-01
1.095480033e+00,8.53218e-01,9.99999e-01,9.35590e-01,9.11956e-01,9.99999e-01
1.100957433e+00,8.84806e-01,9.99999e-01,9.68463e-01,9.13618e-01,9.99999e-01
1.106462220e+00,9.03224e-01,9.99999e-01,9.86860e-01,9.15250e-01,9.99999e-01
1.111994531e+00,9.12370e-01,9.99999e-01,9.95111e-01,9.16852e-01,9.99999e-01
1.117554504e+00,9.17333e-01,9.99999e-01,9.98809e-01,9.18425e-01,9.99999e-01
1.123142276e+00,9.19899e-01,9.99999e-01,9.99921e-01,9.19970e-01,9.99999e-01
1.128757988e+00,9.21487e-01,9.99999e-01,9.99999e-01,9.21487e-01,9.99999e-01
1.134401778e+00,9.22977e-01,9.99999e-01,9.99999e-01,9.22977e-01,9.99999e-01
1.140073787e+00,9.24439e-01,9.99999e-01,9.99999e-01,9.24439e-01,9.99999e-01
1.145774156e+00,9.25875e-01,9.99999e-01,9.99999e-01,9.25875e-01,9.99999e-01
1.151503026e+00,9.27285e-01,9.99999e-01,9.99999e-01,9.27285e-01,9.99999e-01
1.157260541e+00,9.28668e-01,9.99999e-01,9.99999e-01,9.28668e-01,9.99999e-01
1.163046844e+00,9.30027e-01,9.99999e-01,9.99999e-01,9.30027e-01,9.99999e-01
1.168862078e+00,9.31360e-01,9.99999e-01,9.99999e-01,9.31360e-01,9.99999e-01
1.174706389e+00,9.32669e-01,9.99999e-01,9.99999e-01,9.32669e-01,9.99999e-01
1.180579921e+00,9.33954e-01,9.99999e-01,9.99999e-01,9.33954e-01,9.99999e-01
1.186482820e+00,9.35212e-01,9.99999e-01,9.99995e-01,9.35216e-01,9.99999e-01
1.192415234e+00,9.29958e-01,9.99999e-01,9.93063e-01,9.36454e-01,9.99999e-01
1.198377311e+00,5.46338e-01,9.99999e-01,5.82654e-01,9.37669e-01,9.99999e-01
1.204369197e+00,9.57639e-07,9.99999e-01,1.02000e-06,9.38862e-01,9.99999e-01
1.210391043e+00,1.43690e-21,9.99999e-01,1.52856e-21,9.40032e-01,9.99999e-01
1.216442998e+00,6.48414e-19,9.99999e-01,6.88935e-19,9.41181e-01,9.99999e-01
1.222525213e+00,1.21071e-18,9.99999e-01,1.28483e-18,9.42309e-01,9.99999e-01
1.228637839e+00,2.37683e-14,9.99999e-01,2.51938e-14,9.43416e-01,9.99999e-01
1.234781029e+00,6.43194e-10,9.99999e-01,6.80987e-10,9.44502e-01,9.99999e-01
1.240954934e+00,1.01818e-06,9.99999e-01,1.07679e-06,9.45567e-01,9.99999e-01
1.247159708e+00,4.23433e-04,9.99999e-01,4.47313e-04,9.46613e-01,9.99999e-01
1.253395507e+00,1.34285e-02,9.99999e-01,1.41705e-02,9.47640e-01,9.99999e-01
1.259662485e+00,8.46029e-02,9.99999e-01,8.91826e-02,9.48647e-01,9.99999e-01
1.265960797e+00,2.34440e-01,9.99999e-01,2.46873e-01,9.49635e-01,9.99999e-01
1.272290601e+00,5.35045e-01,9.99999e-01,5.62846e-01,9.50605e-01,9.99999e-01
1.278652054e+00,4.69654e-01,9.99999e-01,4.93564e-01,9.51557e-01,9.99999e-01
1.285045314e+00,2.65783e-02,9.99999e-01,2.79040e-02,9.52491e-01,9.99999e-01
1.291470541e+00,3.22252e-03,9.99999e-01,3.38000e-03,9.53407e-01,9.99999e-01
1.297927893e+00,6.17398e-02,9.99999e-01,6.46960e-02,9.54306e-01,9.99999e-01
1.304417533e+00,3.36616e-01,9.99999e-01,3.52408e-01,9.55188e-01,9.99999e-01
1.310939621e+00,6.31584e-02,9.99999e-01,6.60615e-02,9.56053e-01,9.99999e-01
1.317494319e+00,7.11197e-08,9.99999e-01,7.43228e-08,9.56902e-01,9.99999e-01
1.324081790e+00,6.29906e-05,9.99999e-01,6.57703e-05,9.57735e-01,9.99999e-01
1.330702199e+00,1.99308e-03,9.99999e-01,2.07926e-03,9.58552e-01,9.99999e-01
1.337355710e+00,1.46808e-03,9.99999e-01,1.53028e-03,9.59354e-01,9.99999e-01
1.344042489e+00,4.81981e-04,9.99999e-01,5.01989e-04,9.60141e-01,9.99999e-01
1.350762701e+00,1.53742e-03,9.99999e-01,1.59996e-03,9.60913e-01,9.99999e-01
1.357516515e+00,1.40096e-02,9.99999e-01,1.45680e-02,9.61670e-01,9.99999e-01
1.364304097e+00,6.87365e-02,9.99999e-01,7.14210e-02,9.62412e-01,9.99999e-01
1.371125618e+00,2.39379e-01,9.99999e-01,2.48539e-01,9.63141e-01,9.99999e-01
1.377981246e+00,3.15929e-01,9.99999e-01,3.27776e-01,9.63856e-01,9.99999e-01
1.384871152e+00,5.04193e-01,9.99999e-01,5.22720e-01,9.64557e-01,9.99999e-01
1.391795508e+00,5.30304e-01,9.99999e-01,5.49398e-01,9.65244e-01,9.99999e-01
1.398754485e+00,6.68384e-01,9.99999e-01,6.91967e-01,9.65919e-01,9.99999e-01
1.405748258e+00,7.36739e-01,9.99999e-01,7.62211e-01,9.66581e-01,9.99999e-01
1.412776999e+00,8.15125e-01,9.99999e-01,8.42741e-01,9.67230e-01,9.99999e-01
1.419840884e+00,7.51556e-01,9.99999e-01,7.76507e-01,9.67867e-01,9.99999e-01
1.426940089e+00,9.90029e-02,9.99999e-01,1.02224e-01,9.68491e-01,9.99999e-01
1.434074789e+00,1.50598e-304,9.99999e-01,1.55399e-304,9.69104e-01,9.99999e-01
1.441245163e+00,0.00000e+00,9.99999e-01,0.00000e+00,9.69705e-01,9.99999e-01
1.448451389e+00,0.00000e+00,9.99999e-01,0.00000e+00,9.70294e-01,9.99999e-01
1.455693646e+00,2.70155e-165,9.99999e-01,2.78260e-165,9.70872e-01,9.99999e-01
1.462972114e+00,1.14221e-80,9.99999e-01,1.17580e-80,9.71440e-01,9.99999e-01
1.470286975e+00,1.62964e-34,9.99999e-01,1.67659e-34,9.71996e-01,9.99999e-01
