#,Wave/freq,Total,O2,CO2,Rayleigh,CIA
4.000000000e-01,2.04339e-13,9.99999e-01,9.99999e-01,2.04339e-13,9.99999e-01
4.020000000e-01,3.64138e-13,9.99999e-01,9.99999e-01,3.64138e-13,9.99999e-01
4.040100000e-01,6.41153e-13,9.99999e-01,9.99999e-01,6.41153e-13,9.99999e-01
4.060300500e-01,1.11636e-12,9.99999e-01,9.99999e-01,1.11636e-12,9.99999e-01
4.080602003e-01,1.92260e-12,9.99999e-01,9.99999e-01,1.92260e-12,9.99999e-01
4.101005013e-01,3.27576e-12,9.99999e-01,9.99999e-01,3.27576e-12,9.99999e-01
4.121510038e-01,5.52285e-12,9.99999e-01,9.99999e-01,5.52285e-12,9.99999e-01
4.142117588e-01,9.21581e-12,9.99999e-01,9.99999e-01,9.21581e-12,9.99999e-01
4.162828176e-01,1.52234e-11,9.99999e-01,9.99999e-01,1.52234e-11,9.99999e-01
4.183642317e-01,2.48991e-11,9.99999e-01,9.99999e-01,2.48991e-11,9.99999e-01
4.204560528e-01,4.03306e-11,9.99999e-01,9.99999e-01,4.03306e-11,9.99999e-01
4.225583331e-01,6.47067e-11,9.99999e-01,9.99999e-01,6.47067e-11,9.99999e-01
4.246711247e-01,1.02851e-10,9.99999e-01,9.99999e-01,1.02851e-10,9.99999e-01
4.267944804e-01,1.61991e-10,9.99999e-01,9.99999e-01,1.61991e-10,9.99999e-01
4.289284528e-01,2.52859e-10,9.99999e-01,9.99999e-01,2.52859e-10,9.99999e-01
4.310730950e-01,3.91242e-10,9.99999e-01,9.99999e-01,3.91242e-10,9.99999e-01
4.332284605e-01,6.00162e-10,9.99999e-01,9.99999e-01,6.00162e-10,9.99999e-01
4.353946028e-01,9.12894e-10,9.99999e-01,9.99999e-01,9.12894e-10,9.99999e-01
4.375715758e-01,1.37713e-09,9.99999e-01,9.99999e-01,1.37713e-09,9.99999e-01
4.397594337e-01,2.06064e-09,9.99999e-01,9.99999e-01,2.06064e-09,9.99999e-01
4.419582309e-01,3.05894e-09,9.99999e-01,9.99999e-01,3.05894e-09,9.99999e-01
4.441680220e-01,4.50560e-09,9.99999e-01,9.99999e-01,4.50560e-09,9.99999e-01
4.463888621e-01,6.58585e-09,9.99999e-01,9.99999e-01,6.58585e-09,9.99999e-01
4.486208064e-01,9.55464e-09,9.99999e-01,9.99999e-01,9.55464e-09,9.99999e-01
4.508639105e-01,1.37602e-08,9.99999e-01,9.99999e-01,1.37602e-08,9.99999e-01
4.531182300e-01,1.96746e-08,9.99999e-01,9.99999e-01,1.96746e-08,9.99999e-01
4.553838212e-01,2.79332e-08,9.99999e-01,9.99999e-01,2.79332e-08,9.99999e-01
4.576607403e-01,3.93848e-08,9.99999e-01,9.99999e-01,3.93848e-08,9.99999e-01
4.599490440e-01,5.51556e-08,9.99999e-01,9.99999e-01,5.51556e-08,9.99999e-01
4.622487892e-01,7.67293e-08,9.99999e-01,9.99999e-01,7.67293e-08,9.99999e-01
4.645600332e-01,1.06048e-07,9.99999e-01,9.99999e-01,1.06048e-07,9.99999e-01
4.668828333e-01,1.45635e-07,9.99999e-01,9.99999e-01,1.45635e-07,9.99999e-01
4.692172475e-01,1.98750e-07,9.99999e-01,9.99999e-01,1.98750e-07,9.99999e-01
4.715633337e-01,2.69576e-07,9.99999e-01,9.99999e-01,2.69576e-07,9.99999e-01
4.739211504e-01,3.63448e-07,9.99999e-01,9.99999e-01,3.63448e-07,9.99999e-01
4.762907561e-01,4.87124e-07,9.99999e-01,9.99999e-01,4.87124e-07,9.99999e-01
4.786722099e-01,6.49119e-07,9.99999e-01,9.99999e-01,6.49119e-07,9.99999e-01
4.810655710e-01,8.60094e-07,9.99999e-01,9.99999e-01,8.60094e-07,9.99999e-01
4.834708988e-01,1.13332e-06,9.99999e-01,9.99999e-01,1.13332e-06,9.99999e-01
4.858882533e-01,1.48523e-06,9.99999e-01,9.99999e-01,1.48523e-06,9.99999e-01
4.883176946e-01,1.93605e-06,9.99999e-01,9.99999e-01,1.93605e-06,9.99999e-01
4.907592831e-01,2.51052e-06,9.99999e-01,9.99999e-01,2.51052e-06,9.99999e-01
4.932130795e-01,3.23879e-06,9.99999e-01,9.99999e-01,3.23879e-06,9.99999e-01
4.956791449e-01,4.15735e-06,9.99999e-01,9.99999e-01,4.15735e-06,9.99999e-01
4.981575406e-01,5.31016e-06,9.99999e-01,9.99999e-01,5.31016e-06,9.99999e-01
5.006483283e-01,6.74994e-06,9.99999e-01,9.99999e-01,6.74994e-06,9.99999e-01
5.031515699e-01,8.53953e-06,9.99999e-01,9.99999e-01,8.53953e-06,9.99999e-01
5.056673278e-01,1.07535e-05,9.99999e-01,9.99999e-01,1.07535e-05,9.99999e-01
5.081956644e-01,1.34800e-05,9.99999e-01,9.99999e-01,1.34800e-05,9.99999e-01
5.107366428e-01,1.68225e-05,9.99999e-01,9.99999e-01,1.68225e-05,9.99999e-01
5.132903260e-01,2.09022e-05,9.99999e-01,9.99999e-01,2.09022e-05,9.99999e-01
5.158567776e-01,2.58600e-05,9.99999e-01,9.99999e-01,2.58600e-05,9.99999e-01
5.184360615e-01,3.18597e-05,9.99999e-01,9.99999e-01,3.18597e-05,9.99999e-01
5.210282418e-01,3.90898e-05,9.99999e-01,9.99999e-01,3.90898e-05,9.99999e-01
5.236333830e-01,4.77673e-05,9.99999e-01,9.99999e-01,4.77673e-05,9.99999e-01
5.262515499e-01,5.81405e-05,9.99999e-01,9.99999e-01,5.81405e-05,9.99999e-01
5.288828077e-01,7.04921e-05,9.99999e-01,9.99999e-01,7.04921e-05,9.99999e-01
5.315272217e-01,8.51433e-05,9.99999e-01,9.99999e-01,8.51433e-05,9.99999e-01
5.341848578e-01,1.02457e-04,9.99999e-01,9.99999e-01,1.02457e-04,9.99999e-01
5.368557821e-01,1.22840e-04,9.99999e-01,9.99999e-01,1.22840e-04,9.99999e-01
5.395400610e-01,1.46753e-04,9.99999e-01,9.99999e-01,1.46753e-04,9.99999e-01
5.422377613e-01,1.74705e-04,9.99999e-01,9.99999e-01,1.74705e-04,9.99999e-01
5.449489501e-01,2.07267e-04,9.99999e-01,9.99999e-01,2.07267e-04,9.99999e-01
5.476736949e-01,2.45069e-04,9.99999e-01,9.99999e-01,2.45069e-04,9.99999e-01
5.504120634e-01,2.88807e-04,9.99999e-01,9.99999e-01,2.88807e-04,9.99999e-01
5.531641237e-01,3.39250e-04,9.99999e-01,9.99999e-01,3.39250e-04,9.99999e-01
5.559299443e-01,3.97238e-04,9.99999e-01,9.99999e-01,3.97238e-04,9.99999e-01
5.587095940e-01,4.63690e-04,9.99999e-01,9.99999e-01,4.63690e-04,9.99999e-01
5.615031420e-01,5.39608e-04,9.99999e-01,9.99999e-01,5.39608e-04,9.99999e-01
5.643106577e-01,6.26077e-04,9.99999e-01,9.99999e-01,6.26077e-04,9.99999e-01
5.671322110e-01,7.24273e-04,9.99999e-01,9.99999e-01,7.24273e-04,9.99999e-01
5.699678720e-01,8.35462e-04,9.99999e-01,9.99999e-01,8.35462e-04,9.99999e-01
5.728177114e-01,9.61007e-04,9.99999e-01,9.99999e-01,9.61007e-04,9.99999e-01
5.756818000e-01,1.10236e-03,9.99999e-01,9.99999e-01,1.10236e-03,9.99999e-01
5.785602090e-01,1.26109e-03,9.99999e-01,9.99999e-01,1.26109e-03,9.99999e-01
5.814530100e-01,1.43884e-03,9.99999e-01,9.99999e-01,1.43884e-03,9.99999e-01
5.843602750e-01,1.63738e-03,9.99999e-01,9.99999e-01,1.63738e-03,9.99999e-01
5.872820764e-01,1.85856e-03,9.99999e-01,9.99999e-01,1.85856e-03,9.99999e-01
5.902184868e-01,2.10435e-03,9.99999e-01,9.99999e-01,2.10435e-03,9.99999e-01
5.931695792e-01,2.37680e-03,9.99999e-01,9.99999e-01,2.37680e-03,9.99999e-01
5.961354271e-01,2.67808e-03,9.99999e-01,9.99999e-01,2.67808e-03,9.99999e-01
5.991161043e-01,3.01044e-03,9.99999e-01,9.99999e-01,3.01044e-03,9.99999e-01
6.021116848e-01,3.37624e-03,9.99999e-01,9.99999e-01,3.37624e-03,9.99999e-01
6.051222432e-01,3.77793e-03,9.99999e-01,9.99999e-01,3.77793e-03,9.99999e-01
6.081478544e-01,4.21802e-03,9.99999e-01,9.99999e-01,4.21802e-03,9.99999e-01
6.111885937e-01,4.69914e-03,9.99999e-01,9.99999e-01,4.69914e-03,9.99999e-01
6.142445367e-01,5.22399e-03,9.99999e-01,9.99999e-01,5.22399e-03,9.99999e-01
6.173157594e-01,5.79532e-03,9.99999e-01,9.99999e-01,5.79532e-03,9.99999e-01
6.204023382e-01,6.41596e-03,9.99999e-01,9.99999e-01,6.41596e-03,9.99999e-01
6.235043498e-01,7.08882e-03,9.99999e-01,9.99999e-01,7.08882e-03,9.99999e-01
6.266218716e-01,7.81683e-03,9.99999e-01,9.99999e-01,7.81683e-03,9.99999e-01
6.297549810e-01,8.60297e-03,9.99999e-01,9.99999e-01,8.60297e-03,9.99999e-01
6.329037559e-01,9.45027e-03,9.99999e-01,9.99999e-01,9.45027e-03,9.99999e-01
6.360682746e-01,1.03618e-02,9.99999e-01,9.99999e-01,1.03618e-02,9.99999e-01
6.392486160e-01,1.13406e-02,9.99999e-01,9.99999e-01,1.13406e-02,9.99999e-01
6.424448591e-01,1.23897e-02,9.99999e-01,9.99999e-01,1.23897e-02,9.99999e-01
6.456570834e-01,1.35122e-02,9.99999e-01,9.99999e-01,1.35122e-02,9.99999e-01
6.488853688e-01,1.47112e-02,9.99999e-01,9.99999e-01,1.47112e-02,9.99999e-01
6.521297956e-01,1.59898e-02,9.99999e-01,9.99999e-01,1.59898e-02,9.99999e-01
6.553904446e-01,1.73509e-02,9.99999e-01,9.99999e-01,1.73509e-02,9.99999e-01
6.586673968e-01,1.87975e-02,9.99999e-01,9.99999e-01,1.87975e-02,9.99999e-01
6.619607338e-01,2.03325e-02,9.99999e-01,9.99999e-01,2.03325e-02,9.99999e-01
6.652705375e-01,2.19587e-02,9.99999e-01,9.99999e-01,2.19587e-02,9.99999e-01
6.685968902e-01,2.36791e-02,9.99999e-01,9.99999e-01,2.36791e-02,9.99999e-01
6.719398746e-01,2.54962e-02,9.99999e-01,9.99999e-01,2.54962e-02,9.99999e-01
6.752995740e-01,2.74127e-02,9.99999e-01,9.99999e-01,2.74127e-02,9.99999e-01
6.786760719e-01,2.94310e-02,9.99999e-01,9.99999e-01,2.94310e-02,9.99999e-01
6.820694522e-01,3.15537e-02,9.99999e-01,9.99999e-01,3.15537e-02,9.99999e-01
6.854797995e-01,3.37830e-02,9.99999e-01,9.99999e-01,3.37830e-02,9.99999e-01
6.889071985e-01,3.61210e-02,9.99999e-01,9.99999e-01,3.61210e-02,9.99999e-01
6.923517345e-01,3.85698e-02,9.99999e-01,9.99999e-01,3.85698e-02,9.99999e-01
6.958134932e-01,4.11313e-02,9.99999e-01,9.99999e-01,4.11313e-02,9.99999e-01
6.992925606e-01,4.38073e-02,9.99999e-01,9.99999e-01,4.38073e-02,9.99999e-01
7.027890234e-01,4.65993e-02,9.99999e-01,9.99999e-01,4.65993e-02,9.99999e-01
7.063029686e-01,4.95087e-02,9.99999e-01,9.99999e-01,4.95087e-02,9.99999e-01
7.098344834e-01,5.25370e-02,9.99999e-01,9.99999e-01,5.25370e-02,9.99999e-01
7.133836558e-01,5.56851e-02,9.99999e-01,9.99999e-01,5.56851e-02,9.99999e-01
7.169505741e-01,5.89541e-02,9.99999e-01,9.99999e-01,5.89541e-02,9.99999e-01
7.205353270e-01,6.23446e-02,9.99999e-01,9.99999e-01,6.23446e-02,9.99999e-01
7.241380036e-01,6.58574e-02,9.99999e-01,9.99999e-01,6.58574e-02,9.99999e-01
7.277586936e-01,6.94929e-02,9.99999e-01,9.99999e-01,6.94929e-02,9.99999e-01
7.313974871e-01,7.32512e-02,9.99999e-01,9.99999e-01,7.32512e-02,9.99999e-01
7.350544745e-01,7.71325e-02,9.99999e-01,9.99999e-01,7.71325e-02,9.99999e-01
7.387297469e-01,8.11367e-02,9.99999e-01,9.99999e-01,8.11367e-02,9.99999e-01
7.424233956e-01,8.52635e-02,9.99999e-01,9.99999e-01,8.52635e-02,9.99999e-01
7.461355126e-01,8.95124e-02,9.99999e-01,9.99999e-01,8.95124e-02,9.99999e-01
7.498661902e-01,9.38828e-02,9.99999e-01,9.99999e-01,9.38828e-02,9.99999e-01
7.536155211e-01,9.83739e-02,9.99999e-01,9.99999e-01,9.83739e-02,9.99999e-01
7.573835987e-01,1.02985e-01,9.99999e-01,9.99999e-01,1.02985e-01,9.99999e-01
7.611705167e-01,1.07714e-01,9.99999e-01,9.99999e-01,1.07714e-01,9.99999e-01
7.649763693e-01,1.12561e-01,9.99999e-01,9.99999e-01,1.12561e-01,9.99999e-01
7.688012511e-01,1.17524e-01,9.99999e-01,9.99999e-01,1.17524e-01,9.99999e-01
7.726452574e-01,1.22601e-01,9.99999e-01,9.99999e-01,1.22601e-01,9.99999e-01
7.765084837e-01,1.27790e-01,9.99999e-01,9.99999e-01,1.27790e-01,9.99999e-01
7.803910261e-01,1.22688e-01,9.99999e-01,9.21838e-01,1.33090e-01,9.99999e-01
7.842929812e-01,9.21977e-02,9.99999e-01,6.65691e-01,1.38499e-01,9.99999e-01
7.882144461e-01,9.38093e-02,9.99999e-01,6.51389e-01,1.44014e-01,9.99999e-01
7.921555184e-01,1.15164e-01,9.99999e-01,7.69640e-01,1.49633e-01,9.99999e-01
7.961162960e-01,1.30042e-01,9.99999e-01,8.37064e-01,1.55355e-01,9.99999e-01
8.000968774e-01,1.46355e-01,9.99999e-01,9.08052e-01,1.61175e-01,9.99999e-01
8.040973618e-01,1.58914e-01,9.99999e-01,9.51054e-01,1.67092e-01,9.99999e-01
8.081178486e-01,1.69169e-01,9.99999e-01,9.77272e-01,1.73103e-01,9.99999e-01
8.121584379e-01,1.77930e-01,9.99999e-01,9.92885e-01,1.79205e-01,9.99999e-01
8.162192301e-01,1.85103e-01,9.99999e-01,9.98424e-01,1.85395e-01,9.99999e-01
8.203003262e-01,1.91665e-01,9.99999e-01,9.99974e-01,1.91670e-01,9.99999e-01
8.244018279e-01,1.98028e-01,9.99999e-01,9.99999e-01,1.98028e-01,9.99999e-01
8.285238370e-01,2.04464e-01,9.99999e-01,9.99999e-01,2.04464e-01,9.99999e-01
8.326664562e-01,2.10976e-01,9.99999e-01,9.99999e-01,2.10976e-01,9.99999e-01
8.368297885e-01,2.17561e-01,9.99999e-01,9.99999e-01,2.17561e-01,9.99999e-01
8.410139374e-01,2.24216e-01,9.99999e-01,9.99999e-01,2.24216e-01,9.99999e-01
8.452190071e-01,2.30936e-01,9.99999e-01,9.99999e-01,2.30936e-01,9.99999e-01
8.494451021e-01,2.37720e-01,9.99999e-01,9.99999e-01,2.37720e-01,9.99999e-01
8.536923276e-01,2.44562e-01,9.99999e-01,9.99999e-01,2.44562e-01,9.99999e-01
8.579607893e-01,2.51461e-01,9.99999e-01,9.99999e-01,2.51461e-01,9.99999e-01
8.622505932e-01,2.58412e-01,9.99999e-01,9.99999e-01,2.58412e-01,9.99999e-01
8.665618462e-01,2.32786e-01,9.99999e-01,8.77073e-01,2.65412e-01,9.99999e-01
8.708946554e-01,1.00270e-01,9.99999e-01,3.68019e-01,2.72458e-01,9.99999e-01
8.752491287e-01,1.21621e-01,9.99999e-01,4.35065e-01,2.79546e-01,9.99999e-01
8.796253743e-01,1.79489e-01,9.99999e-01,6.26107e-01,2.86674e-01,9.99999e-01
8.840235012e-01,2.29599e-01,9.99999e-01,7.81384e-01,2.93836e-01,9.99999e-01
8.884436187e-01,2.72915e-01,9.99999e-01,9.06600e-01,3.01031e-01,9.99999e-01
8.928858368e-01,2.96246e-01,9.99999e-01,9.61041e-01,3.08255e-01,9.99999e-01
8.973502660e-01,3.12461e-01,9.99999e-01,9.90352e-01,3.15505e-01,9.99999e-01
9.018370173e-01,3.22431e-01,9.99999e-01,9.98930e-01,3.22776e-01,9.99999e-01
9.063462024e-01,3.21456e-01,9.99999e-01,9.73910e-01,3.30067e-01,9.99999e-01
9.108779334e-01,3.16930e-01,9.99999e-01,9.39403e-01,3.37373e-01,9.99999e-01
9.154323231e-01,3.39638e-01,9.99999e-01,9.85336e-01,3.44692e-01,9.99999e-01
9.200094847e-01,2.91743e-01,9.99999e-01,8.28766e-01,3.52021e-01,9.99999e-01
9.246095321e-01,2.65134e-01,9.99999e-01,7.37801e-01,3.59356e-01,9.99999e-01
9.292325798e-01,2.90440e-01,9.99999e-01,7.92049e-01,3.66695e-01,9.99999e-01
9.338787427e-01,2.97466e-01,9.99999e-01,7.95292e-01,3.74034e-01,9.99999e-01
9.385481364e-01,3.21902e-01,9.99999e-01,8.44066e-01,3.81370e-01,9.99999e-01
9.432408771e-01,3.50129e-01,9.99999e-01,9.00764e-01,3.88701e-01,9.99999e-01
9.479570815e-01,3.75370e-01,9.99999e-01,9.47844e-01,3.96025e-01,9.99999e-01
9.526968669e-01,3.93050e-01,9.99999e-01,9.74494e-01,4.03337e-01,9.99999e-01
9.574603512e-01,4.06119e-01,9.99999e-01,9.89000e-01,4.10636e-01,9.99999e-01
9.622476530e-01,4.16479e-01,9.99999e-01,9.96553e-01,4.17919e-01,9.99999e-01
9.670588912e-01,4.24744e-01,9.99999e-01,9.98964e-01,4.25184e-01,9.99999e-01
9.718941857e-01,4.32395e-01,9.99999e-01,9.99925e-01,4.32427e-01,9.99999e-01
9.767536566e-01,4.39648e-01,9.99999e-01,9.99999e-01,4.39648e-01,9.99999e-01
9.816374249e-01,4.46842e-01,9.99999e-01,9.99999e-01,4.46842e-01,9.99999e-01
9.865456120e-01,4.54009e-01,9.99999e-01,9.99999e-01,4.54009e-01,9.99999e-01
9.914783401e-01,4.61146e-01,9.99999e-01,9.99999e-01,4.61146e-01,9.99999e-01
9.964357318e-01,4.68251e-01,9.99999e-01,9.99999e-01,4.68251e-01,9.99999e-01
1.001417910e+00,4.75321e-01,9.99999e-01,9.99999e-01,4.75321e-01,9.99999e-01
1.006425000e+00,4.82356e-01,9.99999e-01,9.99999e-01,4.82356e-01,9.99999e-01
1.011457125e+00,4.89353e-01,9.99999e-01,9.99999e-01,4.89353e-01,9.99999e-01
1.016514411e+00,4.96310e-01,9.99999e-01,9.99999e-01,4.96310e-01,9.99999e-01
1.021596983e+00,5.03158e-01,9.99999e-01,9.99866e-01,5.03225e-01,9.99999e-01
1.026704968e+00,5.04822e-01,9.99999e-01,9.89656e-01,5.10097e-01,9.99999e-01
1.031838492e+00,4.72720e-01,9.99999e-01,9.14483e-01,5.16925e-01,9.99999e-01
1.036997685e+00,3.03446e-02,9.99999e-01,5.79419e-02,5.23707e-01,9.99999e-01
1.042182673e+00,2.86502e-03,9.99999e-01,5.40120e-03,5.30441e-01,9.99999e-01
1.047393587e+00,7.05143e-03,9.99999e-01,1.31281e-02,5.37126e-01,9.99999e-01
1.052630555e+00,1.71264e-06,9.99999e-01,3.14963e-06,5.43761e-01,9.99999e-01
1.057893707e+00,6.31388e-06,9.99999e-01,1.14726e-05,5.50344e-01,9.99999e-01
1.063183176e+00,1.19985e-04,9.99999e-01,2.15461e-04,5.56874e-01,9.99999e-01
1.068499092e+00,1.04113e-03,9.99999e-01,1.84809e-03,5.63351e-01,9.99999e-01
1.073841587e+00,9.94538e-03,9.99999e-01,1.74550e-02,5.69773e-01,9.99999e-01
1.079210795e+00,4.51527e-02,9.99999e-01,7.83711e-02,5.76139e-01,9.99999e-01
1.084606849e+00,1.37707e-01,9.99999e-01,2.36427e-01,5.82448e-01,9.99999e-01
1.090029883e+00,2.76845e-01,9.99999e-01,4.70264e-01,5.88700e-01,9.99999e-01
1.095480033e+00,4.09517e-01,9.99999e-01,6.88387e-01,5.94894e-01,9.99999e-01
1.100957433e+00,5.01651e-01,9.99999e-01,8.34653e-01,6.01028e-01,9.99999e-01
1.106462220e+00,5.63286e-01,9.99999e-01,9.27826e-01,6.07103e-01,9.99999e-01
1.111994531e+00,5.96309e-01,9.99999e-01,9.72586e-01,6.13117e-01,9.99999e-01
1.117554504e+00,6.14871e-01,9.99999e-01,9.93217e-01,6.19070e-01,9.99999e-01
1.123142276e+00,6.24682e-01,9.99999e-01,9.99551e-01,6.24962e-01,9.99999e-01
1.128757988e+00,6.30791e-01,9.99999e-01,9.99999e-01,6.30791e-01,9.99999e-01
1.134401778e+00,6.36559e-01,9.99999e-01,9.99999e-01,6.36559e-01,9.99999e-01
1.140073787e+00,6.42263e-01,9.99999e-01,9.99999e-01,6.42263e-01,9.99999e-01
1.145774156e+00,6.47905e-01,9.99999e-01,9.99999e-01,6.47905e-01,9.99999e-01
1.151503026e+00,6.53483e-01,9.99999e-01,9.99999e-01,6.53483e-01,9.99999e-01
1.157260541e+00,6.58998e-01,9.99999e-01,9.99999e-01,6.58998e-01,9.99999e-01
1.163046844e+00,6.64449e-01,9.99999e-01,9.99999e-01,6.64449e-01,9.99999e-01
1.168862078e+00,6.69836e-01,9.99999e-01,9.99999e-01,6.69836e-01,9.99999e-01
1.174706389e+00,6.75159e-01,9.99999e-01,9.99999e-01,6.75159e-01,9.99999e-01
1.180579921e+00,6.80418e-01,9.99999e-01,9.99999e-01,6.80418e-01,9.99999e-01
1.186482820e+00,6.85602e-01,9.99999e-01,9.99984e-01,6.85612e-01,9.99999e-01
1.192415234e+00,6.66358e-01,9.99999e-01,9.64697e-01,6.90743e-01,9.99999e-01
1.198377311e+00,3.64829e-01,9.99999e-01,5.24323e-01,6.95809e-01,9.99999e-01
1.204369197e+00,1.39949e-27,9.99999e-01,1.99696e-27,7.00812e-01,9.99999e-01
1.210391043e+00,4.44034e-111,9.99999e-01,6.29165e-111,7.05751e-01,9.99999e-01
1.216442998e+00,3.78504e-96,9.99999e-01,5.32634e-96,7.10625e-01,9.99999e-01
1.222525213e+00,1.04376e-94,9.99999e-01,1.45891e-94,7.15437e-01,9.99999e-01
1.228637839e+00,4.28764e-73,9.99999e-01,5.95352e-73,7.20185e-01,9.99999e-01
1.234781029e+00,1.49084e-45,9.99999e-01,2.05671e-45,7.24869e-01,9.99999e-01
1.240954934e+00,2.88392e-30,9.99999e-01,3.95333e-30,7.29491e-01,9.99999e-01
1.247159708e+00,1.08358e-14,9.99999e-01,1.47617e-14,7.34050e-01,9.99999e-01
1.253395507e+00,5.57141e-10,9.99999e-01,7.54374e-10,7.38546e-01,9.99999e-01
1.259662485e+00,5.07442e-06,9.99999e-01,6.82981e-06,7.42981e-01,9.99999e-01
1.265960797e+00,1.01085e-03,9.99999e-01,1.35258e-03,7.47354e-01,9.99999e-01
1.272290601e+00,2.83915e-02,9.99999e-01,3.77714e-02,7.51665e-01,9.99999e-01
1.278652054e+00,3.23052e-02,9.99999e-01,4.27365e-02,7.55915e-01,9.99999e-01
1.285045314e+00,5.87746e-05,9.99999e-01,7.73242e-05,7.60105e-01,9.99999e-01
1.291470541e+00,3.16182e-13,9.99999e-01,4.13724e-13,7.64234e-01,9.99999e-01
1.297927893e+00,7.19088e-06,9.99999e-01,9.35940e-06,7.68304e-01,9.99999e-01
1.304417533e+00,2.77187e-03,9.99999e-01,3.58903e-03,7.72314e-01,9.99999e-01
1.310939621e+00,7.19883e-04,9.99999e-01,9.27366e-04,7.76266e-01,9.99999e-01
1.317494319e+00,6.97489e-38,9.99999e-01,8.94034e-38,7.80159e-01,9.99999e-01
1.324081790e+00,6.30041e-25,9.99999e-01,8.03629e-25,7.83994e-01,9.99999e-01
1.330702199e+00,7.89310e-15,9.99999e-01,1.00195e-14,7.87771e-01,9.99999e-01
1.337355710e+00,1.22791e-13,9.99999e-01,1.55139e-13,7.91492e-01,9.99999e-01
1.344042489e+00,6.28369e-14,9.99999e-01,7.90245e-14,7.95156e-01,9.99999e-01
1.350762701e+00,3.94506e-15,9.99999e-01,4.93895e-15,7.98765e-01,9.99999e-01
1.357516515e+00,2.40677e-09,9.99999e-01,2.99977e-09,8.02318e-01,9.99999e-01
1.364304097e+00,7.25743e-07,9.99999e-01,9.00631e-07,8.05816e-01,9.99999e-01
1.371125618e+00,6.69514e-04,9.99999e-01,8.27316e-04,8.09259e-01,9.99999e-01
1.377981246e+00,1.78988e-03,9.99999e-01,2.20253e-03,8.12649e-01,9.99999e-01
1.384871152e+00,2.30269e-02,9.99999e-01,2.82197e-02,8.15986e-01,9.99999e-01
1.391795508e+00,3.04366e-02,9.99999e-01,3.71508e-02,8.19271e-01,9.99999e-01
1.398754485e+00,1.03753e-01,9.99999e-01,1.26143e-01,8.22503e-01,9.99999e-01
1.405748258e+00,1.82349e-01,9.99999e-01,2.20846e-01,8.25683e-01,9.99999e-01
1.412776999e+00,3.16799e-01,9.99999e-01,3.82232e-01,8.28813e-01,9.99999e-01
1.419840884e+00,2.98020e-01,9.99999e-01,3.58242e-01,8.31893e-01,9.99999e-01
1.426940089e+00,1.17455e-02,9.99999e-01,1.40678e-02,8.34923e-01,9.99999e-01
1.434074789e+00,0.00000e+00,9.99999e-01,0.00000e+00,8.37903e-01,9.99999e-01
1.441245163e+00,0.00000e+00,9.99999e-01,0.00000e+00,8.40835e-01,9.99999e-01
1.448451389e+00,0.00000e+00,9.99999e-01,0.00000e+00,8.43720e-01,9.99999e-01
1.455693646e+00,0.00000e+00,9.99999e-01,0.00000e+00,8.46556e-01,9.99999e-01
1.462972114e+00,0.00000e+00,9.99999e-01,0.00000e+00,8.49346e-01,9.99999e-01
1.470286975e+00,5.25200e-184,9.99999e-01,6.16366e-184,8.52090e-01,9.99999e-01
