#,Wave/freq,Total,O2,CO2,Rayleigh,CIA
4.000000000e-01,1.71474e-03,9.99999e-01,9.99999e-01,1.71474e-03,9.99999e-01
4.020000000e-01,1.94485e-03,9.99999e-01,9.99999e-01,1.94485e-03,9.99999e-01
4.040100000e-01,2.20008e-03,9.99999e-01,9.99999e-01,2.20008e-03,9.99999e-01
4.060300500e-01,2.48274e-03,9.99999e-01,9.99999e-01,2.48274e-03,9.99999e-01
4.080602003e-01,2.79504e-03,9.99999e-01,9.99999e-01,2.79504e-03,9.99999e-01
4.101005013e-01,3.13927e-03,9.99999e-01,9.99999e-01,3.13927e-03,9.99999e-01
4.121510038e-01,3.51781e-03,9.99999e-01,9.99999e-01,3.51781e-03,9.99999e-01
4.142117588e-01,3.93314e-03,9.99999e-01,9.99999e-01,3.93314e-03,9.99999e-01
4.162828176e-01,4.38782e-03,9.99999e-01,9.99999e-01,4.38782e-03,9.99999e-01
4.183642317e-01,4.88450e-03,9.99999e-01,9.99999e-01,4.88450e-03,9.99999e-01
4.204560528e-01,5.42590e-03,9.99999e-01,9.99999e-01,5.42590e-03,9.99999e-01
4.225583331e-01,6.01481e-03,9.99999e-01,9.99999e-01,6.01481e-03,9.99999e-01
4.246711247e-01,6.65407e-03,9.99999e-01,9.99999e-01,6.65407e-03,9.99999e-01
4.267944804e-01,7.34661e-03,9.99999e-01,9.99999e-01,7.34661e-03,9.99999e-01
4.289284528e-01,8.09538e-03,9.99999e-01,9.99999e-01,8.09538e-03,9.99999e-01
4.310730950e-01,8.90337e-03,9.99999e-01,9.99999e-01,8.90337e-03,9.99999e-01
4.332284605e-01,9.77363e-03,9.99999e-01,9.99999e-01,9.77363e-03,9.99999e-01
4.353946028e-01,1.07092e-02,9.99999e-01,9.99999e-01,1.07092e-02,9.99999e-01
4.375715758e-01,1.17132e-02,9.99999e-01,9.99999e-01,1.17132e-02,9.99999e-01
4.397594337e-01,1.27886e-02,9.99999e-01,9.99999e-01,1.27886e-02,9.99999e-01
4.419582309e-01,1.39386e-02,9.99999e-01,9.99999e-01,1.39386e-02,9.99999e-01
4.441680220e-01,1.51661e-02,9.99999e-01,9.99999e-01,1.51661e-02,9.99999e-01
4.463888621e-01,1.64743e-02,9.99999e-01,9.99999e-01,1.64743e-02,9.99999e-01
4.486208064e-01,1.78661e-02,9.99999e-01,9.99999e-01,1.78661e-02,9.99999e-01
4.508639105e-01,1.93444e-02,9.99999e-01,9.99999e-01,1.93444e-02,9.99999e-01
4.531182300e-01,2.09122e-02,9.99999e-01,9.99999e-01,2.09122e-02,9.99999e-01
4.553838212e-01,2.25723e-02,9.99999e-01,9.99999e-01,2.25723e-02,9.99999e-01
4.576607403e-01,2.43275e-02,9.99999e-01,9.99999e-01,2.43275e-02,9.99999e-01
4.599490440e-01,2.61804e-02,9.99999e-01,9.99999e-01,2.61804e-02,9.99999e-01
4.622487892e-01,2.81336e-02,9.99999e-01,9.99999e-01,2.81336e-02,9.99999e-01
4.645600332e-01,3.01895e-02,9.99999e-01,9.99999e-01,3.01895e-02,9.99999e-01
4.668828333e-01,3.23507e-02,9.99999e-01,9.99999e-01,3.23507e-02,9.99999e-01
4.692172475e-01,3.46192e-02,9.99999e-01,9.99999e-01,3.46192e-02,9.99999e-01
4.715633337e-01,3.69972e-02,9.99999e-01,9.99999e-01,3.69972e-02,9.99999e-01
4.739211504e-01,3.94867e-02,9.99999e-01,9.99999e-01,3.94867e-02,9.99999e-01
4.762907561e-01,4.20896e-02,9.99999e-01,9.99999e-01,4.20896e-02,9.99999e-01
4.786722099e-01,4.48075e-02,9.99999e-01,9.99999e-01,4.48075e-02,9.99999e-01
4.810655710e-01,4.76420e-02,9.99999e-01,9.99999e-01,4.76420e-02,9.99999e-01
4.834708988e-01,5.05944e-02,9.99999e-01,9.99999e-01,5.05944e-02,9.99999e-01
4.858882533e-01,5.36661e-02,9.99999e-01,9.99999e-01,5.36661e-02,9.99999e-01
4.883176946e-01,5.68580e-02,9.99999e-01,9.99999e-01,5.68580e-02,9.99999e-01
4.907592831e-01,6.01710e-02,9.99999e-01,9.99999e-01,6.01710e-02,9.99999e-01
4.932130795e-01,6.36059e-02,9.99999e-01,9.99999e-01,6.36059e-02,9.99999e-01
4.956791449e-01,6.71632e-02,9.99999e-01,9.99999e-01,6.71632e-02,9.99999e-01
4.981575406e-01,7.08432e-02,9.99999e-01,9.99999e-01,7.08432e-02,9.99999e-01
5.006483283e-01,7.46462e-02,9.99999e-01,9.99999e-01,7.46462e-02,9.99999e-01
5.031515699e-01,7.85722e-02,9.99999e-01,9.99999e-01,7.85722e-02,9.99999e-01
5.056673278e-01,8.26209e-02,9.99999e-01,9.99999e-01,8.26209e-02,9.99999e-01
5.081956644e-01,8.67921e-02,9.99999e-01,9.99999e-01,8.67921e-02,9.99999e-01
5.107366428e-01,9.10852e-02,9.99999e-01,9.99999e-01,9.10852e-02,9.99999e-01
5.132903260e-01,9.54995e-02,9.99999e-01,9.99999e-01,9.54995e-02,9.99999e-01
5.158567776e-01,1.00034e-01,9.99999e-01,9.99999e-01,1.00034e-01,9.99999e-01
5.184360615e-01,1.04688e-01,9.99999e-01,9.99999e-01,1.04688e-01,9.99999e-01
5.210282418e-01,1.09461e-01,9.99999e-01,9.99999e-01,1.09461e-01,9.99999e-01
5.236333830e-01,1.14350e-01,9.99999e-01,9.99999e-01,1.14350e-01,9.99999e-01
5.262515499e-01,1.19354e-01,9.99999e-01,9.99999e-01,1.19354e-01,9.99999e-01
5.288828077e-01,1.24472e-01,9.99999e-01,9.99999e-01,1.24472e-01,9.99999e-01
5.315272217e-01,1.29702e-01,9.99999e-01,9.99999e-01,1.29702e-01,9.99999e-01
5.341848578e-01,1.35042e-01,9.99999e-01,9.99999e-01,1.35042e-01,9.99999e-01
5.368557821e-01,1.40489e-01,9.99999e-01,9.99999e-01,1.40489e-01,9.99999e-01
5.395400610e-01,1.46042e-01,9.99999e-01,9.99999e-01,1.46042e-01,9.99999e-01
5.422377613e-01,1.51699e-01,9.99999e-01,9.99999e-01,1.51699e-01,9.99999e-01
5.449489501e-01,1.57456e-01,9.99999e-01,9.99999e-01,1.57456e-01,9.99999e-01
5.476736949e-01,1.63312e-01,9.99999e-01,9.99999e-01,1.63312e-01,9.99999e-01
5.504120634e-01,1.69264e-01,9.99999e-01,9.99999e-01,1.69264e-01,9.99999e-01
5.531641237e-01,1.75308e-01,9.99999e-01,9.99999e-01,1.75308e-01,9.99999e-01
5.559299443e-01,1.81442e-01,9.99999e-01,9.99999e-01,1.81442e-01,9.99999e-01
5.587095940e-01,1.87663e-01,9.99999e-01,9.99999e-01,1.87663e-01,9.99999e-01
5.615031420e-01,1.93969e-01,9.99999e-01,9.99999e-01,1.93969e-01,9.99999e-01
5.643106577e-01,2.00355e-01,9.99999e-01,9.99999e-01,2.00355e-01,9.99999e-01
5.671322110e-01,2.06820e-01,9.99999e-01,9.99999e-01,2.06820e-01,9.99999e-01
5.699678720e-01,2.13359e-01,9.99999e-01,9.99999e-01,2.13359e-01,9.99999e-01
5.728177114e-01,2.19970e-01,9.99999e-01,9.99999e-01,2.19970e-01,9.99999e-01
5.756818000e-01,2.26648e-01,9.99999e-01,9.99999e-01,2.26648e-01,9.99999e-01
5.785602090e-01,2.33392e-01,9.99999e-01,9.99999e-01,2.33392e-01,9.99999e-01
5.814530100e-01,2.40197e-01,9.99999e-01,9.99999e-01,2.40197e-01,9.99999e-01
5.843602750e-01,2.47061e-01,9.99999e-01,9.99999e-01,2.47061e-01,9.99999e-01
5.872820764e-01,2.53979e-01,9.99999e-01,9.99999e-01,2.53979e-01,9.99999e-01
5.902184868e-01,2.60948e-01,9.99999e-01,9.99999e-01,2.60948e-01,9.99999e-01
5.931695792e-01,2.67965e-01,9.99999e-01,9.99999e-01,2.67965e-01,9.99999e-01
5.961354271e-01,2.75027e-01,9.99999e-01,9.99999e-01,2.75027e-01,9.99999e-01
5.991161043e-01,2.82130e-01,9.99999e-01,9.99999e-01,2.82130e-01,9.99999e-01
6.021116848e-01,2.89270e-01,9.99999e-01,9.99999e-01,2.89270e-01,9.99999e-01
6.051222432e-01,2.96445e-01,9.99999e-01,9.99999e-01,2.96445e-01,9.99999e-01
6.081478544e-01,3.03651e-01,9.99999e-01,9.99999e-01,3.03651e-01,9.99999e-01
6.111885937e-01,3.10885e-01,9.99999e-01,9.99999e-01,3.10885e-01,9.99999e-01
6.142445367e-01,3.18142e-01,9.99999e-01,9.99999e-01,3.18142e-01,9.99999e-01
6.173157594e-01,3.25421e-01,9.99999e-01,9.99999e-01,3.25421e-01,9.99999e-01
6.204023382e-01,3.32718e-01,9.99999e-01,9.99999e-01,3.32718e-01,9.99999e-01
6.235043498e-01,3.40029e-01,9.99999e-01,9.99999e-01,3.40029e-01,9.99999e-01
6.266218716e-01,3.47352e-01,9.99999e-01,9.99999e-01,3.47352e-01,9.99999e-01
6.297549810e-01,3.54684e-01,9.99999e-01,9.99999e-01,3.54684e-01,9.99999e-01
6.329037559e-01,3.62020e-01,9.99999e-01,9.99999e-01,3.62020e-01,9.99999e-01
6.360682746e-01,3.69359e-01,9.99999e-01,9.99999e-01,3.69359e-01,9.99999e-01
6.392486160e-01,3.76698e-01,9.99999e-01,9.99999e-01,3.76698e-01,9.99999e-01
6.424448591e-01,3.84033e-01,9.99999e-01,9.99999e-01,3.84033e-01,9.99999e-01
6.456570834e-01,3.91361e-01,9.99999e-01,9.99999e-01,3.91361e-01,9.99999e-01
6.488853688e-01,3.98681e-01,9.99999e-01,9.99999e-01,3.98681e-01,9.99999e-01
6.521297956e-01,4.05989e-01,9.99999e-01,9.99999e-01,4.05989e-01,9.99999e-01
6.553904446e-01,4.13282e-01,9.99999e-01,9.99999e-01,4.13282e-01,9.99999e-01
6.586673968e-01,4.20559e-01,9.99999e-01,9.99999e-01,4.20559e-01,9.99999e-01
6.619607338e-01,4.27816e-01,9.99999e-01,9.99999e-01,4.27816e-01,9.99999e-01
6.652705375e-01,4.35052e-01,9.99999e-01,9.99999e-01,4.35052e-01,9.99999e-01
6.685968902e-01,4.42263e-01,9.99999e-01,9.99999e-01,4.42263e-01,9.99999e-01
6.719398746e-01,4.49448e-01,9.99999e-01,9.99999e-01,4.49448e-01,9.99999e-01
6.752995740e-01,4.56604e-01,9.99999e-01,9.99999e-01,4.56604e-01,9.99999e-01
6.786760719e-01,4.63729e-01,9.99999e-01,9.99999e-01,4.63729e-01,9.99999e-01
6.820694522e-01,4.70822e-01,9.99999e-01,9.99999e-01,4.70822e-01,9.99999e-01
6.854797995e-01,4.77880e-01,9.99999e-01,9.99999e-01,4.77880e-01,9.99999e-01
6.889071985e-01,4.84901e-01,9.99999e-01,9.99999e-01,4.84901e-01,9.99999e-01
6.923517345e-01,4.91883e-01,9.99999e-01,9.99999e-01,4.91883e-01,9.99999e-01
6.958134932e-01,4.98825e-01,9.99999e-01,9.99999e-01,4.98825e-01,9.99999e-01
6.992925606e-01,5.05725e-01,9.99999e-01,9.99999e-01,5.05725e-01,9.99999e-01
7.027890234e-01,5.12582e-01,9.99999e-01,9.99999e-01,5.12582e-01,9.99999e-01
7.063029686e-01,5.19393e-01,9.99999e-01,9.99999e-01,5.19393e-01,9.99999e-01
7.098344834e-01,5.26157e-01,9.99999e-01,9.99999e-01,5.26157e-01,9.99999e-01
7.133836558e-01,5.32874e-01,9.99999e-01,9.99999e-01,5.32874e-01,9.99999e-01
7.169505741e-01,5.39541e-01,9.99999e-01,9.99999e-01,5.39541e-01,9.99999e-01
7.205353270e-01,5.46157e-01,9.99999e-01,9.99999e-01,5.46157e-01,9.99999e-01
7.241380036e-01,5.52721e-01,9.99999e-01,9.99999e-01,5.52721e-01,9.99999e-01
7.277586936e-01,5.59232e-01,9.99999e-01,9.99999e-01,5.59232e-01,9.99999e-01
7.313974871e-01,5.65689e-01,9.99999e-01,9.99999e-01,5.65689e-01,9.99999e-01
7.350544745e-01,5.72091e-01,9.99999e-01,9.99999e-01,5.72091e-01,9.99999e-01
7.387297469e-01,5.78436e-01,9.99999e-01,9.99999e-01,5.78436e-01,9.99999e-01
7.424233956e-01,5.84725e-01,9.99999e-01,9.99999e-01,5.84725e-01,9.99999e-01
7.461355126e-01,5.90956e-01,9.99999e-01,9.99999e-01,5.90956e-01,9.99999e-01
7.498661902e-01,5.97128e-01,9.99999e-01,9.99999e-01,5.97128e-01,9.99999e-01
7.536155211e-01,6.03241e-01,9.99999e-01,9.99999e-01,6.03241e-01,9.99999e-01
7.573835987e-01,6.09293e-01,9.99999e-01,9.99999e-01,6.09293e-01,9.99999e-01
7.611705167e-01,6.15285e-01,9.99999e-01,9.99999e-01,6.15285e-01,9.99999e-01
7.649763693e-01,6.21216e-01,9.99999e-01,9.99999e-01,6.21216e-01,9.99999e-01
7.688012511e-01,6.27086e-01,9.99999e-01,9.99999e-01,6.27086e-01,9.99999e-01
7.726452574e-01,6.32893e-01,9.99999e-01,9.99999e-01,6.32893e-01,9.99999e-01
7.765084837e-01,6.38637e-01,9.99999e-01,9.99999e-01,6.38637e-01,9.99999e-01
7.803910261e-01,6.30556e-01,9.99999e-01,9.78638e-01,6.44319e-01,9.99999e-01
7.842929812e-01,5.91518e-01,9.99999e-01,9.10114e-01,6.49938e-01,9.99999e-01
7.882144461e-01,5.92551e-01,9.99999e-01,9.03978e-01,6.55493e-01,9.99999e-01
7.921555184e-01,6.23626e-01,9.99999e-01,9.43481e-01,6.60984e-01,9.99999e-01
7.961162960e-01,6.40961e-01,9.99999e-01,9.61807e-01,6.66412e-01,9.99999e-01
8.000968774e-01,6.57759e-01,9.99999e-01,9.79134e-01,6.71776e-01,9.99999e-01
8.040973618e-01,6.69716e-01,9.99999e-01,9.89130e-01,6.77075e-01,9.99999e-01
8.081178486e-01,6.78902e-01,9.99999e-01,9.95003e-01,6.82311e-01,9.99999e-01
8.121584379e-01,6.86418e-01,9.99999e-01,9.98450e-01,6.87482e-01,9.99999e-01
8.162192301e-01,6.92353e-01,9.99999e-01,9.99657e-01,6.92590e-01,9.99999e-01
8.203003262e-01,6.97629e-01,9.99999e-01,9.99994e-01,6.97633e-01,9.99999e-01
8.244018279e-01,7.02612e-01,9.99999e-01,9.99999e-01,7.02612e-01,9.99999e-01
8.285238370e-01,7.07528e-01,9.99999e-01,9.99999e-01,7.07528e-01,9.99999e-01
8.326664562e-01,7.12380e-01,9.99999e-01,9.99999e-01,7.12380e-01,9.99999e-01
8.368297885e-01,7.17168e-01,9.99999e-01,9.99999e-01,7.17168e-01,9.99999e-01
8.410139374e-01,7.21893e-01,9.99999e-01,9.99999e-01,7.21893e-01,9.99999e-01
8.452190071e-01,7.26554e-01,9.99999e-01,9.99999e-01,7.26554e-01,9.99999e-01
8.494451021e-01,7.31153e-01,9.99999e-01,9.99999e-01,7.31153e-01,9.99999e-01
8.536923276e-01,7.35690e-01,9.99999e-01,9.99999e-01,7.35690e-01,9.99999e-01
8.579607893e-01,7.40164e-01,9.99999e-01,9.99999e-01,7.40164e-01,9.99999e-01
8.622505932e-01,7.44576e-01,9.99999e-01,9.99999e-01,7.44576e-01,9.99999e-01
8.665618462e-01,7.08603e-01,9.99999e-01,9.46157e-01,7.48926e-01,9.99999e-01
8.708946554e-01,5.91568e-01,9.99999e-01,7.85390e-01,7.53215e-01,9.99999e-01
8.752491287e-01,6.24502e-01,9.99999e-01,8.24485e-01,7.57443e-01,9.99999e-01
8.796253743e-01,6.85547e-01,9.99999e-01,9.00127e-01,7.61611e-01,9.99999e-01
8.840235012e-01,7.25221e-01,9.99999e-01,9.47110e-01,7.65719e-01,9.99999e-01
8.884436187e-01,7.53466e-01,9.99999e-01,9.78822e-01,7.69767e-01,9.99999e-01
8.928858368e-01,7.67086e-01,9.99999e-01,9.91379e-01,7.73756e-01,9.99999e-01
8.973502660e-01,7.76051e-01,9.99999e-01,9.97896e-01,7.77686e-01,9.99999e-01
9.018370173e-01,7.81377e-01,9.99999e-01,9.99767e-01,7.81558e-01,9.99999e-01
9.063462024e-01,7.80729e-01,9.99999e-01,9.94087e-01,7.85372e-01,9.99999e-01
9.108779334e-01,7.78424e-01,9.99999e-01,9.86433e-01,7.89129e-01,9.99999e-01
9.154323231e-01,7.90286e-01,9.99999e-01,9.96792e-01,7.92829e-01,9.99999e-01
9.200094847e-01,7.59428e-01,9.99999e-01,9.53487e-01,7.96473e-01,9.99999e-01
9.246095321e-01,7.48268e-01,9.99999e-01,9.35262e-01,8.00061e-01,9.99999e-01
9.292325798e-01,7.62497e-01,9.99999e-01,9.48857e-01,8.03594e-01,9.99999e-01
9.338787427e-01,7.67127e-01,9.99999e-01,9.50505e-01,8.07072e-01,9.99999e-01
9.385481364e-01,7.80878e-01,9.99999e-01,9.63455e-01,8.10496e-01,9.99999e-01
9.432408771e-01,7.95536e-01,9.99999e-01,9.77475e-01,8.13867e-01,9.99999e-01
9.479570815e-01,8.07699e-01,9.99999e-01,9.88391e-01,8.17185e-01,9.99999e-01
9.526968669e-01,8.15842e-01,9.99999e-01,9.94383e-01,8.20450e-01,9.99999e-01
9.574603512e-01,8.21683e-01,9.99999e-01,9.97594e-01,8.23663e-01,9.99999e-01
9.622476530e-01,8.26205e-01,9.99999e-01,9.99248e-01,8.26826e-01,9.99999e-01
9.670588912e-01,8.29751e-01,9.99999e-01,9.99774e-01,8.29937e-01,9.99999e-01
9.718941857e-01,8.32985e-01,9.99999e-01,9.99983e-01,8.32999e-01,9.99999e-01
9.767536566e-01,8.36011e-01,9.99999e-01,9.99999e-01,8.36011e-01,9.99999e-01
9.816374249e-01,8.38974e-01,9.99999e-01,9.99999e-01,8.38974e-01,9.99999e-01
9.865456120e-01,8.41888e-01,9.99999e-01,9.99999e-01,8.41888e-01,9.99999e-01
9.914783401e-01,8.44755e-01,9.99999e-01,9.99999e-01,8.44755e-01,9.99999e-01
9.964357318e-01,8.47575e-01,9.99999e-01,9.99999e-01,8.47575e-01,9.99999e-01
1.001417910e+00,8.50348e-01,9.99999e-01,9.99999e-01,8.50348e-01,9.99999e-01
1.006425000e+00,8.53075e-01,9.99999e-01,9.99999e-01,8.53075e-01,9.99999e-01
1.011457125e+00,8.55757e-01,9.99999e-01,9.99999e-01,8.55757e-01,9.99999e-01
1.016514411e+00,8.58394e-01,9.99999e-01,9.99999e-01,8.58394e-01,9.99999e-01
1.021596983e+00,8.60961e-01,9.99999e-01,9.99969e-01,8.60987e-01,9.99999e-01
1.026704968e+00,8.61551e-01,9.99999e-01,9.97700e-01,8.63536e-01,9.99999e-01
1.031838492e+00,8.39220e-01,9.99999e-01,9.69027e-01,8.66042e-01,9.99999e-01
1.036997685e+00,2.04975e-01,9.99999e-01,2.36009e-01,8.68506e-01,9.99999e-01
1.042182673e+00,2.25660e-01,9.99999e-01,2.59103e-01,8.70928e-01,9.99999e-01
1.047393587e+00,2.23208e-01,9.99999e-01,2.55589e-01,8.73309e-01,9.99999e-01
1.052630555e+00,2.12719e-02,9.99999e-01,2.42927e-02,8.75649e-01,9.99999e-01
1.057893707e+00,4.36681e-02,9.99999e-01,4.97388e-02,8.77948e-01,9.99999e-01
1.063183176e+00,9.89224e-02,9.99999e-01,1.12385e-01,8.80209e-01,9.99999e-01
1.068499092e+00,2.01694e-01,9.99999e-01,2.28567e-01,8.82430e-01,9.99999e-01
1.073841587e+00,3.48420e-01,9.99999e-01,3.93866e-01,8.84613e-01,9.99999e-01
1.079210795e+00,4.92312e-01,9.99999e-01,5.55181e-01,8.86757e-01,9.99999e-01
1.084606849e+00,6.44156e-01,9.99999e-01,7.24694e-01,8.88865e-01,9.99999e-01
1.090029883e+00,7.54088e-01,9.99999e-01,8.46399e-01,8.90936e-01,9.99999e-01
1.095480033e+00,8.22556e-01,9.99999e-01,9.21145e-01,8.92970e-01,9.99999e-01
1.100957433e+00,8.60288e-01,9.99999e-01,9.61248e-01,8.94969e-01,9.99999e-01
1.106462220e+00,8.82394e-01,9.99999e-01,9.83789e-01,8.96933e-01,9.99999e-01
1.111994531e+00,8.93436e-01,9.99999e-01,9.93962e-01,8.98862e-01,9.99999e-01
1.117554504e+00,8.99426e-01,9.99999e-01,9.98521e-01,9.00757e-01,9.99999e-01
1.123142276e+00,9.02531e-01,9.99999e-01,9.99902e-01,9.02619e-01,9.99999e-01
1.128757988e+00,9.04447e-01,9.99999e-01,9.99999e-01,9.04447e-01,9.99999e-01
1.134401778e+00,9.06243e-01,9.99999e-01,9.99999e-01,9.06243e-01,9.99999e-01
1.140073787e+00,9.08007e-01,9.99999e-01,9.99999e-01,9.08007e-01,9.99999e-01
1.145774156e+00,9.09740e-01,9.99999e-01,9.99999e-01,9.09740e-01,9.99999e-01
1.151503026e+00,9.11441e-01,9.99999e-01,9.99999e-01,9.11441e-01,9.99999e-01
1.157260541e+00,9.13112e-01,9.99999e-01,9.99999e-01,9.13112e-01,9.99999e-01
1.163046844e+00,9.14753e-01,9.99999e-01,9.99999e-01,9.14753e-01,9.99999e-01
1.168862078e+00,9.16364e-01,9.99999e-01,9.99999e-01,9.16364e-01,9.99999e-01
1.174706389e+00,9.17947e-01,9.99999e-01,9.99999e-01,9.17947e-01,9.99999e-01
1.180579921e+00,9.19500e-01,9.99999e-01,9.99999e-01,9.19500e-01,9.99999e-01
1.186482820e+00,9.21022e-01,9.99999e-01,9.99995e-01,9.21026e-01,9.99999e-01
1.192415234e+00,9.14934e-01,9.99999e-01,9.91772e-01,9.22524e-01,9.99999e-01
1.198377311e+00,5.32336e-01,9.99999e-01,5.76125e-01,9.23994e-01,9.99999e-01
1.204369197e+00,9.01611e-08,9.99999e-01,9.74253e-08,9.25438e-01,9.99999e-01
1.210391043e+00,5.65506e-26,9.99999e-01,6.10133e-26,9.26856e-01,9.99999e-01
1.216442998e+00,1.01870e-22,9.99999e-01,1.09744e-22,9.28247e-01,9.99999e-01
1.222525213e+00,2.13044e-22,9.99999e-01,2.29175e-22,9.29613e-01,9.99999e-01
1.228637839e+00,2.73621e-17,9.99999e-01,2.93915e-17,9.30955e-01,9.99999e-01
1.234781029e+00,1.10289e-11,9.99999e-01,1.18302e-11,9.32271e-01,9.99999e-01
1.240954934e+00,6.15153e-08,9.99999e-01,6.58930e-08,9.33563e-01,9.99999e-01
1.247159708e+00,9.69747e-05,9.99999e-01,1.03735e-04,9.34832e-01,9.99999e-01
1.253395507e+00,5.34638e-03,9.99999e-01,5.71146e-03,9.36077e-01,9.99999e-01
1.259662485e+00,4.93762e-02,9.99999e-01,5.26792e-02,9.37299e-01,9.99999e-01
1.265960797e+00,1.69856e-01,9.99999e-01,1.80987e-01,9.38499e-01,9.99999e-01
1.272290601e+00,4.63819e-01,9.99999e-01,4.93594e-01,9.39676e-01,9.99999e-01
1.278652054e+00,4.06215e-01,9.99999e-01,4.31761e-01,9.40832e-01,9.99999e-01
1.285045314e+00,2.36895e-02,9.99999e-01,2.51489e-02,9.41966e-01,9.99999e-01
1.291470541e+00,9.52784e-04,9.99999e-01,1.01029e-03,9.43079e-01,9.99999e-01
1.297927893e+00,2.27206e-02,9.99999e-01,2.40641e-02,9.44171e-01,9.99999e-01
1.304417533e+00,2.62587e-01,9.99999e-01,2.77798e-01,9.45243e-01,9.99999e-01
1.310939621e+00,7.07795e-02,9.99999e-01,7.47964e-02,9.46295e-01,9.99999e-01
1.317494319e+00,2.16290e-09,9.99999e-01,2.28316e-09,9.47328e-01,9.99999e-01
1.324081790e+00,8.66404e-07,9.99999e-01,9.13599e-07,9.48341e-01,9.99999e-01
1.330702199e+00,5.18705e-04,9.99999e-01,5.46388e-04,9.49335e-01,9.99999e-01
1.337355710e+00,4.20007e-04,9.99999e-01,4.41968e-04,9.50310e-01,9.99999e-01
1.344042489e+00,1.31053e-04,9.99999e-01,1.37767e-04,9.51267e-01,9.99999e-01
1.350762701e+00,3.71547e-04,9.99999e-01,3.90196e-04,9.52206e-01,9.99999e-01
1.357516515e+00,5.60373e-03,9.99999e-01,5.87930e-03,9.53128e-01,9.99999e-01
1.364304097e+00,3.75612e-02,9.99999e-01,3.93710e-02,9.54032e-01,9.99999e-01
1.371125618e+00,1.73608e-01,9.99999e-01,1.81804e-01,9.54919e-01,9.99999e-01
1.377981246e+00,2.42807e-01,9.99999e-01,2.54038e-01,9.55790e-01,9.99999e-01
1.384871152e+00,4.30797e-01,9.99999e-01,4.50321e-01,9.56644e-01,9.99999e-01
1.391795508e+00,4.58254e-01,9.99999e-01,4.78603e-01,9.57482e-01,9.99999e-01
1.398754485e+00,6.09027e-01,9.99999e-01,6.35525e-01,9.58304e-01,9.99999e-01
1.405748258e+00,6.86408e-01,9.99999e-01,7.15671e-01,9.59110e-01,9.99999e-01
1.412776999e+00,7.77291e-01,9.99999e-01,8.09761e-01,9.59902e-01,9.99999e-01
1.419840884e+00,7.13917e-01,9.99999e-01,7.43138e-01,9.60678e-01,9.99999e-01
1.426940089e+00,8.70147e-02,9.99999e-01,9.05045e-02,9.61439e-01,9.99999e-01
1.434074789e+00,0.00000e+00,9.99999e-01,0.00000e+00,9.62186e-01,9.99999e-01
1.441245163e+00,0.00000e+00,9.99999e-01,0.00000e+00,9.62919e-01,9.99999e-01
1.448451389e+00,0.00000e+00,9.99999e-01,0.00000e+00,9.63638e-01,9.99999e-01
1.455693646e+00,1.80617e-202,9.99999e-01,1.87295e-202,9.64343e-01,9.99999e-01
1.462972114e+00,1.50611e-98,9.99999e-01,1.56068e-98,9.65035e-01,9.99999e-01
1.470286975e+00,7.11798e-42,9.99999e-01,7.37069e-42,9.65714e-01,9.99999e-01
