#,Wave/freq,Total,O2,CO2,Rayleigh,CIA
4.000000000e-01,1.21920e-06,9.99999e-01,9.99999e-01,1.21920e-06,9.99999e-01
4.020000000e-01,1.59592e-06,9.99999e-01,9.99999e-01,1.59592e-06,9.99999e-01
4.040100000e-01,2.07738e-06,9.99999e-01,9.99999e-01,2.07738e-06,9.99999e-01
4.060300500e-01,2.69004e-06,9.99999e-01,9.99999e-01,2.69004e-06,9.99999e-01
4.080602003e-01,3.46565e-06,9.99999e-01,9.99999e-01,3.46565e-06,9.99999e-01
4.101005013e-01,4.44260e-06,9.99999e-01,9.99999e-01,4.44260e-06,9.99999e-01
4.121510038e-01,5.66708e-06,9.99999e-01,9.99999e-01,5.66708e-06,9.99999e-01
4.142117588e-01,7.19439e-06,9.99999e-01,9.99999e-01,7.19439e-06,9.99999e-01
4.162828176e-01,9.09036e-06,9.99999e-01,9.99999e-01,9.09036e-06,9.99999e-01
4.183642317e-01,1.14330e-05,9.99999e-01,9.99999e-01,1.14330e-05,9.99999e-01
4.204560528e-01,1.43145e-05,9.99999e-01,9.99999e-01,1.43145e-05,9.99999e-01
4.225583331e-01,1.78427e-05,9.99999e-01,9.99999e-01,1.78427e-05,9.99999e-01
4.246711247e-01,2.21440e-05,9.99999e-01,9.99999e-01,2.21440e-05,9.99999e-01
4.267944804e-01,2.73652e-05,9.99999e-01,9.99999e-01,2.73652e-05,9.99999e-01
4.289284528e-01,3.36764e-05,9.99999e-01,9.99999e-01,3.36764e-05,9.99999e-01
4.310730950e-01,4.12735e-05,9.99999e-01,9.99999e-01,4.12735e-05,9.99999e-01
4.332284605e-01,5.03817e-05,9.99999e-01,9.99999e-01,5.03817e-05,9.99999e-01
4.353946028e-01,6.12581e-05,9.99999e-01,9.99999e-01,6.12581e-05,9.99999e-01
4.375715758e-01,7.41955e-05,9.99999e-01,9.99999e-01,7.41955e-05,9.99999e-01
4.397594337e-01,8.95257e-05,9.99999e-01,9.99999e-01,8.95257e-05,9.99999e-01
4.419582309e-01,1.07623e-04,9.99999e-01,9.99999e-01,1.07623e-04,9.99999e-01
4.441680220e-01,1.28910e-04,9.99999e-01,9.99999e-01,1.28910e-04,9.99999e-01
4.463888621e-01,1.53857e-04,9.99999e-01,9.99999e-01,1.53857e-04,9.99999e-01
4.486208064e-01,1.82992e-04,9.99999e-01,9.99999e-01,1.82992e-04,9.99999e-01
4.508639105e-01,2.16899e-04,9.99999e-01,9.99999e-01,2.16899e-04,9.99999e-01
4.531182300e-01,2.56228e-04,9.99999e-01,9.99999e-01,2.56228e-04,9.99999e-01
4.553838212e-01,3.01693e-04,9.99999e-01,9.99999e-01,3.01693e-04,9.99999e-01
4.576607403e-01,3.54080e-04,9.99999e-01,9.99999e-01,3.54080e-04,9.99999e-01
4.599490440e-01,4.14253e-04,9.99999e-01,9.99999e-01,4.14253e-04,9.99999e-01
4.622487892e-01,4.83151e-04,9.99999e-01,9.99999e-01,4.83151e-04,9.99999e-01
4.645600332e-01,5.61799e-04,9.99999e-01,9.99999e-01,5.61799e-04,9.99999e-01
4.668828333e-01,6.51305e-04,9.99999e-01,9.99999e-01,6.51305e-04,9.99999e-01
4.692172475e-01,7.52870e-04,9.99999e-01,9.99999e-01,7.52870e-04,9.99999e-01
4.715633337e-01,8.67786e-04,9.99999e-01,9.99999e-01,8.67786e-04,9.99999e-01
4.739211504e-01,9.97440e-04,9.99999e-01,9.99999e-01,9.97440e-04,9.99999e-01
4.762907561e-01,1.14332e-03,9.99999e-01,9.99999e-01,1.14332e-03,9.99999e-01
4.786722099e-01,1.30700e-03,9.99999e-01,9.99999e-01,1.30700e-03,9.99999e-01
4.810655710e-01,1.49017e-03,9.99999e-01,9.99999e-01,1.49017e-03,9.99999e-01
4.834708988e-01,1.69461e-03,9.99999e-01,9.99999e-01,1.69461e-03,9.99999e-01
4.858882533e-01,1.92222e-03,9.99999e-01,9.99999e-01,1.92222e-03,9.99999e-01
4.883176946e-01,2.17498e-03,9.99999e-01,9.99999e-01,2.17498e-03,9.99999e-01
4.907592831e-01,2.45497e-03,9.99999e-01,9.99999e-01,2.45497e-03,9.99999e-01
4.932130795e-01,2.76439e-03,9.99999e-01,9.99999e-01,2.76439e-03,9.99999e-01
4.956791449e-01,3.10552e-03,9.99999e-01,9.99999e-01,3.10552e-03,9.99999e-01
4.981575406e-01,3.48074e-03,9.99999e-01,9.99999e-01,3.48074e-03,9.99999e-01
5.006483283e-01,3.89251e-03,9.99999e-01,9.99999e-01,3.89251e-03,9.99999e-01
5.031515699e-01,4.34338e-03,9.99999e-01,9.99999e-01,4.34338e-03,9.99999e-01
5.056673278e-01,4.83601e-03,9.99999e-01,9.99999e-01,4.83601e-03,9.99999e-01
5.081956644e-01,5.37309e-03,9.99999e-01,9.99999e-01,5.37309e-03,9.99999e-01
5.107366428e-01,5.95741e-03,9.99999e-01,9.99999e-01,5.95741e-03,9.99999e-01
5.132903260e-01,6.59183e-03,9.99999e-01,9.99999e-01,6.59183e-03,9.99999e-01
5.158567776e-01,7.27924e-03,9.99999e-01,9.99999e-01,7.27924e-03,9.99999e-01
5.184360615e-01,8.02260e-03,9.99999e-01,9.99999e-01,8.02260e-03,9.99999e-01
5.210282418e-01,8.82490e-03,9.99999e-01,9.99999e-01,8.82490e-03,9.99999e-01
5.236333830e-01,9.68919e-03,9.99999e-01,9.99999e-01,9.68919e-03,9.99999e-01
5.262515499e-01,1.06185e-02,9.99999e-01,9.99999e-01,1.06185e-02,9.99999e-01
5.288828077e-01,1.16159e-02,9.99999e-01,9.99999e-01,1.16159e-02,9.99999e-01
5.315272217e-01,1.26845e-02,9.99999e-01,9.99999e-01,1.26845e-02,9.99999e-01
5.341848578e-01,1.38273e-02,9.99999e-01,9.99999e-01,1.38273e-02,9.99999e-01
5.368557821e-01,1.50475e-02,9.99999e-01,9.99999e-01,1.50475e-02,9.99999e-01
5.395400610e-01,1.63479e-02,9.99999e-01,9.99999e-01,1.63479e-02,9.99999e-01
5.422377613e-01,1.77317e-02,9.99999e-01,9.99999e-01,1.77317e-02,9.99999e-01
5.449489501e-01,1.92018e-02,9.99999e-01,9.99999e-01,1.92018e-02,9.99999e-01
5.476736949e-01,2.07611e-02,9.99999e-01,9.99999e-01,2.07611e-02,9.99999e-01
5.504120634e-01,2.24125e-02,9.99999e-01,9.99999e-01,2.24125e-02,9.99999e-01
5.531641237e-01,2.41586e-02,9.99999e-01,9.99999e-01,2.41586e-02,9.99999e-01
5.559299443e-01,2.60022e-02,9.99999e-01,9.99999e-01,2.60022e-02,9.99999e-01
5.587095940e-01,2.79459e-02,9.99999e-01,9.99999e-01,2.79459e-02,9.99999e-01
5.615031420e-01,2.99921e-02,9.99999e-01,9.99999e-01,2.99921e-02,9.99999e-01
5.643106577e-01,3.21432e-02,9.99999e-01,9.99999e-01,3.21432e-02,9.99999e-01
5.671322110e-01,3.44015e-02,9.99999e-01,9.99999e-01,3.44015e-02,9.99999e-01
5.699678720e-01,3.67692e-02,9.99999e-01,9.99999e-01,3.67692e-02,9.99999e-01
5.728177114e-01,3.92482e-02,9.99999e-01,9.99999e-01,3.92482e-02,9.99999e-01
5.756818000e-01,4.18403e-02,9.99999e-01,9.99999e-01,4.18403e-02,9.99999e-01
5.785602090e-01,4.45474e-02,9.99999e-01,9.99999e-01,4.45474e-02,9.99999e-01
5.814530100e-01,4.73708e-02,9.99999e-01,9.99999e-01,4.73708e-02,9.99999e-01
5.843602750e-01,5.03122e-02,9.99999e-01,9.99999e-01,5.03122e-02,9.99999e-01
5.872820764e-01,5.33726e-02,9.99999e-01,9.99999e-01,5.33726e-02,9.99999e-01
5.902184868e-01,5.65531e-02,9.99999e-01,9.99999e-01,5.65531e-02,9.99999e-01
5.931695792e-01,5.98548e-02,9.99999e-01,9.99999e-01,5.98548e-02,9.99999e-01
5.961354271e-01,6.32782e-02,9.99999e-01,9.99999e-01,6.32782e-02,9.99999e-01
5.991161043e-01,6.68240e-02,9.99999e-01,9.99999e-01,6.68240e-02,9.99999e-01
6.021116848e-01,7.04925e-02,9.99999e-01,9.99999e-01,7.04925e-02,9.99999e-01
6.051222432e-01,7.42839e-02,9.99999e-01,9.99999e-01,7.42839e-02,9.99999e-01
6.081478544e-01,7.81983e-02,9.99999e-01,9.99999e-01,7.81983e-02,9.99999e-01
6.111885937e-01,8.22355e-02,9.99999e-01,9.99999e-01,8.22355e-02,9.99999e-01
6.142445367e-01,8.63952e-02,9.99999e-01,9.99999e-01,8.63952e-02,9.99999e-01
6.173157594e-01,9.06769e-02,9.99999e-01,9.99999e-01,9.06769e-02,9.99999e-01
6.204023382e-01,9.50799e-02,9.99999e-01,9.99999e-01,9.50799e-02,9.99999e-01
6.235043498e-01,9.96034e-02,9.99999e-01,9.99999e-01,9.96034e-02,9.99999e-01
6.266218716e-01,1.04246e-01,9.99999e-01,9.99999e-01,1.04246e-01,9.99999e-01
6.297549810e-01,1.09007e-01,9.99999e-01,9.99999e-01,1.09007e-01,9.99999e-01
6.329037559e-01,1.13886e-01,9.99999e-01,9.99999e-01,1.13886e-01,9.99999e-01
6.360682746e-01,1.18879e-01,9.99999e-01,9.99999e-01,1.18879e-01,9.99999e-01
6.392486160e-01,1.23987e-01,9.99999e-01,9.99999e-01,1.23987e-01,9.99999e-01
6.424448591e-01,1.29206e-01,9.99999e-01,9.99999e-01,1.29206e-01,9.99999e-01
6.456570834e-01,1.34536e-01,9.99999e-01,9.99999e-01,1.34536e-01,9.99999e-01
6.488853688e-01,1.39973e-01,9.99999e-01,9.99999e-01,1.39973e-01,9.99999e-01
6.521297956e-01,1.45517e-01,9.99999e-01,9.99999e-01,1.45517e-01,9.99999e-01
6.553904446e-01,1.51164e-01,9.99999e-01,9.99999e-01,1.51164e-01,9.99999e-01
6.586673968e-01,1.56912e-01,9.99999e-01,9.99999e-01,1.56912e-01,9.99999e-01
6.619607338e-01,1.62758e-01,9.99999e-01,9.99999e-01,1.62758e-01,9.99999e-01
6.652705375e-01,1.68701e-01,9.99999e-01,9.99999e-01,1.68701e-01,9.99999e-01
6.685968902e-01,1.74736e-01,9.99999e-01,9.99999e-01,1.74736e-01,9.99999e-01
6.719398746e-01,1.80862e-01,9.99999e-01,9.99999e-01,1.80862e-01,9.99999e-01
6.752995740e-01,1.87076e-01,9.99999e-01,9.99999e-01,1.87076e-01,9.99999e-01
6.786760719e-01,1.93373e-01,9.99999e-01,9.99999e-01,1.93373e-01,9.99999e-01
6.820694522e-01,1.99752e-01,9.99999e-01,9.99999e-01,1.99752e-01,9.99999e-01
6.854797995e-01,2.06210e-01,9.99999e-01,9.99999e-01,2.06210e-01,9.99999e-01
6.889071985e-01,2.12742e-01,9.99999e-01,9.99999e-01,2.12742e-01,9.99999e-01
6.923517345e-01,2.19346e-01,9.99999e-01,9.99999e-01,2.19346e-01,9.99999e-01
6.958134932e-01,2.26019e-01,9.99999e-01,9.99999e-01,2.26019e-01,9.99999e-01
6.992925606e-01,2.32756e-01,9.99999e-01,9.99999e-01,2.32756e-01,9.99999e-01
7.027890234e-01,2.39556e-01,9.99999e-01,9.99999e-01,2.39556e-01,9.99999e-01
7.063029686e-01,2.46414e-01,9.99999e-01,9.99999e-01,2.46414e-01,9.99999e-01
7.098344834e-01,2.53327e-01,9.99999e-01,9.99999e-01,2.53327e-01,9.99999e-01
7.133836558e-01,2.60291e-01,9.99999e-01,9.99999e-01,2.60291e-01,9.99999e-01
7.169505741e-01,2.67304e-01,9.99999e-01,9.99999e-01,2.67304e-01,9.99999e-01
7.205353270e-01,2.74362e-01,9.99999e-01,9.99999e-01,2.74362e-01,9.99999e-01
7.241380036e-01,2.81461e-01,9.99999e-01,9.99999e-01,2.81461e-01,9.99999e-01
7.277586936e-01,2.88598e-01,9.99999e-01,9.99999e-01,2.88598e-01,9.99999e-01
7.313974871e-01,2.95770e-01,9.99999e-01,9.99999e-01,2.95770e-01,9.99999e-01
7.350544745e-01,3.02973e-01,9.99999e-01,9.99999e-01,3.02973e-01,9.99999e-01
7.387297469e-01,3.10204e-01,9.99999e-01,9.99999e-01,3.10204e-01,9.99999e-01
7.424233956e-01,3.17460e-01,9.99999e-01,9.99999e-01,3.17460e-01,9.99999e-01
7.461355126e-01,3.24737e-01,9.99999e-01,9.99999e-01,3.24737e-01,9.99999e-01
7.498661902e-01,3.32032e-01,9.99999e-01,9.99999e-01,3.32032e-01,9.99999e-01
7.536155211e-01,3.39342e-01,9.99999e-01,9.99999e-01,3.39342e-01,9.99999e-01
7.573835987e-01,3.46664e-01,9.99999e-01,9.99999e-01,3.46664e-01,9.99999e-01
7.611705167e-01,3.53995e-01,9.99999e-01,9.99999e-01,3.53995e-01,9.99999e-01
7.649763693e-01,3.61331e-01,9.99999e-01,9.99999e-01,3.61331e-01,9.99999e-01
7.688012511e-01,3.68670e-01,9.99999e-01,9.99999e-01,3.68670e-01,9.99999e-01
7.726452574e-01,3.76009e-01,9.99999e-01,9.99999e-01,3.76009e-01,9.99999e-01
7.765084837e-01,3.83344e-01,9.99999e-01,9.99999e-01,3.83344e-01,9.99999e-01
7.803910261e-01,3.73638e-01,9.99999e-01,9.56393e-01,3.90674e-01,9.99999e-01
7.842929812e-01,3.27062e-01,9.99999e-01,8.21776e-01,3.97994e-01,9.99999e-01
7.882144461e-01,3.28412e-01,9.99999e-01,8.10285e-01,4.05303e-01,9.99999e-01
7.921555184e-01,3.64553e-01,9.99999e-01,8.83553e-01,4.12598e-01,9.99999e-01
7.961162960e-01,3.86533e-01,9.99999e-01,9.20587e-01,4.19877e-01,9.99999e-01
8.000968774e-01,4.08382e-01,9.99999e-01,9.56093e-01,4.27136e-01,9.99999e-01
8.040973618e-01,4.24404e-01,9.99999e-01,9.77049e-01,4.34373e-01,9.99999e-01
8.081178486e-01,4.36897e-01,9.99999e-01,9.89378e-01,4.41587e-01,9.99999e-01
8.121584379e-01,4.47304e-01,9.99999e-01,9.96722e-01,4.48774e-01,9.99999e-01
8.162192301e-01,4.55603e-01,9.99999e-01,9.99275e-01,4.55933e-01,9.99999e-01
8.203003262e-01,4.63057e-01,9.99999e-01,9.99989e-01,4.63062e-01,9.99999e-01
8.244018279e-01,4.70157e-01,9.99999e-01,9.99999e-01,4.70157e-01,9.99999e-01
8.285238370e-01,4.77219e-01,9.99999e-01,9.99999e-01,4.77219e-01,9.99999e-01
8.326664562e-01,4.84243e-01,9.99999e-01,9.99999e-01,4.84243e-01,9.99999e-01
8.368297885e-01,4.91229e-01,9.99999e-01,9.99999e-01,4.91229e-01,9.99999e-01
8.410139374e-01,4.98175e-01,9.99999e-01,9.99999e-01,4.98175e-01,9.99999e-01
8.452190071e-01,5.05079e-01,9.99999e-01,9.99999e-01,5.05079e-01,9.99999e-01
8.494451021e-01,5.11940e-01,9.99999e-01,9.99999e-01,5.11940e-01,9.99999e-01
8.536923276e-01,5.18755e-01,9.99999e-01,9.99999e-01,5.18755e-01,9.99999e-01
8.579607893e-01,5.25524e-01,9.99999e-01,9.99999e-01,5.25524e-01,9.99999e-01
8.622505932e-01,5.32245e-01,9.99999e-01,9.99999e-01,5.32245e-01,9.99999e-01
8.665618462e-01,4.91269e-01,9.99999e-01,9.11586e-01,5.38917e-01,9.99999e-01
8.708946554e-01,3.32070e-01,9.99999e-01,6.08702e-01,5.45538e-01,9.99999e-01
8.752491287e-01,3.69450e-01,9.99999e-01,6.69163e-01,5.52107e-01,9.99999e-01
8.796253743e-01,4.47538e-01,9.99999e-01,8.01144e-01,5.58623e-01,9.99999e-01
8.840235012e-01,5.03537e-01,9.99999e-01,8.91081e-01,5.65085e-01,9.99999e-01
8.884436187e-01,5.46119e-01,9.99999e-01,9.55601e-01,5.71492e-01,9.99999e-01
8.928858368e-01,5.67301e-01,9.99999e-01,9.81756e-01,5.77843e-01,9.99999e-01
8.973502660e-01,5.81539e-01,9.99999e-01,9.95551e-01,5.84137e-01,9.99999e-01
9.018370173e-01,5.90084e-01,9.99999e-01,9.99509e-01,5.90373e-01,9.99999e-01
9.063462024e-01,5.88986e-01,9.99999e-01,9.87319e-01,5.96551e-01,9.99999e-01
9.108779334e-01,5.85401e-01,9.99999e-01,9.71347e-01,6.02669e-01,9.99999e-01
9.154323231e-01,6.04607e-01,9.99999e-01,9.93231e-01,6.08727e-01,9.99999e-01
9.200094847e-01,5.57389e-01,9.99999e-01,9.06728e-01,6.14725e-01,9.99999e-01
9.246095321e-01,5.38371e-01,9.99999e-01,8.67413e-01,6.20662e-01,9.99999e-01
9.292325798e-01,5.60346e-01,9.99999e-01,8.94353e-01,6.26537e-01,9.99999e-01
9.338787427e-01,5.67806e-01,9.99999e-01,8.97929e-01,6.32350e-01,9.99999e-01
9.385481364e-01,5.89491e-01,9.99999e-01,9.23821e-01,6.38101e-01,9.99999e-01
9.432408771e-01,6.13319e-01,9.99999e-01,9.52671e-01,6.43788e-01,9.99999e-01
9.479570815e-01,6.33442e-01,9.99999e-01,9.75407e-01,6.49413e-01,9.99999e-01
9.526968669e-01,6.47167e-01,9.99999e-01,9.88080e-01,6.54974e-01,9.99999e-01
9.574603512e-01,6.57095e-01,9.99999e-01,9.94887e-01,6.60471e-01,9.99999e-01
9.622476530e-01,6.64842e-01,9.99999e-01,9.98403e-01,6.65905e-01,9.99999e-01
9.670588912e-01,6.70954e-01,9.99999e-01,9.99521e-01,6.71275e-01,9.99999e-01
9.718941857e-01,6.76558e-01,9.99999e-01,9.99966e-01,6.76581e-01,9.99999e-01
9.767536566e-01,6.81822e-01,9.99999e-01,9.99999e-01,6.81822e-01,9.99999e-01
9.816374249e-01,6.87000e-01,9.99999e-01,9.99999e-01,6.87000e-01,9.99999e-01
9.865456120e-01,6.92113e-01,9.99999e-01,9.99999e-01,6.92113e-01,9.99999e-01
9.914783401e-01,6.97162e-01,9.99999e-01,9.99999e-01,6.97162e-01,9.99999e-01
9.964357318e-01,7.02148e-01,9.99999e-01,9.99999e-01,7.02148e-01,9.99999e-01
1.001417910e+00,7.07069e-01,9.99999e-01,9.99999e-01,7.07069e-01,9.99999e-01
1.006425000e+00,7.11927e-01,9.99999e-01,9.99999e-01,7.11927e-01,9.99999e-01
1.011457125e+00,7.16721e-01,9.99999e-01,9.99999e-01,7.16721e-01,9.99999e-01
1.016514411e+00,7.21452e-01,9.99999e-01,9.99999e-01,7.21452e-01,9.99999e-01
1.021596983e+00,7.26067e-01,9.99999e-01,9.99927e-01,7.26119e-01,9.99999e-01
1.026704968e+00,7.27087e-01,9.99999e-01,9.95021e-01,7.30724e-01,9.99999e-01
1.031838492e+00,6.94877e-01,9.99999e-01,9.45067e-01,7.35266e-01,9.99999e-01
1.036997685e+00,8.72960e-02,9.99999e-01,1.18008e-01,7.39746e-01,9.99999e-01
1.042182673e+00,4.93142e-02,9.99999e-01,6.62679e-02,7.44164e-01,9.99999e-01
1.047393587e+00,6.75434e-02,9.99999e-01,9.02358e-02,7.48520e-01,9.99999e-01
1.052630555e+00,7.50052e-04,9.99999e-01,9.96329e-04,7.52815e-01,9.99999e-01
1.057893707e+00,2.20586e-03,9.99999e-01,2.91376e-03,7.57049e-01,9.99999e-01
1.063183176e+00,9.99401e-03,9.99999e-01,1.31289e-02,7.61222e-01,9.99999e-01
1.068499092e+00,3.55150e-02,9.99999e-01,4.64044e-02,7.65336e-01,9.99999e-01
1.073841587e+00,1.10180e-01,9.99999e-01,1.43204e-01,7.69389e-01,9.99999e-01
1.079210795e+00,2.25831e-01,9.99999e-01,2.92003e-01,7.73384e-01,9.99999e-01
1.084606849e+00,3.93505e-01,9.99999e-01,5.06233e-01,7.77319e-01,9.99999e-01
1.090029883e+00,5.48208e-01,9.99999e-01,7.01754e-01,7.81197e-01,9.99999e-01
1.095480033e+00,6.59314e-01,9.99999e-01,8.39871e-01,7.85016e-01,9.99999e-01
1.100957433e+00,7.25116e-01,9.99999e-01,9.19288e-01,7.88779e-01,9.99999e-01
1.106462220e+00,7.65392e-01,9.99999e-01,9.65813e-01,7.92484e-01,9.99999e-01
1.111994531e+00,7.85933e-01,9.99999e-01,9.87187e-01,7.96133e-01,9.99999e-01
1.117554504e+00,7.97219e-01,9.99999e-01,9.96864e-01,7.99726e-01,9.99999e-01
1.123142276e+00,8.03100e-01,9.99999e-01,9.99794e-01,8.03265e-01,9.99999e-01
1.128757988e+00,8.06748e-01,9.99999e-01,9.99999e-01,8.06748e-01,9.99999e-01
1.134401778e+00,8.10177e-01,9.99999e-01,9.99999e-01,8.10177e-01,9.99999e-01
1.140073787e+00,8.13553e-01,9.99999e-01,9.99999e-01,8.13553e-01,9.99999e-01
1.145774156e+00,8.16875e-01,9.99999e-01,9.99999e-01,8.16875e-01,9.99999e-01
1.151503026e+00,8.20146e-01,9.99999e-01,9.99999e-01,8.20146e-01,9.99999e-01
1.157260541e+00,8.23364e-01,9.99999e-01,9.99999e-01,8.23364e-01,9.99999e-01
1.163046844e+00,8.26531e-01,9.99999e-01,9.99999e-01,8.26531e-01,9.99999e-01
1.168862078e+00,8.29647e-01,9.99999e-01,9.99999e-01,8.29647e-01,9.99999e-01
1.174706389e+00,8.32713e-01,9.99999e-01,9.99999e-01,8.32713e-01,9.99999e-01
1.180579921e+00,8.35730e-01,9.99999e-01,9.99999e-01,8.35730e-01,9.99999e-01
1.186482820e+00,8.38689e-01,9.99999e-01,9.99989e-01,8.38697e-01,9.99999e-01
1.192415234e+00,8.26800e-01,9.99999e-01,9.82395e-01,8.41617e-01,9.99999e-01
1.198377311e+00,4.67376e-01,9.99999e-01,5.53442e-01,8.44488e-01,9.99999e-01
1.204369197e+00,4.65215e-14,9.99999e-01,5.49047e-14,8.47312e-01,9.99999e-01
1.210391043e+00,5.52706e-53,9.99999e-01,6.50174e-53,8.50090e-01,9.99999e-01
1.216442998e+00,5.04172e-46,9.99999e-01,5.91181e-46,8.52821e-01,9.99999e-01
1.222525213e+00,2.36790e-45,9.99999e-01,2.76782e-45,8.55507e-01,9.99999e-01
1.228637839e+00,3.98813e-35,9.99999e-01,4.64736e-35,8.58148e-01,9.99999e-01
1.234781029e+00,1.94735e-22,9.99999e-01,2.26240e-22,8.60745e-01,9.99999e-01
1.240954934e+00,4.36082e-15,9.99999e-01,5.05134e-15,8.63299e-01,9.99999e-01
1.247159708e+00,4.83511e-08,9.99999e-01,5.58450e-08,8.65809e-01,9.99999e-01
1.253395507e+00,2.75990e-05,9.99999e-01,3.17859e-05,8.68277e-01,9.99999e-01
1.259662485e+00,2.27907e-03,9.99999e-01,2.61750e-03,8.70702e-01,9.99999e-01
1.265960797e+00,2.87471e-02,9.99999e-01,3.29258e-02,8.73087e-01,9.99999e-01
1.272290601e+00,2.00411e-01,9.99999e-01,2.28928e-01,8.75431e-01,9.99999e-01
1.278652054e+00,1.69721e-01,9.99999e-01,1.93363e-01,8.77734e-01,9.99999e-01
1.285045314e+00,2.05429e-03,9.99999e-01,2.33442e-03,8.79998e-01,9.99999e-01
1.291470541e+00,7.50728e-07,9.99999e-01,8.50949e-07,8.82223e-01,9.99999e-01
1.297927893e+00,3.09931e-03,9.99999e-01,3.50438e-03,8.84409e-01,9.99999e-01
1.304417533e+00,6.00285e-02,9.99999e-01,6.77096e-02,8.86558e-01,9.99999e-01
1.310939621e+00,1.39206e-02,9.99999e-01,1.56645e-02,8.88669e-01,9.99999e-01
1.317494319e+00,1.28808e-18,9.99999e-01,1.44607e-18,8.90743e-01,9.99999e-01
1.324081790e+00,1.14841e-12,9.99999e-01,1.28633e-12,8.92781e-01,9.99999e-01
1.330702199e+00,1.67274e-07,9.99999e-01,1.86943e-07,8.94783e-01,9.99999e-01
1.337355710e+00,3.35207e-07,9.99999e-01,3.73802e-07,8.96750e-01,9.99999e-01
1.344042489e+00,1.11119e-07,9.99999e-01,1.23647e-07,8.98683e-01,9.99999e-01
1.350762701e+00,9.85314e-08,9.99999e-01,1.09409e-07,9.00581e-01,9.99999e-01
1.357516515e+00,3.74059e-05,9.99999e-01,4.14495e-05,9.02446e-01,9.99999e-01
1.364304097e+00,1.07455e-03,9.99999e-01,1.18830e-03,9.04277e-01,9.99999e-01
1.371125618e+00,2.77664e-02,9.99999e-01,3.06447e-02,9.06076e-01,9.99999e-01
1.377981246e+00,4.98438e-02,9.99999e-01,5.49035e-02,9.07843e-01,9.99999e-01
1.384871152e+00,1.68083e-01,9.99999e-01,1.84792e-01,9.09578e-01,9.99999e-01
1.391795508e+00,1.91527e-01,9.99999e-01,2.10172e-01,9.11283e-01,9.99999e-01
1.398754485e+00,3.47382e-01,9.99999e-01,3.80502e-01,9.12957e-01,9.99999e-01
1.405748258e+00,4.49860e-01,9.99999e-01,4.91865e-01,9.14600e-01,9.99999e-01
1.412776999e+00,5.84891e-01,9.99999e-01,6.38377e-01,9.16214e-01,9.99999e-01
1.419840884e+00,5.22380e-01,9.99999e-01,5.69165e-01,9.17799e-01,9.99999e-01
1.426940089e+00,3.90958e-02,9.99999e-01,4.25251e-02,9.19356e-01,9.99999e-01
1.434074789e+00,0.00000e+00,9.99999e-01,0.00000e+00,9.20884e-01,9.99999e-01
1.441245163e+00,0.00000e+00,9.99999e-01,0.00000e+00,9.22384e-01,9.99999e-01
1.448451389e+00,0.00000e+00,9.99999e-01,0.00000e+00,9.23857e-01,9.99999e-01
1.455693646e+00,0.00000e+00,9.99999e-01,0.00000e+00,9.25304e-01,9.99999e-01
1.462972114e+00,3.51246e-208,9.99999e-01,3.79019e-208,9.26724e-01,9.99999e-01
1.470286975e+00,5.50574e-87,9.99999e-01,5.93215e-87,9.28118e-01,9.99999e-01
