#,Wave/freq,Total,O2,CO2,Rayleigh,CIA
4.000000000e-01,4.79962e-03,9.99999e-01,9.99999e-01,4.79962e-03,9.99999e-01
4.020000000e-01,5.33404e-03,9.99999e-01,9.99999e-01,5.33404e-03,9.99999e-01
4.040100000e-01,5.91497e-03,9.99999e-01,9.99999e-01,5.91497e-03,9.99999e-01
4.060300500e-01,6.54579e-03,9.99999e-01,9.99999e-01,6.54579e-03,9.99999e-01
4.080602003e-01,7.22940e-03,9.99999e-01,9.99999e-01,7.22940e-03,9.99999e-01
4.101005013e-01,7.96875e-03,9.99999e-01,9.99999e-01,7.96875e-03,9.99999e-01
4.121510038e-01,8.76684e-03,9.99999e-01,9.99999e-01,8.76684e-03,9.99999e-01
4.142117588e-01,9.62669e-03,9.99999e-01,9.99999e-01,9.62669e-03,9.99999e-01
4.162828176e-01,1.05514e-02,9.99999e-01,9.99999e-01,1.05514e-02,9.99999e-01
4.183642317e-01,1.15439e-02,9.99999e-01,9.99999e-01,1.15439e-02,9.99999e-01
4.204560528e-01,1.26074e-02,9.99999e-01,9.99999e-01,1.26074e-02,9.99999e-01
4.225583331e-01,1.37450e-02,9.99999e-01,9.99999e-01,1.37450e-02,9.99999e-01
4.246711247e-01,1.49596e-02,9.99999e-01,9.99999e-01,1.49596e-02,9.99999e-01
4.267944804e-01,1.62544e-02,9.99999e-01,9.99999e-01,1.62544e-02,9.99999e-01
4.289284528e-01,1.76322e-02,9.99999e-01,9.99999e-01,1.76322e-02,9.99999e-01
4.310730950e-01,1.90962e-02,9.99999e-01,9.99999e-01,1.90962e-02,9.99999e-01
4.332284605e-01,2.06492e-02,9.99999e-01,9.99999e-01,2.06492e-02,9.99999e-01
4.353946028e-01,2.22940e-02,9.99999e-01,9.99999e-01,2.22940e-02,9.99999e-01
4.375715758e-01,2.40334e-02,9.99999e-01,9.99999e-01,2.40334e-02,9.99999e-01
4.397594337e-01,2.58701e-02,9.99999e-01,9.99999e-01,2.58701e-02,9.99999e-01
4.419582309e-01,2.78067e-02,9.99999e-01,9.99999e-01,2.78067e-02,9.99999e-01
4.441680220e-01,2.98456e-02,9.99999e-01,9.99999e-01,2.98456e-02,9.99999e-01
4.463888621e-01,3.19894e-02,9.99999e-01,9.99999e-01,3.19894e-02,9.99999e-01
4.486208064e-01,3.42401e-02,9.99999e-01,9.99999e-01,3.42401e-02,9.99999e-01
4.508639105e-01,3.66001e-02,9.99999e-01,9.99999e-01,3.66001e-02,9.99999e-01
4.531182300e-01,3.90712e-02,9.99999e-01,9.99999e-01,3.90712e-02,9.99999e-01
4.553838212e-01,4.16554e-02,9.99999e-01,9.99999e-01,4.16554e-02,9.99999e-01
4.576607403e-01,4.43543e-02,9.99999e-01,9.99999e-01,4.43543e-02,9.99999e-01
4.599490440e-01,4.71696e-02,9.99999e-01,9.99999e-01,4.71696e-02,9.99999e-01
4.622487892e-01,5.01027e-02,9.99999e-01,9.99999e-01,5.01027e-02,9.99999e-01
4.645600332e-01,5.31547e-02,9.99999e-01,9.99999e-01,5.31547e-02,9.99999e-01
4.668828333e-01,5.63269e-02,9.99999e-01,9.99999e-01,5.63269e-02,9.99999e-01
4.692172475e-01,5.96200e-02,9.99999e-01,9.99999e-01,5.96200e-02,9.99999e-01
4.715633337e-01,6.30349e-02,9.99999e-01,9.99999e-01,6.30349e-02,9.99999e-01
4.739211504e-01,6.65721e-02,9.99999e-01,9.99999e-01,6.65721e-02,9.99999e-01
4.762907561e-01,7.02320e-02,9.99999e-01,9.99999e-01,7.02320e-02,9.99999e-01
4.786722099e-01,7.40149e-02,9.99999e-01,9.99999e-01,7.40149e-02,9.99999e-01
4.810655710e-01,7.79207e-02,9.99999e-01,9.99999e-01,7.79207e-02,9.99999e-01
4.834708988e-01,8.19493e-02,9.99999e-01,9.99999e-01,8.19493e-02,9.99999e-01
4.858882533e-01,8.61005e-02,9.99999e-01,9.99999e-01,8.61005e-02,9.99999e-01
4.883176946e-01,9.03736e-02,9.99999e-01,9.99999e-01,9.03736e-02,9.99999e-01
4.907592831e-01,9.47682e-02,9.99999e-01,9.99999e-01,9.47682e-02,9.99999e-01
4.932130795e-01,9.92833e-02,9.99999e-01,9.99999e-01,9.92833e-02,9.99999e-01
4.956791449e-01,1.03918e-01,9.99999e-01,9.99999e-01,1.03918e-01,9.99999e-01
4.981575406e-01,1.08671e-01,9.99999e-01,9.99999e-01,1.08671e-01,9.99999e-01
5.006483283e-01,1.13541e-01,9.99999e-01,9.99999e-01,1.13541e-01,9.99999e-01
5.031515699e-01,1.18526e-01,9.99999e-01,9.99999e-01,1.18526e-01,9.99999e-01
5.056673278e-01,1.23626e-01,9.99999e-01,9.99999e-01,1.23626e-01,9.99999e-01
5.081956644e-01,1.28838e-01,9.99999e-01,9.99999e-01,1.28838e-01,9.99999e-01
5.107366428e-01,1.34160e-01,9.99999e-01,9.99999e-01,1.34160e-01,9.99999e-01
5.132903260e-01,1.39590e-01,9.99999e-01,9.99999e-01,1.39590e-01,9.99999e-01
5.158567776e-01,1.45126e-01,9.99999e-01,9.99999e-01,1.45126e-01,9.99999e-01
5.184360615e-01,1.50766e-01,9.99999e-01,9.99999e-01,1.50766e-01,9.99999e-01
5.210282418e-01,1.56507e-01,9.99999e-01,9.99999e-01,1.56507e-01,9.99999e-01
5.236333830e-01,1.62346e-01,9.99999e-01,9.99999e-01,1.62346e-01,9.99999e-01
5.262515499e-01,1.68282e-01,9.99999e-01,9.99999e-01,1.68282e-01,9.99999e-01
5.288828077e-01,1.74311e-01,9.99999e-01,9.99999e-01,1.74311e-01,9.99999e-01
5.315272217e-01,1.80431e-01,9.99999e-01,9.99999e-01,1.80431e-01,9.99999e-01
5.341848578e-01,1.86639e-01,9.99999e-01,9.99999e-01,1.86639e-01,9.99999e-01
5.368557821e-01,1.92930e-01,9.99999e-01,9.99999e-01,1.92930e-01,9.99999e-01
5.395400610e-01,1.99304e-01,9.99999e-01,9.99999e-01,1.99304e-01,9.99999e-01
5.422377613e-01,2.05756e-01,9.99999e-01,9.99999e-01,2.05756e-01,9.99999e-01
5.449489501e-01,2.12283e-01,9.99999e-01,9.99999e-01,2.12283e-01,9.99999e-01
5.476736949e-01,2.18882e-01,9.99999e-01,9.99999e-01,2.18882e-01,9.99999e-01
5.504120634e-01,2.25550e-01,9.99999e-01,9.99999e-01,2.25550e-01,9.99999e-01
5.531641237e-01,2.32283e-01,9.99999e-01,9.99999e-01,2.32283e-01,9.99999e-01
5.559299443e-01,2.39079e-01,9.99999e-01,9.99999e-01,2.39079e-01,9.99999e-01
5.587095940e-01,2.45932e-01,9.99999e-01,9.99999e-01,2.45932e-01,9.99999e-01
5.615031420e-01,2.52842e-01,9.99999e-01,9.99999e-01,2.52842e-01,9.99999e-01
5.643106577e-01,2.59803e-01,9.99999e-01,9.99999e-01,2.59803e-01,9.99999e-01
5.671322110e-01,2.66813e-01,9.99999e-01,9.99999e-01,2.66813e-01,9.99999e-01
5.699678720e-01,2.73867e-01,9.99999e-01,9.99999e-01,2.73867e-01,9.99999e-01
5.728177114e-01,2.80964e-01,9.99999e-01,9.99999e-01,2.80964e-01,9.99999e-01
5.756818000e-01,2.88098e-01,9.99999e-01,9.99999e-01,2.88098e-01,9.99999e-01
5.785602090e-01,2.95268e-01,9.99999e-01,9.99999e-01,2.95268e-01,9.99999e-01
5.814530100e-01,3.02469e-01,9.99999e-01,9.99999e-01,3.02469e-01,9.99999e-01
5.843602750e-01,3.09698e-01,9.99999e-01,9.99999e-01,3.09698e-01,9.99999e-01
5.872820764e-01,3.16952e-01,9.99999e-01,9.99999e-01,3.16952e-01,9.99999e-01
5.902184868e-01,3.24228e-01,9.99999e-01,9.99999e-01,3.24228e-01,9.99999e-01
5.931695792e-01,3.31522e-01,9.99999e-01,9.99999e-01,3.31522e-01,9.99999e-01
5.961354271e-01,3.38831e-01,9.99999e-01,9.99999e-01,3.38831e-01,9.99999e-01
5.991161043e-01,3.46152e-01,9.99999e-01,9.99999e-01,3.46152e-01,9.99999e-01
6.021116848e-01,3.53482e-01,9.99999e-01,9.99999e-01,3.53482e-01,9.99999e-01
6.051222432e-01,3.60818e-01,9.99999e-01,9.99999e-01,3.60818e-01,9.99999e-01
6.081478544e-01,3.68157e-01,9.99999e-01,9.99999e-01,3.68157e-01,9.99999e-01
6.111885937e-01,3.75496e-01,9.99999e-01,9.99999e-01,3.75496e-01,9.99999e-01
6.142445367e-01,3.82832e-01,9.99999e-01,9.99999e-01,3.82832e-01,9.99999e-01
6.173157594e-01,3.90161e-01,9.99999e-01,9.99999e-01,3.90161e-01,9.99999e-01
6.204023382e-01,3.97483e-01,9.99999e-01,9.99999e-01,3.97483e-01,9.99999e-01
6.235043498e-01,4.04793e-01,9.99999e-01,9.99999e-01,4.04793e-01,9.99999e-01
6.266218716e-01,4.12089e-01,9.99999e-01,9.99999e-01,4.12089e-01,9.99999e-01
6.297549810e-01,4.19368e-01,9.99999e-01,9.99999e-01,4.19368e-01,9.99999e-01
6.329037559e-01,4.26629e-01,9.99999e-01,9.99999e-01,4.26629e-01,9.99999e-01
6.360682746e-01,4.33868e-01,9.99999e-01,9.99999e-01,4.33868e-01,9.99999e-01
6.392486160e-01,4.41084e-01,9.99999e-01,9.99999e-01,4.41084e-01,9.99999e-01
6.424448591e-01,4.48273e-01,9.99999e-01,9.99999e-01,4.48273e-01,9.99999e-01
6.456570834e-01,4.55434e-01,9.99999e-01,9.99999e-01,4.55434e-01,9.99999e-01
6.488853688e-01,4.62564e-01,9.99999e-01,9.99999e-01,4.62564e-01,9.99999e-01
6.521297956e-01,4.69663e-01,9.99999e-01,9.99999e-01,4.69663e-01,9.99999e-01
6.553904446e-01,4.76726e-01,9.99999e-01,9.99999e-01,4.76726e-01,9.99999e-01
6.586673968e-01,4.83753e-01,9.99999e-01,9.99999e-01,4.83753e-01,9.99999e-01
6.619607338e-01,4.90742e-01,9.99999e-01,9.99999e-01,4.90742e-01,9.99999e-01
6.652705375e-01,4.97691e-01,9.99999e-01,9.99999e-01,4.97691e-01,9.99999e-01
6.685968902e-01,5.04598e-01,9.99999e-01,9.99999e-01,5.04598e-01,9.99999e-01
6.719398746e-01,5.11462e-01,9.99999e-01,9.99999e-01,5.11462e-01,9.99999e-01
6.752995740e-01,5.18280e-01,9.99999e-01,9.99999e-01,5.18280e-01,9.99999e-01
6.786760719e-01,5.25053e-01,9.99999e-01,9.99999e-01,5.25053e-01,9.99999e-01
6.820694522e-01,5.31777e-01,9.99999e-01,9.99999e-01,5.31777e-01,9.99999e-01
6.854797995e-01,5.38452e-01,9.99999e-01,9.99999e-01,5.38452e-01,9.99999e-01
6.889071985e-01,5.45077e-01,9.99999e-01,9.99999e-01,5.45077e-01,9.99999e-01
6.923517345e-01,5.51649e-01,9.99999e-01,9.99999e-01,5.51649e-01,9.99999e-01
6.958134932e-01,5.58169e-01,9.99999e-01,9.99999e-01,5.58169e-01,9.99999e-01
6.992925606e-01,5.64635e-01,9.99999e-01,9.99999e-01,5.64635e-01,9.99999e-01
7.027890234e-01,5.71046e-01,9.99999e-01,9.99999e-01,5.71046e-01,9.99999e-01
7.063029686e-01,5.77401e-01,9.99999e-01,9.99999e-01,5.77401e-01,9.99999e-01
7.098344834e-01,5.83699e-01,9.99999e-01,9.99999e-01,5.83699e-01,9.99999e-01
7.133836558e-01,5.89939e-01,9.99999e-01,9.99999e-01,5.89939e-01,9.99999e-01
7.169505741e-01,5.96121e-01,9.99999e-01,9.99999e-01,5.96121e-01,9.99999e-01
7.205353270e-01,6.02243e-01,9.99999e-01,9.99999e-01,6.02243e-01,9.99999e-01
7.241380036e-01,6.08306e-01,9.99999e-01,9.99999e-01,6.08306e-01,9.99999e-01
7.277586936e-01,6.14308e-01,9.99999e-01,9.99999e-01,6.14308e-01,9.99999e-01
7.313974871e-01,6.20249e-01,9.99999e-01,9.99999e-01,6.20249e-01,9.99999e-01
7.350544745e-01,6.26128e-01,9.99999e-01,9.99999e-01,6.26128e-01,9.99999e-01
7.387297469e-01,6.31946e-01,9.99999e-01,9.99999e-01,6.31946e-01,9.99999e-01
7.424233956e-01,6.37701e-01,9.99999e-01,9.99999e-01,6.37701e-01,9.99999e-01
7.461355126e-01,6.43393e-01,9.99999e-01,9.99999e-01,6.43393e-01,9.99999e-01
7.498661902e-01,6.49022e-01,9.99999e-01,9.99999e-01,6.49022e-01,9.99999e-01
7.536155211e-01,6.54587e-01,9.99999e-01,9.99999e-01,6.54587e-01,9.99999e-01
7.573835987e-01,6.60089e-01,9.99999e-01,9.99999e-01,6.60089e-01,9.99999e-01
7.611705167e-01,6.65527e-01,9.99999e-01,9.99999e-01,6.65527e-01,9.99999e-01
7.649763693e-01,6.70902e-01,9.99999e-01,9.99999e-01,6.70902e-01,9.99999e-01
7.688012511e-01,6.76212e-01,9.99999e-01,9.99999e-01,6.76212e-01,9.99999e-01
7.726452574e-01,6.81458e-01,9.99999e-01,9.99999e-01,6.81458e-01,9.99999e-01
7.765084837e-01,6.86640e-01,9.99999e-01,9.99999e-01,6.86640e-01,9.99999e-01
7.803910261e-01,6.79364e-01,9.99999e-01,9.82083e-01,6.91758e-01,9.99999e-01
7.842929812e-01,6.43664e-01,9.99999e-01,9.23727e-01,6.96811e-01,9.99999e-01
7.882144461e-01,6.44650e-01,9.99999e-01,9.18563e-01,7.01801e-01,9.99999e-01
7.921555184e-01,6.73071e-01,9.99999e-01,9.52376e-01,7.06727e-01,9.99999e-01
7.961162960e-01,6.88693e-01,9.99999e-01,9.67822e-01,7.11589e-01,9.99999e-01
8.000968774e-01,7.03819e-01,9.99999e-01,9.82455e-01,7.16388e-01,9.99999e-01
8.040973618e-01,7.14531e-01,9.99999e-01,9.90858e-01,7.21123e-01,9.99999e-01
8.081178486e-01,7.22751e-01,9.99999e-01,9.95804e-01,7.25795e-01,9.99999e-01
8.121584379e-01,7.29453e-01,9.99999e-01,9.98696e-01,7.30404e-01,9.99999e-01
8.162192301e-01,7.34739e-01,9.99999e-01,9.99711e-01,7.34951e-01,9.99999e-01
8.203003262e-01,7.39432e-01,9.99999e-01,9.99994e-01,7.39435e-01,9.99999e-01
8.244018279e-01,7.43857e-01,9.99999e-01,9.99999e-01,7.43857e-01,9.99999e-01
8.285238370e-01,7.48218e-01,9.99999e-01,9.99999e-01,7.48218e-01,9.99999e-01
8.326664562e-01,7.52517e-01,9.99999e-01,9.99999e-01,7.52517e-01,9.99999e-01
8.368297885e-01,7.56755e-01,9.99999e-01,9.99999e-01,7.56755e-01,9.99999e-01
8.410139374e-01,7.60933e-01,9.99999e-01,9.99999e-01,7.60933e-01,9.99999e-01
8.452190071e-01,7.65050e-01,9.99999e-01,9.99999e-01,7.65050e-01,9.99999e-01
8.494451021e-01,7.69108e-01,9.99999e-01,9.99999e-01,7.69108e-01,9.99999e-01
8.536923276e-01,7.73107e-01,9.99999e-01,9.99999e-01,7.73107e-01,9.99999e-01
8.579607893e-01,7.77046e-01,9.99999e-01,9.99999e-01,7.77046e-01,9.99999e-01
8.622505932e-01,7.80928e-01,9.99999e-01,9.99999e-01,7.80928e-01,9.99999e-01
8.665618462e-01,7.47842e-01,9.99999e-01,9.52966e-01,7.84751e-01,9.99999e-01
8.708946554e-01,6.43061e-01,9.99999e-01,8.15531e-01,7.88517e-01,9.99999e-01
8.752491287e-01,6.73337e-01,9.99999e-01,8.49929e-01,7.92227e-01,9.99999e-01
8.796253743e-01,7.28490e-01,9.99999e-01,9.15326e-01,7.95880e-01,9.99999e-01
8.840235012e-01,7.63810e-01,9.99999e-01,9.55386e-01,7.99477e-01,9.99999e-01
8.884436187e-01,7.88702e-01,9.99999e-01,9.82170e-01,8.03019e-01,9.99999e-01
8.928858368e-01,8.00664e-01,9.99999e-01,9.92755e-01,8.06506e-01,9.99999e-01
8.973502660e-01,8.08506e-01,9.99999e-01,9.98230e-01,8.09939e-01,9.99999e-01
9.018370173e-01,8.13160e-01,9.99999e-01,9.99804e-01,8.13319e-01,9.99999e-01
9.063462024e-01,8.12612e-01,9.99999e-01,9.95061e-01,8.16645e-01,9.99999e-01
9.108779334e-01,8.10570e-01,9.99999e-01,9.88598e-01,8.19919e-01,9.99999e-01
9.154323231e-01,8.20919e-01,9.99999e-01,9.97300e-01,8.23141e-01,9.99999e-01
9.200094847e-01,7.93842e-01,9.99999e-01,9.60704e-01,8.26311e-01,9.99999e-01
9.246095321e-01,7.84109e-01,9.99999e-01,9.45357e-01,8.29431e-01,9.99999e-01
9.292325798e-01,7.96668e-01,9.99999e-01,9.56957e-01,8.32501e-01,9.99999e-01
9.338787427e-01,8.00652e-01,9.99999e-01,9.58267e-01,8.35521e-01,9.99999e-01
9.385481364e-01,8.12697e-01,9.99999e-01,9.69236e-01,8.38491e-01,9.99999e-01
9.432408771e-01,8.25469e-01,9.99999e-01,9.81049e-01,8.41414e-01,9.99999e-01
9.479570815e-01,8.36057e-01,9.99999e-01,9.90250e-01,8.44289e-01,9.99999e-01
9.526968669e-01,8.43120e-01,9.99999e-01,9.95282e-01,8.47116e-01,9.99999e-01
9.574603512e-01,8.48181e-01,9.99999e-01,9.97979e-01,8.49897e-01,9.99999e-01
9.622476530e-01,8.52094e-01,9.99999e-01,9.99369e-01,8.52632e-01,9.99999e-01
9.670588912e-01,8.55159e-01,9.99999e-01,9.99810e-01,8.55321e-01,9.99999e-01
9.718941857e-01,8.57954e-01,9.99999e-01,9.99986e-01,8.57965e-01,9.99999e-01
9.767536566e-01,8.60565e-01,9.99999e-01,9.99999e-01,8.60565e-01,9.99999e-01
9.816374249e-01,8.63122e-01,9.99999e-01,9.99999e-01,8.63122e-01,9.99999e-01
9.865456120e-01,8.65635e-01,9.99999e-01,9.99999e-01,8.65635e-01,9.99999e-01
9.914783401e-01,8.68105e-01,9.99999e-01,9.99999e-01,8.68105e-01,9.99999e-01
9.964357318e-01,8.70534e-01,9.99999e-01,9.99999e-01,8.70534e-01,9.99999e-01
1.001417910e+00,8.72922e-01,9.99999e-01,9.99999e-01,8.72922e-01,9.99999e-01
1.006425000e+00,8.75268e-01,9.99999e-01,9.99999e-01,8.75268e-01,9.99999e-01
1.011457125e+00,8.77574e-01,9.99999e-01,9.99999e-01,8.77574e-01,9.99999e-01
1.016514411e+00,8.79841e-01,9.99999e-01,9.99999e-01,8.79841e-01,9.99999e-01
1.021596983e+00,8.82047e-01,9.99999e-01,9.99974e-01,8.82069e-01,9.99999e-01
1.026704968e+00,8.82562e-01,9.99999e-01,9.98082e-01,8.84258e-01,9.99999e-01
1.031838492e+00,8.62760e-01,9.99999e-01,9.73320e-01,8.86409e-01,9.99999e-01
1.036997685e+00,2.43170e-01,9.99999e-01,2.73679e-01,8.88522e-01,9.99999e-01
1.042182673e+00,2.83695e-01,9.99999e-01,3.18544e-01,8.90599e-01,9.99999e-01
1.047393587e+00,2.69324e-01,9.99999e-01,3.01717e-01,8.92640e-01,9.99999e-01
1.052630555e+00,3.60212e-02,9.99999e-01,4.02632e-02,8.94644e-01,9.99999e-01
1.057893707e+00,6.90761e-02,9.99999e-01,7.70410e-02,8.96614e-01,9.99999e-01
1.063183176e+00,1.40063e-01,9.99999e-01,1.55877e-01,8.98549e-01,9.99999e-01
1.068499092e+00,2.59841e-01,9.99999e-01,2.88568e-01,9.00449e-01,9.99999e-01
1.073841587e+00,4.11535e-01,9.99999e-01,4.56087e-01,9.02316e-01,9.99999e-01
1.079210795e+00,5.51073e-01,9.99999e-01,6.09493e-01,9.04150e-01,9.99999e-01
1.084606849e+00,6.91182e-01,9.99999e-01,7.62934e-01,9.05951e-01,9.99999e-01
1.090029883e+00,7.89131e-01,9.99999e-01,8.69354e-01,9.07721e-01,9.99999e-01
1.095480033e+00,8.48847e-01,9.99999e-01,9.33353e-01,9.09458e-01,9.99999e-01
1.100957433e+00,8.81433e-01,9.99999e-01,9.67368e-01,9.11165e-01,9.99999e-01
1.106462220e+00,9.00401e-01,9.99999e-01,9.86372e-01,9.12840e-01,9.99999e-01
1.111994531e+00,9.09849e-01,9.99999e-01,9.94929e-01,9.14486e-01,9.99999e-01
1.117554504e+00,9.14964e-01,9.99999e-01,9.98756e-01,9.16102e-01,9.99999e-01
1.123142276e+00,9.17614e-01,9.99999e-01,9.99917e-01,9.17689e-01,9.99999e-01
1.128757988e+00,9.19248e-01,9.99999e-01,9.99999e-01,9.19248e-01,9.99999e-01
1.134401778e+00,9.20778e-01,9.99999e-01,9.99999e-01,9.20778e-01,9.99999e-01
1.140073787e+00,9.22280e-01,9.99999e-01,9.99999e-01,9.22280e-01,9.99999e-01
1.145774156e+00,9.23755e-01,9.99999e-01,9.99999e-01,9.23755e-01,9.99999e-01
1.151503026e+00,9.25203e-01,9.99999e-01,9.99999e-01,9.25203e-01,9.99999e-01
1.157260541e+00,9.26625e-01,9.99999e-01,9.99999e-01,9.26625e-01,9.99999e-01
1.163046844e+00,9.28021e-01,9.99999e-01,9.99999e-01,9.28021e-01,9.99999e-01
1.168862078e+00,9.29391e-01,9.99999e-01,9.99999e-01,9.29391e-01,9.99999e-01
1.174706389e+00,9.30737e-01,9.99999e-01,9.99999e-01,9.30737e-01,9.99999e-01
1.180579921e+00,9.32057e-01,9.99999e-01,9.99999e-01,9.32057e-01,9.99999e-01
1.186482820e+00,9.33351e-01,9.99999e-01,9.99996e-01,9.33353e-01,9.99999e-01
1.192415234e+00,9.28208e-01,9.99999e-01,9.93133e-01,9.34626e-01,9.99999e-01
1.198377311e+00,5.46179e-01,9.99999e-01,5.83602e-01,9.35875e-01,9.99999e-01
1.204369197e+00,7.05766e-07,9.99999e-01,7.53137e-07,9.37101e-01,9.99999e-01
1.210391043e+00,3.87006e-22,9.99999e-01,4.12452e-22,9.38304e-01,9.99999e-01
1.216442998e+00,2.08686e-19,9.99999e-01,2.22128e-19,9.39485e-01,9.99999e-01
1.222525213e+00,3.95460e-19,9.99999e-01,4.20414e-19,9.40644e-01,9.99999e-01
1.228637839e+00,9.94112e-15,9.99999e-01,1.05556e-14,9.41782e-01,9.99999e-01
1.234781029e+00,3.78804e-10,9.99999e-01,4.01744e-10,9.42898e-01,9.99999e-01
1.240954934e+00,6.60359e-07,9.99999e-01,6.99537e-07,9.43994e-01,9.99999e-01
1.247159708e+00,3.43417e-04,9.99999e-01,3.63378e-04,9.45069e-01,9.99999e-01
1.253395507e+00,1.17265e-02,9.99999e-01,1.23942e-02,9.46124e-01,9.99999e-01
1.259662485e+00,7.81881e-02,9.99999e-01,8.25500e-02,9.47160e-01,9.99999e-01
1.265960797e+00,2.22732e-01,9.99999e-01,2.34906e-01,9.48176e-01,9.99999e-01
1.272290601e+00,4.99351e-01,9.99999e-01,5.26090e-01,9.49173e-01,9.99999e-01
1.278652054e+00,4.64475e-01,9.99999e-01,4.88842e-01,9.50152e-01,9.99999e-01
1.285045314e+00,3.53607e-02,9.99999e-01,3.71783e-02,9.51112e-01,9.99999e-01
1.291470541e+00,2.73352e-03,9.99999e-01,2.87118e-03,9.52054e-01,9.99999e-01
1.297927893e+00,3.66723e-02,9.99999e-01,3.84817e-02,9.52978e-01,9.99999e-01
1.304417533e+00,3.24570e-01,9.99999e-01,3.40260e-01,9.53885e-01,9.99999e-01
1.310939621e+00,9.22046e-02,9.99999e-01,9.65720e-02,9.54775e-01,9.99999e-01
1.317494319e+00,4.71052e-08,9.99999e-01,4.92913e-08,9.55648e-01,9.99999e-01
1.324081790e+00,6.28175e-06,9.99999e-01,6.56739e-06,9.56505e-01,9.99999e-01
1.330702199e+00,1.66678e-03,9.99999e-01,1.74105e-03,9.57346e-01,9.99999e-01
1.337355710e+00,1.21467e-03,9.99999e-01,1.26770e-03,9.58170e-01,9.99999e-01
1.344042489e+00,4.13465e-04,9.99999e-01,4.31151e-04,9.58979e-01,9.99999e-01
1.350762701e+00,1.25464e-03,9.99999e-01,1.30722e-03,9.59773e-01,9.99999e-01
1.357516515e+00,1.21323e-02,9.99999e-01,1.26306e-02,9.60552e-01,9.99999e-01
1.364304097e+00,6.30297e-02,9.99999e-01,6.55661e-02,9.61316e-01,9.99999e-01
1.371125618e+00,2.27597e-01,9.99999e-01,2.36571e-01,9.62065e-01,9.99999e-01
1.377981246e+00,3.04683e-01,9.99999e-01,3.16455e-01,9.62800e-01,9.99999e-01
1.384871152e+00,4.92955e-01,9.99999e-01,5.11618e-01,9.63521e-01,9.99999e-01
1.391795508e+00,5.19279e-01,9.99999e-01,5.38543e-01,9.64229e-01,9.99999e-01
1.398754485e+00,6.59617e-01,9.99999e-01,6.83595e-01,9.64923e-01,9.99999e-01
1.405748258e+00,7.29101e-01,9.99999e-01,7.55072e-01,9.65604e-01,9.99999e-01
1.412776999e+00,8.09400e-01,9.99999e-01,8.37652e-01,9.66271e-01,9.99999e-01
1.419840884e+00,7.50339e-01,9.99999e-01,7.76003e-01,9.66927e-01,9.99999e-01
1.426940089e+00,9.87628e-02,9.99999e-01,1.02073e-01,9.67569e-01,9.99999e-01
1.434074789e+00,1.83494e-313,9.99999e-01,1.89521e-313,9.68199e-01,9.99999e-01
1.441245163e+00,0.00000e+00,9.99999e-01,0.00000e+00,9.68818e-01,9.99999e-01
1.448451389e+00,0.00000e+00,9.99999e-01,0.00000e+00,9.69424e-01,9.99999e-01
1.455693646e+00,4.20495e-170,9.99999e-01,4.33492e-170,9.70019e-01,9.99999e-01
1.462972114e+00,5.56282e-83,9.99999e-01,5.73130e-83,9.70602e-01,9.99999e-01
1.470286975e+00,1.81389e-35,9.99999e-01,1.86772e-35,9.71174e-01,9.99999e-01
