#,Wave/freq,Total,O2,CO2,Rayleigh,CIA
4.000000000e-01,1.46326e-02,9.99999e-01,9.99999e-01,1.46326e-02,9.99999e-01
4.020000000e-01,1.59073e-02,9.99999e-01,9.99999e-01,1.59073e-02,9.99999e-01
4.040100000e-01,1.72631e-02,9.99999e-01,9.99999e-01,1.72631e-02,9.99999e-01
4.060300500e-01,1.87043e-02,9.99999e-01,9.99999e-01,1.87043e-02,9.99999e-01
4.080602003e-01,2.02336e-02,9.99999e-01,9.99999e-01,2.02336e-02,9.99999e-01
4.101005013e-01,2.18541e-02,9.99999e-01,9.99999e-01,2.18541e-02,9.99999e-01
4.121510038e-01,2.35685e-02,9.99999e-01,9.99999e-01,2.35685e-02,9.99999e-01
4.142117588e-01,2.53794e-02,9.99999e-01,9.99999e-01,2.53794e-02,9.99999e-01
4.162828176e-01,2.72896e-02,9.99999e-01,9.99999e-01,2.72896e-02,9.99999e-01
4.183642317e-01,2.93015e-02,9.99999e-01,9.99999e-01,2.93015e-02,9.99999e-01
4.204560528e-01,3.14176e-02,9.99999e-01,9.99999e-01,3.14176e-02,9.99999e-01
4.225583331e-01,3.36401e-02,9.99999e-01,9.99999e-01,3.36401e-02,9.99999e-01
4.246711247e-01,3.59713e-02,9.99999e-01,9.99999e-01,3.59713e-02,9.99999e-01
4.267944804e-01,3.84131e-02,9.99999e-01,9.99999e-01,3.84131e-02,9.99999e-01
4.289284528e-01,4.09675e-02,9.99999e-01,9.99999e-01,4.09675e-02,9.99999e-01
4.310730950e-01,4.36362e-02,9.99999e-01,9.99999e-01,4.36362e-02,9.99999e-01
4.332284605e-01,4.64209e-02,9.99999e-01,9.99999e-01,4.64209e-02,9.99999e-01
4.353946028e-01,4.93230e-02,9.99999e-01,9.99999e-01,4.93230e-02,9.99999e-01
4.375715758e-01,5.23437e-02,9.99999e-01,9.99999e-01,5.23437e-02,9.99999e-01
4.397594337e-01,5.54843e-02,9.99999e-01,9.99999e-01,5.54843e-02,9.99999e-01
4.419582309e-01,5.87457e-02,9.99999e-01,9.99999e-01,5.87457e-02,9.99999e-01
4.441680220e-01,6.21286e-02,9.99999e-01,9.99999e-01,6.21286e-02,9.99999e-01
4.463888621e-01,6.56337e-02,9.99999e-01,9.99999e-01,6.56337e-02,9.99999e-01
4.486208064e-01,6.92615e-02,9.99999e-01,9.99999e-01,6.92615e-02,9.99999e-01
4.508639105e-01,7.30121e-02,9.99999e-01,9.99999e-01,7.30121e-02,9.99999e-01
4.531182300e-01,7.68857e-02,9.99999e-01,9.99999e-01,7.68857e-02,9.99999e-01
4.553838212e-01,8.08822e-02,9.99999e-01,9.99999e-01,8.08822e-02,9.99999e-01
4.576607403e-01,8.50013e-02,9.99999e-01,9.99999e-01,8.50013e-02,9.99999e-01
4.599490440e-01,8.92426e-02,9.99999e-01,9.99999e-01,8.92426e-02,9.99999e-01
4.622487892e-01,9.36054e-02,9.99999e-01,9.99999e-01,9.36054e-02,9.99999e-01
4.645600332e-01,9.80890e-02,9.99999e-01,9.99999e-01,9.80890e-02,9.99999e-01
4.668828333e-01,1.02692e-01,9.99999e-01,9.99999e-01,1.02692e-01,9.99999e-01
4.692172475e-01,1.07414e-01,9.99999e-01,9.99999e-01,1.07414e-01,9.99999e-01
4.715633337e-01,1.12254e-01,9.99999e-01,9.99999e-01,1.12254e-01,9.99999e-01
4.739211504e-01,1.17209e-01,9.99999e-01,9.99999e-01,1.17209e-01,9.99999e-01
4.762907561e-01,1.22279e-01,9.99999e-01,9.99999e-01,1.22279e-01,9.99999e-01
4.786722099e-01,1.27462e-01,9.99999e-01,9.99999e-01,1.27462e-01,9.99999e-01
4.810655710e-01,1.32755e-01,9.99999e-01,9.99999e-01,1.32755e-01,9.99999e-01
4.834708988e-01,1.38157e-01,9.99999e-01,9.99999e-01,1.38157e-01,9.99999e-01
4.858882533e-01,1.43666e-01,9.99999e-01,9.99999e-01,1.43666e-01,9.99999e-01
4.883176946e-01,1.49278e-01,9.99999e-01,9.99999e-01,1.49278e-01,9.99999e-01
4.907592831e-01,1.54993e-01,9.99999e-01,9.99999e-01,1.54993e-01,9.99999e-01
4.932130795e-01,1.60807e-01,9.99999e-01,9.99999e-01,1.60807e-01,9.99999e-01
4.956791449e-01,1.66718e-01,9.99999e-01,9.99999e-01,1.66718e-01,9.99999e-01
4.981575406e-01,1.72723e-01,9.99999e-01,9.99999e-01,1.72723e-01,9.99999e-01
5.006483283e-01,1.78820e-01,9.99999e-01,9.99999e-01,1.78820e-01,9.99999e-01
5.031515699e-01,1.85004e-01,9.99999e-01,9.99999e-01,1.85004e-01,9.99999e-01
5.056673278e-01,1.91274e-01,9.99999e-01,9.99999e-01,1.91274e-01,9.99999e-01
5.081956644e-01,1.97627e-01,9.99999e-01,9.99999e-01,1.97627e-01,9.99999e-01
5.107366428e-01,2.04058e-01,9.99999e-01,9.99999e-01,2.04058e-01,9.99999e-01
5.132903260e-01,2.10566e-01,9.99999e-01,9.99999e-01,2.10566e-01,9.99999e-01
5.158567776e-01,2.17147e-01,9.99999e-01,9.99999e-01,2.17147e-01,9.99999e-01
5.184360615e-01,2.23797e-01,9.99999e-01,9.99999e-01,2.23797e-01,9.99999e-01
5.210282418e-01,2.30513e-01,9.99999e-01,9.99999e-01,2.30513e-01,9.99999e-01
5.236333830e-01,2.37293e-01,9.99999e-01,9.99999e-01,2.37293e-01,9.99999e-01
5.262515499e-01,2.44132e-01,9.99999e-01,9.99999e-01,2.44132e-01,9.99999e-01
5.288828077e-01,2.51027e-01,9.99999e-01,9.99999e-01,2.51027e-01,9.99999e-01
5.315272217e-01,2.57975e-01,9.99999e-01,9.99999e-01,2.57975e-01,9.99999e-01
5.341848578e-01,2.64972e-01,9.99999e-01,9.99999e-01,2.64972e-01,9.99999e-01
5.368557821e-01,2.72015e-01,9.99999e-01,9.99999e-01,2.72015e-01,9.99999e-01
5.395400610e-01,2.79101e-01,9.99999e-01,9.99999e-01,2.79101e-01,9.99999e-01
5.422377613e-01,2.86226e-01,9.99999e-01,9.99999e-01,2.86226e-01,9.99999e-01
5.449489501e-01,2.93387e-01,9.99999e-01,9.99999e-01,2.93387e-01,9.99999e-01
5.476736949e-01,3.00580e-01,9.99999e-01,9.99999e-01,3.00580e-01,9.99999e-01
5.504120634e-01,3.07802e-01,9.99999e-01,9.99999e-01,3.07802e-01,9.99999e-01
5.531641237e-01,3.15050e-01,9.99999e-01,9.99999e-01,3.15050e-01,9.99999e-01
5.559299443e-01,3.22320e-01,9.99999e-01,9.99999e-01,3.22320e-01,9.99999e-01
5.587095940e-01,3.29610e-01,9.99999e-01,9.99999e-01,3.29610e-01,9.99999e-01
5.615031420e-01,3.36915e-01,9.99999e-01,9.99999e-01,3.36915e-01,9.99999e-01
5.643106577e-01,3.44234e-01,9.99999e-01,9.99999e-01,3.44234e-01,9.99999e-01
5.671322110e-01,3.51562e-01,9.99999e-01,9.99999e-01,3.51562e-01,9.99999e-01
5.699678720e-01,3.58896e-01,9.99999e-01,9.99999e-01,3.58896e-01,9.99999e-01
5.728177114e-01,3.66235e-01,9.99999e-01,9.99999e-01,3.66235e-01,9.99999e-01
5.756818000e-01,3.73574e-01,9.99999e-01,9.99999e-01,3.73574e-01,9.99999e-01
5.785602090e-01,3.80910e-01,9.99999e-01,9.99999e-01,3.80910e-01,9.99999e-01
5.814530100e-01,3.88242e-01,9.99999e-01,9.99999e-01,3.88242e-01,9.99999e-01
5.843602750e-01,3.95566e-01,9.99999e-01,9.99999e-01,3.95566e-01,9.99999e-01
5.872820764e-01,4.02879e-01,9.99999e-01,9.99999e-01,4.02879e-01,9.99999e-01
5.902184868e-01,4.10179e-01,9.99999e-01,9.99999e-01,4.10179e-01,9.99999e-01
5.931695792e-01,4.17463e-01,9.99999e-01,9.99999e-01,4.17463e-01,9.99999e-01
5.961354271e-01,4.24729e-01,9.99999e-01,9.99999e-01,4.24729e-01,9.99999e-01
5.991161043e-01,4.31974e-01,9.99999e-01,9.99999e-01,4.31974e-01,9.99999e-01
6.021116848e-01,4.39196e-01,9.99999e-01,9.99999e-01,4.39196e-01,9.99999e-01
6.051222432e-01,4.46392e-01,9.99999e-01,9.99999e-01,4.46392e-01,9.99999e-01
6.081478544e-01,4.53561e-01,9.99999e-01,9.99999e-01,4.53561e-01,9.99999e-01
6.111885937e-01,4.60700e-01,9.99999e-01,9.99999e-01,4.60700e-01,9.99999e-01
6.142445367e-01,4.67807e-01,9.99999e-01,9.99999e-01,4.67807e-01,9.99999e-01
6.173157594e-01,4.74879e-01,9.99999e-01,9.99999e-01,4.74879e-01,9.99999e-01
6.204023382e-01,4.81916e-01,9.99999e-01,9.99999e-01,4.81916e-01,9.99999e-01
6.235043498e-01,4.88915e-01,9.99999e-01,9.99999e-01,4.88915e-01,9.99999e-01
6.266218716e-01,4.95875e-01,9.99999e-01,9.99999e-01,4.95875e-01,9.99999e-01
6.297549810e-01,5.02793e-01,9.99999e-01,9.99999e-01,5.02793e-01,9.99999e-01
6.329037559e-01,5.09668e-01,9.99999e-01,9.99999e-01,5.09668e-01,9.99999e-01
6.360682746e-01,5.16499e-01,9.99999e-01,9.99999e-01,5.16499e-01,9.99999e-01
6.392486160e-01,5.23283e-01,9.99999e-01,9.99999e-01,5.23283e-01,9.99999e-01
6.424448591e-01,5.30020e-01,9.99999e-01,9.99999e-01,5.30020e-01,9.99999e-01
6.456570834e-01,5.36708e-01,9.99999e-01,9.99999e-01,5.36708e-01,9.99999e-01
6.488853688e-01,5.43346e-01,9.99999e-01,9.99999e-01,5.43346e-01,9.99999e-01
6.521297956e-01,5.49933e-01,9.99999e-01,9.99999e-01,5.49933e-01,9.99999e-01
6.553904446e-01,5.56467e-01,9.99999e-01,9.99999e-01,5.56467e-01,9.99999e-01
6.586673968e-01,5.62947e-01,9.99999e-01,9.99999e-01,5.62947e-01,9.99999e-01
6.619607338e-01,5.69372e-01,9.99999e-01,9.99999e-01,5.69372e-01,9.99999e-01
6.652705375e-01,5.75742e-01,9.99999e-01,9.99999e-01,5.75742e-01,9.99999e-01
6.685968902e-01,5.82055e-01,9.99999e-01,9.99999e-01,5.82055e-01,9.99999e-01
6.719398746e-01,5.88310e-01,9.99999e-01,9.99999e-01,5.88310e-01,9.99999e-01
6.752995740e-01,5.94507e-01,9.99999e-01,9.99999e-01,5.94507e-01,9.99999e-01
6.786760719e-01,6.00645e-01,9.99999e-01,9.99999e-01,6.00645e-01,9.99999e-01
6.820694522e-01,6.06724e-01,9.99999e-01,9.99999e-01,6.06724e-01,9.99999e-01
6.854797995e-01,6.12742e-01,9.99999e-01,9.99999e-01,6.12742e-01,9.99999e-01
6.889071985e-01,6.18699e-01,9.99999e-01,9.99999e-01,6.18699e-01,9.99999e-01
6.923517345e-01,6.24594e-01,9.99999e-01,9.99999e-01,6.24594e-01,9.99999e-01
6.958134932e-01,6.30428e-01,9.99999e-01,9.99999e-01,6.30428e-01,9.99999e-01
6.992925606e-01,6.36199e-01,9.99999e-01,9.99999e-01,6.36199e-01,9.99999e-01
7.027890234e-01,6.41908e-01,9.99999e-01,9.99999e-01,6.41908e-01,9.99999e-01
7.063029686e-01,6.47553e-01,9.99999e-01,9.99999e-01,6.47553e-01,9.99999e-01
7.098344834e-01,6.53136e-01,9.99999e-01,9.99999e-01,6.53136e-01,9.99999e-01
7.133836558e-01,6.58654e-01,9.99999e-01,9.99999e-01,6.58654e-01,9.99999e-01
7.169505741e-01,6.64109e-01,9.99999e-01,9.99999e-01,6.64109e-01,9.99999e-01
7.205353270e-01,6.69500e-01,9.99999e-01,9.99999e-01,6.69500e-01,9.99999e-01
7.241380036e-01,6.74827e-01,9.99999e-01,9.99999e-01,6.74827e-01,9.99999e-01
7.277586936e-01,6.80090e-01,9.99999e-01,9.99999e-01,6.80090e-01,9.99999e-01
7.313974871e-01,6.85289e-01,9.99999e-01,9.99999e-01,6.85289e-01,9.99999e-01
7.350544745e-01,6.90423e-01,9.99999e-01,9.99999e-01,6.90423e-01,9.99999e-01
7.387297469e-01,6.95494e-01,9.99999e-01,9.99999e-01,6.95494e-01,9.99999e-01
7.424233956e-01,7.00500e-01,9.99999e-01,9.99999e-01,7.00500e-01,9.99999e-01
7.461355126e-01,7.05443e-01,9.99999e-01,9.99999e-01,7.05443e-01,9.99999e-01
7.498661902e-01,7.10322e-01,9.99999e-01,9.99999e-01,7.10322e-01,9.99999e-01
7.536155211e-01,7.15137e-01,9.99999e-01,9.99999e-01,7.15137e-01,9.99999e-01
7.573835987e-01,7.19889e-01,9.99999e-01,9.99999e-01,7.19889e-01,9.99999e-01
7.611705167e-01,7.24577e-01,9.99999e-01,9.99999e-01,7.24577e-01,9.99999e-01
7.649763693e-01,7.29203e-01,9.99999e-01,9.99999e-01,7.29203e-01,9.99999e-01
7.688012511e-01,7.33766e-01,9.99999e-01,9.99999e-01,7.33766e-01,9.99999e-01
7.726452574e-01,7.38266e-01,9.99999e-01,9.99999e-01,7.38266e-01,9.99999e-01
7.765084837e-01,7.42705e-01,9.99999e-01,9.99999e-01,7.42705e-01,9.99999e-01
7.803910261e-01,7.35766e-01,9.99999e-01,9.84853e-01,7.47081e-01,9.99999e-01
7.842929812e-01,7.05835e-01,9.99999e-01,9.39364e-01,7.51397e-01,9.99999e-01
7.882144461e-01,7.06244e-01,9.99999e-01,9.34616e-01,7.55651e-01,9.99999e-01
7.921555184e-01,7.30969e-01,9.99999e-01,9.61998e-01,7.59844e-01,9.99999e-01
7.961162960e-01,7.44602e-01,9.99999e-01,9.74637e-01,7.63977e-01,9.99999e-01
8.000968774e-01,7.57420e-01,9.99999e-01,9.86158e-01,7.68051e-01,9.99999e-01
8.040973618e-01,7.66532e-01,9.99999e-01,9.92833e-01,7.72065e-01,9.99999e-01
8.081178486e-01,7.73456e-01,9.99999e-01,9.96694e-01,7.76020e-01,9.99999e-01
8.121584379e-01,7.79126e-01,9.99999e-01,9.98985e-01,7.79917e-01,9.99999e-01
8.162192301e-01,7.83580e-01,9.99999e-01,9.99775e-01,7.83755e-01,9.99999e-01
8.203003262e-01,7.87534e-01,9.99999e-01,9.99996e-01,7.87536e-01,9.99999e-01
8.244018279e-01,7.91261e-01,9.99999e-01,9.99999e-01,7.91261e-01,9.99999e-01
8.285238370e-01,7.94928e-01,9.99999e-01,9.99999e-01,7.94928e-01,9.99999e-01
8.326664562e-01,7.98540e-01,9.99999e-01,9.99999e-01,7.98540e-01,9.99999e-01
8.368297885e-01,8.02097e-01,9.99999e-01,9.99999e-01,8.02097e-01,9.99999e-01
8.410139374e-01,8.05598e-01,9.99999e-01,9.99999e-01,8.05598e-01,9.99999e-01
8.452190071e-01,8.09045e-01,9.99999e-01,9.99999e-01,8.09045e-01,9.99999e-01
8.494451021e-01,8.12439e-01,9.99999e-01,9.99999e-01,8.12439e-01,9.99999e-01
8.536923276e-01,8.15779e-01,9.99999e-01,9.99999e-01,8.15779e-01,9.99999e-01
8.579607893e-01,8.19066e-01,9.99999e-01,9.99999e-01,8.19066e-01,9.99999e-01
8.622505932e-01,8.22302e-01,9.99999e-01,9.99999e-01,8.22302e-01,9.99999e-01
8.665618462e-01,7.91459e-01,9.99999e-01,9.58779e-01,8.25486e-01,9.99999e-01
8.708946554e-01,7.04420e-01,9.99999e-01,8.50113e-01,8.28619e-01,9.99999e-01
8.752491287e-01,7.31432e-01,9.99999e-01,8.79439e-01,8.31701e-01,9.99999e-01
8.796253743e-01,7.78582e-01,9.99999e-01,9.32730e-01,8.34734e-01,9.99999e-01
8.840235012e-01,8.08178e-01,9.99999e-01,9.64737e-01,8.37718e-01,9.99999e-01
8.884436187e-01,8.28911e-01,9.99999e-01,9.86031e-01,8.40653e-01,9.99999e-01
8.928858368e-01,8.38744e-01,9.99999e-01,9.94313e-01,8.43540e-01,9.99999e-01
8.973502660e-01,8.45215e-01,9.99999e-01,9.98622e-01,8.46380e-01,9.99999e-01
9.018370173e-01,8.49044e-01,9.99999e-01,9.99848e-01,8.49173e-01,9.99999e-01
9.063462024e-01,8.48504e-01,9.99999e-01,9.95989e-01,8.51920e-01,9.99999e-01
9.108779334e-01,8.46946e-01,9.99999e-01,9.91018e-01,8.54621e-01,9.99999e-01
9.154323231e-01,8.55479e-01,9.99999e-01,9.97902e-01,8.57277e-01,9.99999e-01
9.200094847e-01,8.32421e-01,9.99999e-01,9.68055e-01,8.59888e-01,9.99999e-01
9.246095321e-01,8.25099e-01,9.99999e-01,9.56684e-01,8.62456e-01,9.99999e-01
9.292325798e-01,8.35069e-01,9.99999e-01,9.65418e-01,8.64981e-01,9.99999e-01
9.338787427e-01,8.38786e-01,9.99999e-01,9.66941e-01,8.67462e-01,9.99999e-01
9.385481364e-01,8.48723e-01,9.99999e-01,9.75653e-01,8.69902e-01,9.99999e-01
9.432408771e-01,8.59286e-01,9.99999e-01,9.85079e-01,8.72300e-01,9.99999e-01
9.479570815e-01,8.67930e-01,9.99999e-01,9.92308e-01,8.74657e-01,9.99999e-01
9.526968669e-01,8.73721e-01,9.99999e-01,9.96289e-01,8.76974e-01,9.99999e-01
9.574603512e-01,8.77856e-01,9.99999e-01,9.98413e-01,8.79251e-01,9.99999e-01
9.622476530e-01,8.81053e-01,9.99999e-01,9.99505e-01,8.81489e-01,9.99999e-01
9.670588912e-01,8.83557e-01,9.99999e-01,9.99851e-01,8.83688e-01,9.99999e-01
9.718941857e-01,8.85840e-01,9.99999e-01,9.99989e-01,8.85849e-01,9.99999e-01
9.767536566e-01,8.87972e-01,9.99999e-01,9.99999e-01,8.87972e-01,9.99999e-01
9.816374249e-01,8.90059e-01,9.99999e-01,9.99999e-01,8.90059e-01,9.99999e-01
9.865456120e-01,8.92109e-01,9.99999e-01,9.99999e-01,8.92109e-01,9.99999e-01
9.914783401e-01,8.94123e-01,9.99999e-01,9.99999e-01,8.94123e-01,9.99999e-01
9.964357318e-01,8.96101e-01,9.99999e-01,9.99999e-01,8.96101e-01,9.99999e-01
1.001417910e+00,8.98045e-01,9.99999e-01,9.99999e-01,8.98045e-01,9.99999e-01
1.006425000e+00,8.99955e-01,9.99999e-01,9.99999e-01,8.99955e-01,9.99999e-01
1.011457125e+00,9.01830e-01,9.99999e-01,9.99999e-01,9.01830e-01,9.99999e-01
1.016514411e+00,9.03673e-01,9.99999e-01,9.99999e-01,9.03673e-01,9.99999e-01
1.021596983e+00,9.05462e-01,9.99999e-01,9.99976e-01,9.05483e-01,9.99999e-01
1.026704968e+00,9.05842e-01,9.99999e-01,9.98436e-01,9.07260e-01,9.99999e-01
1.031838492e+00,8.85976e-01,9.99999e-01,9.74663e-01,9.09006e-01,9.99999e-01
1.036997685e+00,2.97455e-01,9.99999e-01,3.26614e-01,9.10721e-01,9.99999e-01
1.042182673e+00,3.67022e-01,9.99999e-01,4.02258e-01,9.12404e-01,9.99999e-01
1.047393587e+00,3.28618e-01,9.99999e-01,3.59515e-01,9.14058e-01,9.99999e-01
1.052630555e+00,6.51903e-02,9.99999e-01,7.11931e-02,9.15682e-01,9.99999e-01
1.057893707e+00,1.16678e-01,9.99999e-01,1.27201e-01,9.17276e-01,9.99999e-01
1.063183176e+00,2.07109e-01,9.99999e-01,2.25402e-01,9.18842e-01,9.99999e-01
1.068499092e+00,3.42271e-01,9.99999e-01,3.71880e-01,9.20380e-01,9.99999e-01
1.073841587e+00,4.95084e-01,9.99999e-01,5.37032e-01,9.21889e-01,9.99999e-01
1.079210795e+00,6.24005e-01,9.99999e-01,6.75789e-01,9.23371e-01,9.99999e-01
1.084606849e+00,7.47175e-01,9.99999e-01,8.07907e-01,9.24827e-01,9.99999e-01
1.090029883e+00,8.29384e-01,9.99999e-01,8.95416e-01,9.26255e-01,9.99999e-01
1.095480033e+00,8.78629e-01,9.99999e-01,9.47147e-01,9.27658e-01,9.99999e-01
1.100957433e+00,9.05077e-01,9.99999e-01,9.74211e-01,9.29035e-01,9.99999e-01
1.106462220e+00,9.20407e-01,9.99999e-01,9.89272e-01,9.30387e-01,9.99999e-01
1.111994531e+00,9.27998e-01,9.99999e-01,9.96011e-01,9.31714e-01,9.99999e-01
1.117554504e+00,9.32110e-01,9.99999e-01,9.99028e-01,9.33016e-01,9.99999e-01
1.123142276e+00,9.34236e-01,9.99999e-01,9.99936e-01,9.34295e-01,9.99999e-01
1.128757988e+00,9.35550e-01,9.99999e-01,9.99999e-01,9.35550e-01,9.99999e-01
1.134401778e+00,9.36782e-01,9.99999e-01,9.99999e-01,9.36782e-01,9.99999e-01
1.140073787e+00,9.37991e-01,9.99999e-01,9.99999e-01,9.37991e-01,9.99999e-01
1.145774156e+00,9.39178e-01,9.99999e-01,9.99999e-01,9.39178e-01,9.99999e-01
1.151503026e+00,9.40342e-01,9.99999e-01,9.99999e-01,9.40342e-01,9.99999e-01
1.157260541e+00,9.41486e-01,9.99999e-01,9.99999e-01,9.41486e-01,9.99999e-01
1.163046844e+00,9.42608e-01,9.99999e-01,9.99999e-01,9.42608e-01,9.99999e-01
1.168862078e+00,9.43709e-01,9.99999e-01,9.99999e-01,9.43709e-01,9.99999e-01
1.174706389e+00,9.44789e-01,9.99999e-01,9.99999e-01,9.44789e-01,9.99999e-01
1.180579921e+00,9.45850e-01,9.99999e-01,9.99999e-01,9.45850e-01,9.99999e-01
1.186482820e+00,9.46887e-01,9.99999e-01,9.99996e-01,9.46890e-01,9.99999e-01
1.192415234e+00,9.42561e-01,9.99999e-01,9.94355e-01,9.47912e-01,9.99999e-01
1.198377311e+00,5.62891e-01,9.99999e-01,5.93195e-01,9.48914e-01,9.99999e-01
1.204369197e+00,6.56412e-06,9.99999e-01,6.91034e-06,9.49897e-01,9.99999e-01
1.210391043e+00,5.44905e-18,9.99999e-01,5.73064e-18,9.50862e-01,9.99999e-01
1.216442998e+00,8.10710e-16,9.99999e-01,8.51756e-16,9.51809e-01,9.99999e-01
1.222525213e+00,1.41227e-15,9.99999e-01,1.48233e-15,9.52738e-01,9.99999e-01
1.228637839e+00,6.00200e-12,9.99999e-01,6.29371e-12,9.53649e-01,9.99999e-01
1.234781029e+00,1.82772e-08,9.99999e-01,1.91476e-08,9.54544e-01,9.99999e-01
1.240954934e+00,9.71231e-06,9.99999e-01,1.01655e-05,9.55421e-01,9.99999e-01
1.247159708e+00,1.50669e-03,9.99999e-01,1.57556e-03,9.56282e-01,9.99999e-01
1.253395507e+00,2.84133e-02,9.99999e-01,2.96860e-02,9.57127e-01,9.99999e-01
1.259662485e+00,1.30980e-01,9.99999e-01,1.36728e-01,9.57956e-01,9.99999e-01
1.265960797e+00,3.03343e-01,9.99999e-01,3.16387e-01,9.58769e-01,9.99999e-01
1.272290601e+00,5.99738e-01,9.99999e-01,6.25009e-01,9.59567e-01,9.99999e-01
1.278652054e+00,5.34219e-01,9.99999e-01,5.56275e-01,9.60349e-01,9.99999e-01
1.285045314e+00,4.13582e-02,9.99999e-01,4.30314e-02,9.61117e-01,9.99999e-01
1.291470541e+00,8.78682e-03,9.99999e-01,9.13514e-03,9.61870e-01,9.99999e-01
1.297927893e+00,9.46463e-02,9.99999e-01,9.83226e-02,9.62609e-01,9.99999e-01
1.304417533e+00,4.11060e-01,9.99999e-01,4.26706e-01,9.63334e-01,9.99999e-01
1.310939621e+00,8.18366e-02,9.99999e-01,8.48887e-02,9.64045e-01,9.99999e-01
1.317494319e+00,1.31373e-06,9.99999e-01,1.36174e-06,9.64742e-01,9.99999e-01
1.324081790e+00,5.79420e-05,9.99999e-01,6.00170e-05,9.65427e-01,9.99999e-01
1.330702199e+00,6.00267e-03,9.99999e-01,6.21331e-03,9.66098e-01,9.99999e-01
1.337355710e+00,4.10392e-03,9.99999e-01,4.24504e-03,9.66756e-01,9.99999e-01
1.344042489e+00,1.54336e-03,9.99999e-01,1.59536e-03,9.67402e-01,9.99999e-01
1.350762701e+00,4.87544e-03,9.99999e-01,5.03642e-03,9.68035e-01,9.99999e-01
1.357516515e+00,2.94048e-02,9.99999e-01,3.03563e-02,9.68657e-01,9.99999e-01
1.364304097e+00,1.11840e-01,9.99999e-01,1.15386e-01,9.69266e-01,9.99999e-01
1.371125618e+00,3.09267e-01,9.99999e-01,3.18876e-01,9.69864e-01,9.99999e-01
1.377981246e+00,3.90634e-01,9.99999e-01,4.02528e-01,9.70450e-01,9.99999e-01
1.384871152e+00,5.71939e-01,9.99999e-01,5.89005e-01,9.71026e-01,9.99999e-01
1.391795508e+00,5.96017e-01,9.99999e-01,6.13445e-01,9.71590e-01,9.99999e-01
1.398754485e+00,7.20056e-01,9.99999e-01,7.40688e-01,9.72143e-01,9.99999e-01
1.405748258e+00,7.79422e-01,9.99999e-01,8.01308e-01,9.72686e-01,9.99999e-01
1.412776999e+00,8.46480e-01,9.99999e-01,8.69774e-01,9.73218e-01,9.99999e-01
1.419840884e+00,7.88897e-01,9.99999e-01,8.10171e-01,9.73740e-01,9.99999e-01
1.426940089e+00,1.11848e-01,9.99999e-01,1.14804e-01,9.74252e-01,9.99999e-01
1.434074789e+00,1.50428e-248,9.99999e-01,1.54324e-248,9.74754e-01,9.99999e-01
1.441245163e+00,0.00000e+00,9.99999e-01,0.00000e+00,9.75246e-01,9.99999e-01
1.448451389e+00,2.73042e-301,9.99999e-01,2.79834e-301,9.75729e-01,9.99999e-01
1.455693646e+00,4.31383e-135,9.99999e-01,4.41898e-135,9.76203e-01,9.99999e-01
1.462972114e+00,3.84453e-66,9.99999e-01,3.93637e-66,9.76667e-01,9.99999e-01
1.470286975e+00,1.56498e-28,9.99999e-01,1.60162e-28,9.77123e-01,9.99999e-01
