#,Wave/freq,Total,O2,CO2,Rayleigh,CIA
4.000000000e-01,2.62214e-09,9.99999e-01,9.99999e-01,2.62214e-09,9.99999e-01
4.020000000e-01,3.87553e-09,9.99999e-01,9.99999e-01,3.87553e-09,9.99999e-01
4.040100000e-01,5.68175e-09,9.99999e-01,9.99999e-01,5.68175e-09,9.99999e-01
4.060300500e-01,8.26706e-09,9.99999e-01,9.99999e-01,8.26706e-09,9.99999e-01
4.080602003e-01,1.19400e-08,9.99999e-01,9.99999e-01,1.19400e-08,9.99999e-01
4.101005013e-01,1.71199e-08,9.99999e-01,9.99999e-01,1.71199e-08,9.99999e-01
4.121510038e-01,2.43731e-08,9.99999e-01,9.99999e-01,2.43731e-08,9.99999e-01
4.142117588e-01,3.44578e-08,9.99999e-01,9.99999e-01,3.44578e-08,9.99999e-01
4.162828176e-01,4.83832e-08,9.99999e-01,9.99999e-01,4.83832e-08,9.99999e-01
4.183642317e-01,6.74823e-08,9.99999e-01,9.99999e-01,6.74823e-08,9.99999e-01
4.204560528e-01,9.35042e-08,9.99999e-01,9.99999e-01,9.35042e-08,9.99999e-01
4.225583331e-01,1.28728e-07,9.99999e-01,9.99999e-01,1.28728e-07,9.99999e-01
4.246711247e-01,1.76107e-07,9.99999e-01,9.99999e-01,1.76107e-07,9.99999e-01
4.267944804e-01,2.39435e-07,9.99999e-01,9.99999e-01,2.39435e-07,9.99999e-01
4.289284528e-01,3.23568e-07,9.99999e-01,9.99999e-01,3.23568e-07,9.99999e-01
4.310730950e-01,4.34670e-07,9.99999e-01,9.99999e-01,4.34670e-07,9.99999e-01
4.332284605e-01,5.80527e-07,9.99999e-01,9.99999e-01,5.80527e-07,9.99999e-01
4.353946028e-01,7.70907e-07,9.99999e-01,9.99999e-01,7.70907e-07,9.99999e-01
4.375715758e-01,1.01800e-06,9.99999e-01,9.99999e-01,1.01800e-06,9.99999e-01
4.397594337e-01,1.33694e-06,9.99999e-01,9.99999e-01,1.33694e-06,9.99999e-01
4.419582309e-01,1.74636e-06,9.99999e-01,9.99999e-01,1.74636e-06,9.99999e-01
4.441680220e-01,2.26917e-06,9.99999e-01,9.99999e-01,2.26917e-06,9.99999e-01
4.463888621e-01,2.93327e-06,9.99999e-01,9.99999e-01,2.93327e-06,9.99999e-01
4.486208064e-01,3.77256e-06,9.99999e-01,9.99999e-01,3.77256e-06,9.99999e-01
4.508639105e-01,4.82793e-06,9.99999e-01,9.99999e-01,4.82793e-06,9.99999e-01
4.531182300e-01,6.14850e-06,9.99999e-01,9.99999e-01,6.14850e-06,9.99999e-01
4.553838212e-01,7.79299e-06,9.99999e-01,9.99999e-01,7.79299e-06,9.99999e-01
4.576607403e-01,9.83118e-06,9.99999e-01,9.99999e-01,9.83118e-06,9.99999e-01
4.599490440e-01,1.23457e-05,9.99999e-01,9.99999e-01,1.23457e-05,9.99999e-01
4.622487892e-01,1.54337e-05,9.99999e-01,9.99999e-01,1.54337e-05,9.99999e-01
4.645600332e-01,1.92092e-05,9.99999e-01,9.99999e-01,1.92092e-05,9.99999e-01
4.668828333e-01,2.38052e-05,9.99999e-01,9.99999e-01,2.38052e-05,9.99999e-01
4.692172475e-01,2.93760e-05,9.99999e-01,9.99999e-01,2.93760e-05,9.99999e-01
4.715633337e-01,3.61004e-05,9.99999e-01,9.99999e-01,3.61004e-05,9.99999e-01
4.739211504e-01,4.41837e-05,9.99999e-01,9.99999e-01,4.41837e-05,9.99999e-01
4.762907561e-01,5.38615e-05,9.99999e-01,9.99999e-01,5.38615e-05,9.99999e-01
4.786722099e-01,6.54028e-05,9.99999e-01,9.99999e-01,6.54028e-05,9.99999e-01
4.810655710e-01,7.91131e-05,9.99999e-01,9.99999e-01,7.91131e-05,9.99999e-01
4.834708988e-01,9.53385e-05,9.99999e-01,9.99999e-01,9.53385e-05,9.99999e-01
4.858882533e-01,1.14469e-04,9.99999e-01,9.99999e-01,1.14469e-04,9.99999e-01
4.883176946e-01,1.36943e-04,9.99999e-01,9.99999e-01,1.36943e-04,9.99999e-01
4.907592831e-01,1.63249e-04,9.99999e-01,9.99999e-01,1.63249e-04,9.99999e-01
4.932130795e-01,1.93935e-04,9.99999e-01,9.99999e-01,1.93935e-04,9.99999e-01
4.956791449e-01,2.29607e-04,9.99999e-01,9.99999e-01,2.29607e-04,9.99999e-01
4.981575406e-01,2.70935e-04,9.99999e-01,9.99999e-01,2.70935e-04,9.99999e-01
5.006483283e-01,3.18658e-04,9.99999e-01,9.99999e-01,3.18658e-04,9.99999e-01
5.031515699e-01,3.73587e-04,9.99999e-01,9.99999e-01,3.73587e-04,9.99999e-01
5.056673278e-01,4.36612e-04,9.99999e-01,9.99999e-01,4.36612e-04,9.99999e-01
5.081956644e-01,5.08701e-04,9.99999e-01,9.99999e-01,5.08701e-04,9.99999e-01
5.107366428e-01,5.90905e-04,9.99999e-01,9.99999e-01,5.90905e-04,9.99999e-01
5.132903260e-01,6.84366e-04,9.99999e-01,9.99999e-01,6.84366e-04,9.99999e-01
5.158567776e-01,7.90313e-04,9.99999e-01,9.99999e-01,7.90313e-04,9.99999e-01
5.184360615e-01,9.10071e-04,9.99999e-01,9.99999e-01,9.10071e-04,9.99999e-01
5.210282418e-01,1.04506e-03,9.99999e-01,9.99999e-01,1.04506e-03,9.99999e-01
5.236333830e-01,1.19680e-03,9.99999e-01,9.99999e-01,1.19680e-03,9.99999e-01
5.262515499e-01,1.36690e-03,9.99999e-01,9.99999e-01,1.36690e-03,9.99999e-01
5.288828077e-01,1.55709e-03,9.99999e-01,9.99999e-01,1.55709e-03,9.99999e-01
5.315272217e-01,1.76918e-03,9.99999e-01,9.99999e-01,1.76918e-03,9.99999e-01
5.341848578e-01,2.00510e-03,9.99999e-01,9.99999e-01,2.00510e-03,9.99999e-01
5.368557821e-01,2.26686e-03,9.99999e-01,9.99999e-01,2.26686e-03,9.99999e-01
5.395400610e-01,2.55659e-03,9.99999e-01,9.99999e-01,2.55659e-03,9.99999e-01
5.422377613e-01,2.87652e-03,9.99999e-01,9.99999e-01,2.87652e-03,9.99999e-01
5.449489501e-01,3.22894e-03,9.99999e-01,9.99999e-01,3.22894e-03,9.99999e-01
5.476736949e-01,3.61629e-03,9.99999e-01,9.99999e-01,3.61629e-03,9.99999e-01
5.504120634e-01,4.04104e-03,9.99999e-01,9.99999e-01,4.04104e-03,9.99999e-01
5.531641237e-01,4.50579e-03,9.99999e-01,9.99999e-01,4.50579e-03,9.99999e-01
5.559299443e-01,5.01319e-03,9.99999e-01,9.99999e-01,5.01319e-03,9.99999e-01
5.587095940e-01,5.56600e-03,9.99999e-01,9.99999e-01,5.56600e-03,9.99999e-01
5.615031420e-01,6.16700e-03,9.99999e-01,9.99999e-01,6.16700e-03,9.99999e-01
5.643106577e-01,6.81908e-03,9.99999e-01,9.99999e-01,6.81908e-03,9.99999e-01
5.671322110e-01,7.52515e-03,9.99999e-01,9.99999e-01,7.52515e-03,9.99999e-01
5.699678720e-01,8.28818e-03,9.99999e-01,9.99999e-01,8.28818e-03,9.99999e-01
5.728177114e-01,9.11118e-03,9.99999e-01,9.99999e-01,9.11118e-03,9.99999e-01
5.756818000e-01,9.99719e-03,9.99999e-01,9.99999e-01,9.99719e-03,9.99999e-01
5.785602090e-01,1.09493e-02,9.99999e-01,9.99999e-01,1.09493e-02,9.99999e-01
5.814530100e-01,1.19705e-02,9.99999e-01,9.99999e-01,1.19705e-02,9.99999e-01
5.843602750e-01,1.30639e-02,9.99999e-01,9.99999e-01,1.30639e-02,9.99999e-01
5.872820764e-01,1.42327e-02,9.99999e-01,9.99999e-01,1.42327e-02,9.99999e-01
5.902184868e-01,1.54797e-02,9.99999e-01,9.99999e-01,1.54797e-02,9.99999e-01
5.931695792e-01,1.68082e-02,9.99999e-01,9.99999e-01,1.68082e-02,9.99999e-01
5.961354271e-01,1.82209e-02,9.99999e-01,9.99999e-01,1.82209e-02,9.99999e-01
5.991161043e-01,1.97210e-02,9.99999e-01,9.99999e-01,1.97210e-02,9.99999e-01
6.021116848e-01,2.13112e-02,9.99999e-01,9.99999e-01,2.13112e-02,9.99999e-01
6.051222432e-01,2.29944e-02,9.99999e-01,9.99999e-01,2.29944e-02,9.99999e-01
6.081478544e-01,2.47733e-02,9.99999e-01,9.99999e-01,2.47733e-02,9.99999e-01
6.111885937e-01,2.66506e-02,9.99999e-01,9.99999e-01,2.66506e-02,9.99999e-01
6.142445367e-01,2.86288e-02,9.99999e-01,9.99999e-01,2.86288e-02,9.99999e-01
6.173157594e-01,3.07104e-02,9.99999e-01,9.99999e-01,3.07104e-02,9.99999e-01
6.204023382e-01,3.28977e-02,9.99999e-01,9.99999e-01,3.28977e-02,9.99999e-01
6.235043498e-01,3.51929e-02,9.99999e-01,9.99999e-01,3.51929e-02,9.99999e-01
6.266218716e-01,3.75981e-02,9.99999e-01,9.99999e-01,3.75981e-02,9.99999e-01
6.297549810e-01,4.01153e-02,9.99999e-01,9.99999e-01,4.01153e-02,9.99999e-01
6.329037559e-01,4.27462e-02,9.99999e-01,9.99999e-01,4.27462e-02,9.99999e-01
6.360682746e-01,4.54926e-02,9.99999e-01,9.99999e-01,4.54926e-02,9.99999e-01
6.392486160e-01,4.83560e-02,9.99999e-01,9.99999e-01,4.83560e-02,9.99999e-01
6.424448591e-01,5.13376e-02,9.99999e-01,9.99999e-01,5.13376e-02,9.99999e-01
6.456570834e-01,5.44387e-02,9.99999e-01,9.99999e-01,5.44387e-02,9.99999e-01
6.488853688e-01,5.76602e-02,9.99999e-01,9.99999e-01,5.76602e-02,9.99999e-01
6.521297956e-01,6.10031e-02,9.99999e-01,9.99999e-01,6.10031e-02,9.99999e-01
6.553904446e-01,6.44680e-02,9.99999e-01,9.99999e-01,6.44680e-02,9.99999e-01
6.586673968e-01,6.80554e-02,9.99999e-01,9.99999e-01,6.80554e-02,9.99999e-01
6.619607338e-01,7.17657e-02,9.99999e-01,9.99999e-01,7.17657e-02,9.99999e-01
6.652705375e-01,7.55989e-02,9.99999e-01,9.99999e-01,7.55989e-02,9.99999e-01
6.685968902e-01,7.95550e-02,9.99999e-01,9.99999e-01,7.95550e-02,9.99999e-01
6.719398746e-01,8.36338e-02,9.99999e-01,9.99999e-01,8.36338e-02,9.99999e-01
6.752995740e-01,8.78350e-02,9.99999e-01,9.99999e-01,8.78350e-02,9.99999e-01
6.786760719e-01,9.21579e-02,9.99999e-01,9.99999e-01,9.21579e-02,9.99999e-01
6.820694522e-01,9.66019e-02,9.99999e-01,9.99999e-01,9.66019e-02,9.99999e-01
6.854797995e-01,1.01166e-01,9.99999e-01,9.99999e-01,1.01166e-01,9.99999e-01
6.889071985e-01,1.05849e-01,9.99999e-01,9.99999e-01,1.05849e-01,9.99999e-01
6.923517345e-01,1.10650e-01,9.99999e-01,9.99999e-01,1.10650e-01,9.99999e-01
6.958134932e-01,1.15568e-01,9.99999e-01,9.99999e-01,1.15568e-01,9.99999e-01
6.992925606e-01,1.20600e-01,9.99999e-01,9.99999e-01,1.20600e-01,9.99999e-01
7.027890234e-01,1.25746e-01,9.99999e-01,9.99999e-01,1.25746e-01,9.99999e-01
7.063029686e-01,1.31003e-01,9.99999e-01,9.99999e-01,1.31003e-01,9.99999e-01
7.098344834e-01,1.36369e-01,9.99999e-01,9.99999e-01,1.36369e-01,9.99999e-01
7.133836558e-01,1.41843e-01,9.99999e-01,9.99999e-01,1.41843e-01,9.99999e-01
7.169505741e-01,1.47422e-01,9.99999e-01,9.99999e-01,1.47422e-01,9.99999e-01
7.205353270e-01,1.53104e-01,9.99999e-01,9.99999e-01,1.53104e-01,9.99999e-01
7.241380036e-01,1.58885e-01,9.99999e-01,9.99999e-01,1.58885e-01,9.99999e-01
7.277586936e-01,1.64765e-01,9.99999e-01,9.99999e-01,1.64765e-01,9.99999e-01
7.313974871e-01,1.70739e-01,9.99999e-01,9.99999e-01,1.70739e-01,9.99999e-01
7.350544745e-01,1.76806e-01,9.99999e-01,9.99999e-01,1.76806e-01,9.99999e-01
7.387297469e-01,1.82962e-01,9.99999e-01,9.99999e-01,1.82962e-01,9.99999e-01
7.424233956e-01,1.89204e-01,9.99999e-01,9.99999e-01,1.89204e-01,9.99999e-01
7.461355126e-01,1.95530e-01,9.99999e-01,9.99999e-01,1.95530e-01,9.99999e-01
7.498661902e-01,2.01936e-01,9.99999e-01,9.99999e-01,2.01936e-01,9.99999e-01
7.536155211e-01,2.08419e-01,9.99999e-01,9.99999e-01,2.08419e-01,9.99999e-01
7.573835987e-01,2.14976e-01,9.99999e-01,9.99999e-01,2.14976e-01,9.99999e-01
7.611705167e-01,2.21603e-01,9.99999e-01,9.99999e-01,2.21603e-01,9.99999e-01
7.649763693e-01,2.28298e-01,9.99999e-01,9.99999e-01,2.28298e-01,9.99999e-01
7.688012511e-01,2.35058e-01,9.99999e-01,9.99999e-01,2.35058e-01,9.99999e-01
7.726452574e-01,2.41877e-01,9.99999e-01,9.99999e-01,2.41877e-01,9.99999e-01
7.765084837e-01,2.48754e-01,9.99999e-01,9.99999e-01,2.48754e-01,9.99999e-01
7.803910261e-01,2.40344e-01,9.99999e-01,9.39998e-01,2.55685e-01,9.99999e-01
7.842929812e-01,1.98535e-01,9.99999e-01,7.55843e-01,2.62667e-01,9.99999e-01
7.882144461e-01,1.99995e-01,9.99999e-01,7.41557e-01,2.69695e-01,9.99999e-01
7.921555184e-01,2.31458e-01,9.99999e-01,8.36291e-01,2.76767e-01,9.99999e-01
7.961162960e-01,2.51835e-01,9.99999e-01,8.87117e-01,2.83880e-01,9.99999e-01
8.000968774e-01,2.72703e-01,9.99999e-01,9.37029e-01,2.91029e-01,9.99999e-01
8.040973618e-01,2.88348e-01,9.99999e-01,9.66923e-01,2.98212e-01,9.99999e-01
8.081178486e-01,3.00733e-01,9.99999e-01,9.84636e-01,3.05425e-01,9.99999e-01
8.121584379e-01,3.11182e-01,9.99999e-01,9.95256e-01,3.12665e-01,9.99999e-01
8.162192301e-01,3.19592e-01,9.99999e-01,9.98950e-01,3.19928e-01,9.99999e-01
8.203003262e-01,3.27207e-01,9.99999e-01,9.99984e-01,3.27211e-01,9.99999e-01
8.244018279e-01,3.34512e-01,9.99999e-01,9.99999e-01,3.34512e-01,9.99999e-01
8.285238370e-01,3.41827e-01,9.99999e-01,9.99999e-01,3.41827e-01,9.99999e-01
8.326664562e-01,3.49152e-01,9.99999e-01,9.99999e-01,3.49152e-01,9.99999e-01
8.368297885e-01,3.56485e-01,9.99999e-01,9.99999e-01,3.56485e-01,9.99999e-01
8.410139374e-01,3.63822e-01,9.99999e-01,9.99999e-01,3.63822e-01,9.99999e-01
8.452190071e-01,3.71161e-01,9.99999e-01,9.99999e-01,3.71161e-01,9.99999e-01
8.494451021e-01,3.78499e-01,9.99999e-01,9.99999e-01,3.78499e-01,9.99999e-01
8.536923276e-01,3.85833e-01,9.99999e-01,9.99999e-01,3.85833e-01,9.99999e-01
8.579607893e-01,3.93160e-01,9.99999e-01,9.99999e-01,3.93160e-01,9.99999e-01
8.622505932e-01,4.00477e-01,9.99999e-01,9.99999e-01,4.00477e-01,9.99999e-01
8.665618462e-01,3.64005e-01,9.99999e-01,8.92648e-01,4.07781e-01,9.99999e-01
8.708946554e-01,2.05893e-01,9.99999e-01,4.96042e-01,4.15071e-01,9.99999e-01
8.752491287e-01,2.38168e-01,9.99999e-01,5.63919e-01,4.22343e-01,9.99999e-01
8.796253743e-01,3.12355e-01,9.99999e-01,7.27091e-01,4.29595e-01,9.99999e-01
8.840235012e-01,3.69766e-01,9.99999e-01,8.46486e-01,4.36825e-01,9.99999e-01
8.884436187e-01,4.15782e-01,9.99999e-01,9.36381e-01,4.44030e-01,9.99999e-01
8.928858368e-01,4.39331e-01,9.99999e-01,9.73677e-01,4.51208e-01,9.99999e-01
8.973502660e-01,4.55407e-01,9.99999e-01,9.93564e-01,4.58357e-01,9.99999e-01
9.018370173e-01,4.65144e-01,9.99999e-01,9.99289e-01,4.65474e-01,9.99999e-01
9.063462024e-01,4.63916e-01,9.99999e-01,9.81711e-01,4.72558e-01,9.99999e-01
9.108779334e-01,4.59831e-01,9.99999e-01,9.58764e-01,4.79607e-01,9.99999e-01
9.154323231e-01,4.81860e-01,9.99999e-01,9.90220e-01,4.86619e-01,9.99999e-01
9.200094847e-01,4.30471e-01,9.99999e-01,8.72119e-01,4.93592e-01,9.99999e-01
9.246095321e-01,4.07465e-01,9.99999e-01,8.14076e-01,5.00524e-01,9.99999e-01
9.292325798e-01,4.32038e-01,9.99999e-01,8.51452e-01,5.07413e-01,9.99999e-01
9.338787427e-01,4.40228e-01,9.99999e-01,8.56044e-01,5.14258e-01,9.99999e-01
9.385481364e-01,4.64606e-01,9.99999e-01,8.91657e-01,5.21058e-01,9.99999e-01
9.432408771e-01,4.92001e-01,9.99999e-01,9.32152e-01,5.27811e-01,9.99999e-01
9.479570815e-01,5.15562e-01,9.99999e-01,9.64540e-01,5.34515e-01,9.99999e-01
9.526968669e-01,5.31847e-01,9.99999e-01,9.82772e-01,5.41170e-01,9.99999e-01
9.574603512e-01,5.43719e-01,9.99999e-01,9.92598e-01,5.47773e-01,9.99999e-01
9.622476530e-01,5.53043e-01,9.99999e-01,9.97687e-01,5.54325e-01,9.99999e-01
9.670588912e-01,5.60434e-01,9.99999e-01,9.99307e-01,5.60823e-01,9.99999e-01
9.718941857e-01,5.67239e-01,9.99999e-01,9.99951e-01,5.67266e-01,9.99999e-01
9.767536566e-01,5.73654e-01,9.99999e-01,9.99999e-01,5.73654e-01,9.99999e-01
9.816374249e-01,5.79986e-01,9.99999e-01,9.99999e-01,5.79986e-01,9.99999e-01
9.865456120e-01,5.86260e-01,9.99999e-01,9.99999e-01,5.86260e-01,9.99999e-01
9.914783401e-01,5.92477e-01,9.99999e-01,9.99999e-01,5.92477e-01,9.99999e-01
9.964357318e-01,5.98634e-01,9.99999e-01,9.99999e-01,5.98634e-01,9.99999e-01
1.001417910e+00,6.04732e-01,9.99999e-01,9.99999e-01,6.04732e-01,9.99999e-01
1.006425000e+00,6.10770e-01,9.99999e-01,9.99999e-01,6.10770e-01,9.99999e-01
1.011457125e+00,6.16747e-01,9.99999e-01,9.99999e-01,6.16747e-01,9.99999e-01
1.016514411e+00,6.22663e-01,9.99999e-01,9.99999e-01,6.22663e-01,9.99999e-01
1.021596983e+00,6.28451e-01,9.99999e-01,9.99893e-01,6.28517e-01,9.99999e-01
1.026704968e+00,6.29727e-01,9.99999e-01,9.92776e-01,6.34309e-01,9.99999e-01
1.031838492e+00,5.94757e-01,9.99999e-01,9.29252e-01,6.40038e-01,9.99999e-01
1.036997685e+00,5.37575e-02,9.99999e-01,8.32539e-02,6.45705e-01,9.99999e-01
1.042182673e+00,1.51095e-02,9.99999e-01,2.31987e-02,6.51308e-01,9.99999e-01
1.047393587e+00,2.67373e-02,9.99999e-01,4.07055e-02,6.56847e-01,9.99999e-01
1.052630555e+00,6.03770e-05,9.99999e-01,9.11593e-05,6.62323e-01,9.99999e-01
1.057893707e+00,2.09406e-04,9.99999e-01,3.13606e-04,6.67735e-01,9.99999e-01
1.063183176e+00,1.64829e-03,9.99999e-01,2.44886e-03,6.73083e-01,9.99999e-01
1.068499092e+00,8.58908e-03,9.99999e-01,1.26614e-02,6.78367e-01,9.99999e-01
1.073841587e+00,4.24132e-02,9.99999e-01,6.20449e-02,6.83587e-01,9.99999e-01
1.079210795e+00,1.18803e-01,9.99999e-01,1.72492e-01,6.88743e-01,9.99999e-01
1.084606849e+00,2.60226e-01,9.99999e-01,3.75055e-01,6.93834e-01,9.99999e-01
1.090029883e+00,4.18962e-01,9.99999e-01,5.99492e-01,6.98862e-01,9.99999e-01
1.095480033e+00,5.46846e-01,9.99999e-01,7.76962e-01,7.03825e-01,9.99999e-01
1.100957433e+00,6.27392e-01,9.99999e-01,8.85239e-01,7.08725e-01,9.99999e-01
1.106462220e+00,6.78489e-01,9.99999e-01,9.50848e-01,7.13561e-01,9.99999e-01
1.111994531e+00,7.05032e-01,9.99999e-01,9.81482e-01,7.18334e-01,9.99999e-01
1.117554504e+00,7.19762e-01,9.99999e-01,9.95461e-01,7.23043e-01,9.99999e-01
1.123142276e+00,7.27473e-01,9.99999e-01,9.99702e-01,7.27690e-01,9.99999e-01
1.128757988e+00,7.32273e-01,9.99999e-01,9.99999e-01,7.32273e-01,9.99999e-01
1.134401778e+00,7.36794e-01,9.99999e-01,9.99999e-01,7.36794e-01,9.99999e-01
1.140073787e+00,7.41253e-01,9.99999e-01,9.99999e-01,7.41253e-01,9.99999e-01
1.145774156e+00,7.45650e-01,9.99999e-01,9.99999e-01,7.45650e-01,9.99999e-01
1.151503026e+00,7.49985e-01,9.99999e-01,9.99999e-01,7.49985e-01,9.99999e-01
1.157260541e+00,7.54259e-01,9.99999e-01,9.99999e-01,7.54259e-01,9.99999e-01
1.163046844e+00,7.58472e-01,9.99999e-01,9.99999e-01,7.58472e-01,9.99999e-01
1.168862078e+00,7.62625e-01,9.99999e-01,9.99999e-01,7.62625e-01,9.99999e-01
1.174706389e+00,7.66718e-01,9.99999e-01,9.99999e-01,7.66718e-01,9.99999e-01
1.180579921e+00,7.70752e-01,9.99999e-01,9.99999e-01,7.70752e-01,9.99999e-01
1.186482820e+00,7.74715e-01,9.99999e-01,9.99984e-01,7.74726e-01,9.99999e-01
1.192415234e+00,7.58989e-01,9.99999e-01,9.74758e-01,7.78642e-01,9.99999e-01
1.198377311e+00,4.22951e-01,9.99999e-01,5.40513e-01,7.82500e-01,9.99999e-01
1.204369197e+00,2.19429e-19,9.99999e-01,2.79065e-19,7.86300e-01,9.99999e-01
1.210391043e+00,7.22992e-76,9.99999e-01,9.15129e-76,7.90043e-01,9.99999e-01
1.216442998e+00,9.09122e-66,9.99999e-01,1.14538e-65,7.93729e-01,9.99999e-01
1.222525213e+00,8.57632e-65,9.99999e-01,1.07559e-64,7.97359e-01,9.99999e-01
1.228637839e+00,4.10710e-50,9.99999e-01,5.12789e-50,8.00934e-01,9.99999e-01
1.234781029e+00,1.52777e-31,9.99999e-01,1.89914e-31,8.04453e-01,9.99999e-01
1.240954934e+00,4.42200e-21,9.99999e-01,5.47332e-21,8.07918e-01,9.99999e-01
1.247159708e+00,1.15021e-10,9.99999e-01,1.41769e-10,8.11329e-01,9.99999e-01
1.253395507e+00,3.77464e-07,9.99999e-01,4.63324e-07,8.14687e-01,9.99999e-01
1.259662485e+00,1.94421e-04,9.99999e-01,2.37681e-04,8.17991e-01,9.99999e-01
1.265960797e+00,7.35562e-03,9.99999e-01,8.95667e-03,8.21244e-01,9.99999e-01
1.272290601e+00,1.00390e-01,9.99999e-01,1.21767e-01,8.24445e-01,9.99999e-01
1.278652054e+00,8.57977e-02,9.99999e-01,1.03671e-01,8.27594e-01,9.99999e-01
1.285045314e+00,4.42616e-04,9.99999e-01,5.32827e-04,8.30694e-01,9.99999e-01
1.291470541e+00,2.14795e-09,9.99999e-01,2.57627e-09,8.33743e-01,9.99999e-01
1.297927893e+00,5.69922e-04,9.99999e-01,6.81119e-04,8.36743e-01,9.99999e-01
1.304417533e+00,1.76575e-02,9.99999e-01,2.10285e-02,8.39694e-01,9.99999e-01
1.310939621e+00,2.94534e-03,9.99999e-01,3.49555e-03,8.42597e-01,9.99999e-01
1.317494319e+00,1.48526e-26,9.99999e-01,1.75676e-26,8.45452e-01,9.99999e-01
1.324081790e+00,1.58410e-17,9.99999e-01,1.86747e-17,8.48260e-01,9.99999e-01
1.330702199e+00,2.08633e-10,9.99999e-01,2.45155e-10,8.51022e-01,9.99999e-01
1.337355710e+00,9.40928e-10,9.99999e-01,1.10213e-09,8.53738e-01,9.99999e-01
1.344042489e+00,3.78866e-10,9.99999e-01,4.42389e-10,8.56409e-01,9.99999e-01
1.350762701e+00,1.15052e-10,9.99999e-01,1.33931e-10,8.59035e-01,9.99999e-01
1.357516515e+00,7.58199e-07,9.99999e-01,8.79971e-07,8.61617e-01,9.99999e-01
1.364304097e+00,5.82795e-05,9.99999e-01,6.74409e-05,8.64156e-01,9.99999e-01
1.371125618e+00,6.28414e-03,9.99999e-01,7.25106e-03,8.66651e-01,9.99999e-01
1.377981246e+00,1.33072e-02,9.99999e-01,1.53114e-02,8.69105e-01,9.99999e-01
1.384871152e+00,7.64817e-02,9.99999e-01,8.77569e-02,8.71516e-01,9.99999e-01
1.391795508e+00,9.24838e-02,9.99999e-01,1.05830e-01,8.73887e-01,9.99999e-01
1.398754485e+00,2.16086e-01,9.99999e-01,2.46612e-01,8.76217e-01,9.99999e-01
1.405748258e+00,3.15398e-01,9.99999e-01,3.59016e-01,8.78507e-01,9.99999e-01
1.412776999e+00,4.60005e-01,9.99999e-01,5.22283e-01,8.80758e-01,9.99999e-01
1.419840884e+00,4.13085e-01,9.99999e-01,4.67836e-01,8.82969e-01,9.99999e-01
1.426940089e+00,2.25024e-02,9.99999e-01,2.54223e-02,8.85143e-01,9.99999e-01
1.434074789e+00,0.00000e+00,9.99999e-01,0.00000e+00,8.87278e-01,9.99999e-01
1.441245163e+00,0.00000e+00,9.99999e-01,0.00000e+00,8.89377e-01,9.99999e-01
1.448451389e+00,0.00000e+00,9.99999e-01,0.00000e+00,8.91439e-01,9.99999e-01
1.455693646e+00,0.00000e+00,9.99999e-01,0.00000e+00,8.93465e-01,9.99999e-01
1.462972114e+00,4.63208e-301,9.99999e-01,5.17288e-301,8.95455e-01,9.99999e-01
1.470286975e+00,3.33349e-125,9.99999e-01,3.71456e-125,8.97410e-01,9.99999e-01
