#,Wave/freq,Total,O2,CO2,Rayleigh,CIA
4.000000000e-01,3.95086e-04,9.99999e-01,9.99999e-01,3.95086e-04,9.99999e-01
4.020000000e-01,4.61301e-04,9.99999e-01,9.99999e-01,4.61301e-04,9.99999e-01
4.040100000e-01,5.36882e-04,9.99999e-01,9.99999e-01,5.36882e-04,9.99999e-01
4.060300500e-01,6.22976e-04,9.99999e-01,9.99999e-01,6.22976e-04,9.99999e-01
4.080602003e-01,7.20757e-04,9.99999e-01,9.99999e-01,7.20757e-04,9.99999e-01
4.101005013e-01,8.31486e-04,9.99999e-01,9.99999e-01,8.31486e-04,9.99999e-01
4.121510038e-01,9.56524e-04,9.99999e-01,9.99999e-01,9.56524e-04,9.99999e-01
4.142117588e-01,1.09732e-03,9.99999e-01,9.99999e-01,1.09732e-03,9.99999e-01
4.162828176e-01,1.25544e-03,9.99999e-01,9.99999e-01,1.25544e-03,9.99999e-01
4.183642317e-01,1.43252e-03,9.99999e-01,9.99999e-01,1.43252e-03,9.99999e-01
4.204560528e-01,1.63033e-03,9.99999e-01,9.99999e-01,1.63033e-03,9.99999e-01
4.225583331e-01,1.85072e-03,9.99999e-01,9.99999e-01,1.85072e-03,9.99999e-01
4.246711247e-01,2.09564e-03,9.99999e-01,9.99999e-01,2.09564e-03,9.99999e-01
4.267944804e-01,2.36716e-03,9.99999e-01,9.99999e-01,2.36716e-03,9.99999e-01
4.289284528e-01,2.66743e-03,9.99999e-01,9.99999e-01,2.66743e-03,9.99999e-01
4.310730950e-01,2.99870e-03,9.99999e-01,9.99999e-01,2.99870e-03,9.99999e-01
4.332284605e-01,3.36334e-03,9.99999e-01,9.99999e-01,3.36334e-03,9.99999e-01
4.353946028e-01,3.76377e-03,9.99999e-01,9.99999e-01,3.76377e-03,9.99999e-01
4.375715758e-01,4.20252e-03,9.99999e-01,9.99999e-01,4.20252e-03,9.99999e-01
4.397594337e-01,4.68222e-03,9.99999e-01,9.99999e-01,4.68222e-03,9.99999e-01
4.419582309e-01,5.20554e-03,9.99999e-01,9.99999e-01,5.20554e-03,9.99999e-01
4.441680220e-01,5.77526e-03,9.99999e-01,9.99999e-01,5.77526e-03,9.99999e-01
4.463888621e-01,6.39420e-03,9.99999e-01,9.99999e-01,6.39420e-03,9.99999e-01
4.486208064e-01,7.06525e-03,9.99999e-01,9.99999e-01,7.06525e-03,9.99999e-01
4.508639105e-01,7.79134e-03,9.99999e-01,9.99999e-01,7.79134e-03,9.99999e-01
4.531182300e-01,8.57548e-03,9.99999e-01,9.99999e-01,8.57548e-03,9.99999e-01
4.553838212e-01,9.42066e-03,9.99999e-01,9.99999e-01,9.42066e-03,9.99999e-01
4.576607403e-01,1.03300e-02,9.99999e-01,9.99999e-01,1.03300e-02,9.99999e-01
4.599490440e-01,1.13064e-02,9.99999e-01,9.99999e-01,1.13064e-02,9.99999e-01
4.622487892e-01,1.23531e-02,9.99999e-01,9.99999e-01,1.23531e-02,9.99999e-01
4.645600332e-01,1.34731e-02,9.99999e-01,9.99999e-01,1.34731e-02,9.99999e-01
4.668828333e-01,1.46695e-02,9.99999e-01,9.99999e-01,1.46695e-02,9.99999e-01
4.692172475e-01,1.59453e-02,9.99999e-01,9.99999e-01,1.59453e-02,9.99999e-01
4.715633337e-01,1.73036e-02,9.99999e-01,9.99999e-01,1.73036e-02,9.99999e-01
4.739211504e-01,1.87473e-02,9.99999e-01,9.99999e-01,1.87473e-02,9.99999e-01
4.762907561e-01,2.02792e-02,9.99999e-01,9.99999e-01,2.02792e-02,9.99999e-01
4.786722099e-01,2.19024e-02,9.99999e-01,9.99999e-01,2.19024e-02,9.99999e-01
4.810655710e-01,2.36195e-02,9.99999e-01,9.99999e-01,2.36195e-02,9.99999e-01
4.834708988e-01,2.54333e-02,9.99999e-01,9.99999e-01,2.54333e-02,9.99999e-01
4.858882533e-01,2.73464e-02,9.99999e-01,9.99999e-01,2.73464e-02,9.99999e-01
4.883176946e-01,2.93613e-02,9.99999e-01,9.99999e-01,2.93613e-02,9.99999e-01
4.907592831e-01,3.14804e-02,9.99999e-01,9.99999e-01,3.14804e-02,9.99999e-01
4.932130795e-01,3.37060e-02,9.99999e-01,9.99999e-01,3.37060e-02,9.99999e-01
4.956791449e-01,3.60404e-02,9.99999e-01,9.99999e-01,3.60404e-02,9.99999e-01
4.981575406e-01,3.84854e-02,9.99999e-01,9.99999e-01,3.84854e-02,9.99999e-01
5.006483283e-01,4.10431e-02,9.99999e-01,9.99999e-01,4.10431e-02,9.99999e-01
5.031515699e-01,4.37151e-02,9.99999e-01,9.99999e-01,4.37151e-02,9.99999e-01
5.056673278e-01,4.65032e-02,9.99999e-01,9.99999e-01,4.65032e-02,9.99999e-01
5.081956644e-01,4.94087e-02,9.99999e-01,9.99999e-01,4.94087e-02,9.99999e-01
5.107366428e-01,5.24329e-02,9.99999e-01,9.99999e-01,5.24329e-02,9.99999e-01
5.132903260e-01,5.55770e-02,9.99999e-01,9.99999e-01,5.55770e-02,9.99999e-01
5.158567776e-01,5.88418e-02,9.99999e-01,9.99999e-01,5.88418e-02,9.99999e-01
5.184360615e-01,6.22283e-02,9.99999e-01,9.99999e-01,6.22283e-02,9.99999e-01
5.210282418e-01,6.57370e-02,9.99999e-01,9.99999e-01,6.57370e-02,9.99999e-01
5.236333830e-01,6.93683e-02,9.99999e-01,9.99999e-01,6.93683e-02,9.99999e-01
5.262515499e-01,7.31225e-02,9.99999e-01,9.99999e-01,7.31225e-02,9.99999e-01
5.288828077e-01,7.69996e-02,9.99999e-01,9.99999e-01,7.69996e-02,9.99999e-01
5.315272217e-01,8.09997e-02,9.99999e-01,9.99999e-01,8.09997e-02,9.99999e-01
5.341848578e-01,8.51223e-02,9.99999e-01,9.99999e-01,8.51223e-02,9.99999e-01
5.368557821e-01,8.93671e-02,9.99999e-01,9.99999e-01,8.93671e-02,9.99999e-01
5.395400610e-01,9.37334e-02,9.99999e-01,9.99999e-01,9.37334e-02,9.99999e-01
5.422377613e-01,9.82205e-02,9.99999e-01,9.99999e-01,9.82205e-02,9.99999e-01
5.449489501e-01,1.02827e-01,9.99999e-01,9.99999e-01,1.02827e-01,9.99999e-01
5.476736949e-01,1.07553e-01,9.99999e-01,9.99999e-01,1.07553e-01,9.99999e-01
5.504120634e-01,1.12396e-01,9.99999e-01,9.99999e-01,1.12396e-01,9.99999e-01
5.531641237e-01,1.17355e-01,9.99999e-01,9.99999e-01,1.17355e-01,9.99999e-01
5.559299443e-01,1.22428e-01,9.99999e-01,9.99999e-01,1.22428e-01,9.99999e-01
5.587095940e-01,1.27613e-01,9.99999e-01,9.99999e-01,1.27613e-01,9.99999e-01
5.615031420e-01,1.32910e-01,9.99999e-01,9.99999e-01,1.32910e-01,9.99999e-01
5.643106577e-01,1.38315e-01,9.99999e-01,9.99999e-01,1.38315e-01,9.99999e-01
5.671322110e-01,1.43826e-01,9.99999e-01,9.99999e-01,1.43826e-01,9.99999e-01
5.699678720e-01,1.49442e-01,9.99999e-01,9.99999e-01,1.49442e-01,9.99999e-01
5.728177114e-01,1.55160e-01,9.99999e-01,9.99999e-01,1.55160e-01,9.99999e-01
5.756818000e-01,1.60977e-01,9.99999e-01,9.99999e-01,1.60977e-01,9.99999e-01
5.785602090e-01,1.66891e-01,9.99999e-01,9.99999e-01,1.66891e-01,9.99999e-01
5.814530100e-01,1.72898e-01,9.99999e-01,9.99999e-01,1.72898e-01,9.99999e-01
5.843602750e-01,1.78997e-01,9.99999e-01,9.99999e-01,1.78997e-01,9.99999e-01
5.872820764e-01,1.85185e-01,9.99999e-01,9.99999e-01,1.85185e-01,9.99999e-01
5.902184868e-01,1.91457e-01,9.99999e-01,9.99999e-01,1.91457e-01,9.99999e-01
5.931695792e-01,1.97812e-01,9.99999e-01,9.99999e-01,1.97812e-01,9.99999e-01
5.961354271e-01,2.04246e-01,9.99999e-01,9.99999e-01,2.04246e-01,9.99999e-01
5.991161043e-01,2.10756e-01,9.99999e-01,9.99999e-01,2.10756e-01,9.99999e-01
6.021116848e-01,2.17338e-01,9.99999e-01,9.99999e-01,2.17338e-01,9.99999e-01
6.051222432e-01,2.23990e-01,9.99999e-01,9.99999e-01,2.23990e-01,9.99999e-01
6.081478544e-01,2.30709e-01,9.99999e-01,9.99999e-01,2.30709e-01,9.99999e-01
6.111885937e-01,2.37490e-01,9.99999e-01,9.99999e-01,2.37490e-01,9.99999e-01
6.142445367e-01,2.44330e-01,9.99999e-01,9.99999e-01,2.44330e-01,9.99999e-01
6.173157594e-01,2.51227e-01,9.99999e-01,9.99999e-01,2.51227e-01,9.99999e-01
6.204023382e-01,2.58176e-01,9.99999e-01,9.99999e-01,2.58176e-01,9.99999e-01
6.235043498e-01,2.65175e-01,9.99999e-01,9.99999e-01,2.65175e-01,9.99999e-01
6.266218716e-01,2.72220e-01,9.99999e-01,9.99999e-01,2.72220e-01,9.99999e-01
6.297549810e-01,2.79307e-01,9.99999e-01,9.99999e-01,2.79307e-01,9.99999e-01
6.329037559e-01,2.86433e-01,9.99999e-01,9.99999e-01,2.86433e-01,9.99999e-01
6.360682746e-01,2.93594e-01,9.99999e-01,9.99999e-01,2.93594e-01,9.99999e-01
6.392486160e-01,3.00788e-01,9.99999e-01,9.99999e-01,3.00788e-01,9.99999e-01
6.424448591e-01,3.08011e-01,9.99999e-01,9.99999e-01,3.08011e-01,9.99999e-01
6.456570834e-01,3.15260e-01,9.99999e-01,9.99999e-01,3.15260e-01,9.99999e-01
6.488853688e-01,3.22531e-01,9.99999e-01,9.99999e-01,3.22531e-01,9.99999e-01
6.521297956e-01,3.29821e-01,9.99999e-01,9.99999e-01,3.29821e-01,9.99999e-01
6.553904446e-01,3.37127e-01,9.99999e-01,9.99999e-01,3.37127e-01,9.99999e-01
6.586673968e-01,3.44445e-01,9.99999e-01,9.99999e-01,3.44445e-01,9.99999e-01
6.619607338e-01,3.51774e-01,9.99999e-01,9.99999e-01,3.51774e-01,9.99999e-01
6.652705375e-01,3.59109e-01,9.99999e-01,9.99999e-01,3.59109e-01,9.99999e-01
6.685968902e-01,3.66447e-01,9.99999e-01,9.99999e-01,3.66447e-01,9.99999e-01
6.719398746e-01,3.73786e-01,9.99999e-01,9.99999e-01,3.73786e-01,9.99999e-01
6.752995740e-01,3.81123e-01,9.99999e-01,9.99999e-01,3.81123e-01,9.99999e-01
6.786760719e-01,3.88454e-01,9.99999e-01,9.99999e-01,3.88454e-01,9.99999e-01
6.820694522e-01,3.95778e-01,9.99999e-01,9.99999e-01,3.95778e-01,9.99999e-01
6.854797995e-01,4.03091e-01,9.99999e-01,9.99999e-01,4.03091e-01,9.99999e-01
6.889071985e-01,4.10390e-01,9.99999e-01,9.99999e-01,4.10390e-01,9.99999e-01
6.923517345e-01,4.17674e-01,9.99999e-01,9.99999e-01,4.17674e-01,9.99999e-01
6.958134932e-01,4.24939e-01,9.99999e-01,9.99999e-01,4.24939e-01,9.99999e-01
6.992925606e-01,4.32183e-01,9.99999e-01,9.99999e-01,4.32183e-01,9.99999e-01
7.027890234e-01,4.39405e-01,9.99999e-01,9.99999e-01,4.39405e-01,9.99999e-01
7.063029686e-01,4.46600e-01,9.99999e-01,9.99999e-01,4.46600e-01,9.99999e-01
7.098344834e-01,4.53768e-01,9.99999e-01,9.99999e-01,4.53768e-01,9.99999e-01
7.133836558e-01,4.60906e-01,9.99999e-01,9.99999e-01,4.60906e-01,9.99999e-01
7.169505741e-01,4.68012e-01,9.99999e-01,9.99999e-01,4.68012e-01,9.99999e-01
7.205353270e-01,4.75083e-01,9.99999e-01,9.99999e-01,4.75083e-01,9.99999e-01
7.241380036e-01,4.82119e-01,9.99999e-01,9.99999e-01,4.82119e-01,9.99999e-01
7.277586936e-01,4.89117e-01,9.99999e-01,9.99999e-01,4.89117e-01,9.99999e-01
7.313974871e-01,4.96076e-01,9.99999e-01,9.99999e-01,4.96076e-01,9.99999e-01
7.350544745e-01,5.02993e-01,9.99999e-01,9.99999e-01,5.02993e-01,9.99999e-01
7.387297469e-01,5.09866e-01,9.99999e-01,9.99999e-01,5.09866e-01,9.99999e-01
7.424233956e-01,5.16696e-01,9.99999e-01,9.99999e-01,5.16696e-01,9.99999e-01
7.461355126e-01,5.23479e-01,9.99999e-01,9.99999e-01,5.23479e-01,9.99999e-01
7.498661902e-01,5.30215e-01,9.99999e-01,9.99999e-01,5.30215e-01,9.99999e-01
7.536155211e-01,5.36901e-01,9.99999e-01,9.99999e-01,5.36901e-01,9.99999e-01
7.573835987e-01,5.43538e-01,9.99999e-01,9.99999e-01,5.43538e-01,9.99999e-01
7.611705167e-01,5.50123e-01,9.99999e-01,9.99999e-01,5.50123e-01,9.99999e-01
7.649763693e-01,5.56655e-01,9.99999e-01,9.99999e-01,5.56655e-01,9.99999e-01
7.688012511e-01,5.63133e-01,9.99999e-01,9.99999e-01,5.63133e-01,9.99999e-01
7.726452574e-01,5.69557e-01,9.99999e-01,9.99999e-01,5.69557e-01,9.99999e-01
7.765084837e-01,5.75925e-01,9.99999e-01,9.99999e-01,5.75925e-01,9.99999e-01
7.803910261e-01,5.66647e-01,9.99999e-01,9.73224e-01,5.82237e-01,9.99999e-01
7.842929812e-01,5.24649e-01,9.99999e-01,8.91516e-01,5.88490e-01,9.99999e-01
7.882144461e-01,5.25510e-01,9.99999e-01,8.83676e-01,5.94686e-01,9.99999e-01
7.921555184e-01,5.59300e-01,9.99999e-01,9.30890e-01,6.00822e-01,9.99999e-01
7.961162960e-01,5.78654e-01,9.99999e-01,9.53459e-01,6.06899e-01,9.99999e-01
8.000968774e-01,5.97271e-01,9.99999e-01,9.74476e-01,6.12915e-01,9.99999e-01
8.040973618e-01,6.10660e-01,9.99999e-01,9.86732e-01,6.18870e-01,9.99999e-01
8.081178486e-01,6.20938e-01,9.99999e-01,9.93874e-01,6.24764e-01,9.99999e-01
8.121584379e-01,6.29408e-01,9.99999e-01,9.98115e-01,6.30596e-01,9.99999e-01
8.162192301e-01,6.36100e-01,9.99999e-01,9.99583e-01,6.36365e-01,9.99999e-01
8.203003262e-01,6.42068e-01,9.99999e-01,9.99993e-01,6.42072e-01,9.99999e-01
8.244018279e-01,6.47716e-01,9.99999e-01,9.99999e-01,6.47716e-01,9.99999e-01
8.285238370e-01,6.53296e-01,9.99999e-01,9.99999e-01,6.53296e-01,9.99999e-01
8.326664562e-01,6.58813e-01,9.99999e-01,9.99999e-01,6.58813e-01,9.99999e-01
8.368297885e-01,6.64266e-01,9.99999e-01,9.99999e-01,6.64266e-01,9.99999e-01
8.410139374e-01,6.69655e-01,9.99999e-01,9.99999e-01,6.69655e-01,9.99999e-01
8.452190071e-01,6.74980e-01,9.99999e-01,9.99999e-01,6.74980e-01,9.99999e-01
8.494451021e-01,6.80241e-01,9.99999e-01,9.99999e-01,6.80241e-01,9.99999e-01
8.536923276e-01,6.85438e-01,9.99999e-01,9.99999e-01,6.85438e-01,9.99999e-01
8.579607893e-01,6.90571e-01,9.99999e-01,9.99999e-01,6.90571e-01,9.99999e-01
8.622505932e-01,6.95640e-01,9.99999e-01,9.99999e-01,6.95640e-01,9.99999e-01
8.665618462e-01,6.55950e-01,9.99999e-01,9.36209e-01,7.00644e-01,9.99999e-01
8.708946554e-01,5.25584e-01,9.99999e-01,7.44891e-01,7.05585e-01,9.99999e-01
8.752491287e-01,5.61448e-01,9.99999e-01,7.90256e-01,7.10462e-01,9.99999e-01
8.796253743e-01,6.28960e-01,9.99999e-01,8.79325e-01,7.15275e-01,9.99999e-01
8.840235012e-01,6.73683e-01,9.99999e-01,9.35636e-01,7.20025e-01,9.99999e-01
8.884436187e-01,7.06016e-01,9.99999e-01,9.74202e-01,7.24712e-01,9.99999e-01
8.928858368e-01,7.21653e-01,9.99999e-01,9.89465e-01,7.29336e-01,9.99999e-01
8.973502660e-01,7.32019e-01,9.99999e-01,9.97440e-01,7.33897e-01,9.99999e-01
9.018370173e-01,7.38188e-01,9.99999e-01,9.99717e-01,7.38396e-01,9.99999e-01
9.063462024e-01,7.37355e-01,9.99999e-01,9.92625e-01,7.42832e-01,9.99999e-01
9.108779334e-01,7.34805e-01,9.99999e-01,9.83401e-01,7.47207e-01,9.99999e-01
9.154323231e-01,7.48593e-01,9.99999e-01,9.96103e-01,7.51521e-01,9.99999e-01
9.200094847e-01,7.12735e-01,9.99999e-01,9.43054e-01,7.55773e-01,9.99999e-01
9.246095321e-01,7.00099e-01,9.99999e-01,9.21225e-01,7.59965e-01,9.99999e-01
9.292325798e-01,7.16122e-01,9.99999e-01,9.37214e-01,7.64096e-01,9.99999e-01
9.338787427e-01,7.21833e-01,9.99999e-01,9.39680e-01,7.68168e-01,9.99999e-01
9.385481364e-01,7.37699e-01,9.99999e-01,9.55345e-01,7.72180e-01,9.99999e-01
9.432408771e-01,7.54778e-01,9.99999e-01,9.72484e-01,7.76134e-01,9.99999e-01
9.479570815e-01,7.68932e-01,9.99999e-01,9.85773e-01,7.80028e-01,9.99999e-01
9.526968669e-01,7.78476e-01,9.99999e-01,9.93123e-01,7.83865e-01,9.99999e-01
9.574603512e-01,7.85327e-01,9.99999e-01,9.97056e-01,7.87645e-01,9.99999e-01
9.622476530e-01,7.90641e-01,9.99999e-01,9.99081e-01,7.91368e-01,9.99999e-01
9.670588912e-01,7.94815e-01,9.99999e-01,9.99724e-01,7.95034e-01,9.99999e-01
9.718941857e-01,7.98629e-01,9.99999e-01,9.99980e-01,7.98644e-01,9.99999e-01
9.767536566e-01,8.02199e-01,9.99999e-01,9.99999e-01,8.02199e-01,9.99999e-01
9.816374249e-01,8.05699e-01,9.99999e-01,9.99999e-01,8.05699e-01,9.99999e-01
9.865456120e-01,8.09144e-01,9.99999e-01,9.99999e-01,8.09144e-01,9.99999e-01
9.914783401e-01,8.12536e-01,9.99999e-01,9.99999e-01,8.12536e-01,9.99999e-01
9.964357318e-01,8.15875e-01,9.99999e-01,9.99999e-01,8.15875e-01,9.99999e-01
1.001417910e+00,8.19161e-01,9.99999e-01,9.99999e-01,8.19161e-01,9.99999e-01
1.006425000e+00,8.22395e-01,9.99999e-01,9.99999e-01,8.22395e-01,9.99999e-01
1.011457125e+00,8.25577e-01,9.99999e-01,9.99999e-01,8.25577e-01,9.99999e-01
1.016514411e+00,8.28709e-01,9.99999e-01,9.99999e-01,8.28709e-01,9.99999e-01
1.021596983e+00,8.31755e-01,9.99999e-01,9.99957e-01,8.31790e-01,9.99999e-01
1.026704968e+00,8.32416e-01,9.99999e-01,9.97118e-01,8.34821e-01,9.99999e-01
1.031838492e+00,8.05760e-01,9.99999e-01,9.61751e-01,8.37804e-01,9.99999e-01
1.036997685e+00,1.64318e-01,9.99999e-01,1.95445e-01,8.40737e-01,9.99999e-01
1.042182673e+00,1.64320e-01,9.99999e-01,1.94779e-01,8.43623e-01,9.99999e-01
1.047393587e+00,1.71590e-01,9.99999e-01,2.02714e-01,8.46462e-01,9.99999e-01
1.052630555e+00,1.03026e-02,9.99999e-01,1.21313e-02,8.49253e-01,9.99999e-01
1.057893707e+00,2.33058e-02,9.99999e-01,2.73543e-02,8.51999e-01,9.99999e-01
1.063183176e+00,6.11599e-02,9.99999e-01,7.15572e-02,8.54698e-01,9.99999e-01
1.068499092e+00,1.40914e-01,9.99999e-01,1.64360e-01,8.57353e-01,9.99999e-01
1.073841587e+00,2.75687e-01,9.99999e-01,3.20579e-01,8.59963e-01,9.99999e-01
1.079210795e+00,4.19984e-01,9.99999e-01,4.86921e-01,8.62530e-01,9.99999e-01
1.084606849e+00,5.83221e-01,9.99999e-01,6.74202e-01,8.65053e-01,9.99999e-01
1.090029883e+00,7.07069e-01,9.99999e-01,8.15033e-01,8.67534e-01,9.99999e-01
1.095480033e+00,7.86681e-01,9.99999e-01,9.04259e-01,8.69972e-01,9.99999e-01
1.100957433e+00,8.31100e-01,9.99999e-01,9.52692e-01,8.72369e-01,9.99999e-01
1.106462220e+00,8.57389e-01,9.99999e-01,9.80181e-01,8.74725e-01,9.99999e-01
1.111994531e+00,8.70559e-01,9.99999e-01,9.92609e-01,8.77041e-01,9.99999e-01
1.117554504e+00,8.77731e-01,9.99999e-01,9.98196e-01,8.79316e-01,9.99999e-01
1.123142276e+00,8.81449e-01,9.99999e-01,9.99881e-01,8.81553e-01,9.99999e-01
1.128757988e+00,8.83751e-01,9.99999e-01,9.99999e-01,8.83751e-01,9.99999e-01
1.134401778e+00,8.85911e-01,9.99999e-01,9.99999e-01,8.85911e-01,9.99999e-01
1.140073787e+00,8.88033e-01,9.99999e-01,9.99999e-01,8.88033e-01,9.99999e-01
1.145774156e+00,8.90118e-01,9.99999e-01,9.99999e-01,8.90118e-01,9.99999e-01
1.151503026e+00,8.92167e-01,9.99999e-01,9.99999e-01,8.92167e-01,9.99999e-01
1.157260541e+00,8.94180e-01,9.99999e-01,9.99999e-01,8.94180e-01,9.99999e-01
1.163046844e+00,8.96158e-01,9.99999e-01,9.99999e-01,8.96158e-01,9.99999e-01
1.168862078e+00,8.98101e-01,9.99999e-01,9.99999e-01,8.98101e-01,9.99999e-01
1.174706389e+00,9.00009e-01,9.99999e-01,9.99999e-01,9.00009e-01,9.99999e-01
1.180579921e+00,9.01884e-01,9.99999e-01,9.99999e-01,9.01884e-01,9.99999e-01
1.186482820e+00,9.03720e-01,9.99999e-01,9.99993e-01,9.03726e-01,9.99999e-01
1.192415234e+00,8.96193e-01,9.99999e-01,9.89683e-01,9.05535e-01,9.99999e-01
1.198377311e+00,5.15780e-01,9.99999e-01,5.68470e-01,9.07311e-01,9.99999e-01
1.204369197e+00,4.79584e-09,9.99999e-01,5.27562e-09,9.09056e-01,9.99999e-01
1.210391043e+00,1.90400e-31,9.99999e-01,2.09054e-31,9.10770e-01,9.99999e-01
1.216442998e+00,1.92886e-27,9.99999e-01,2.11392e-27,9.12453e-01,9.99999e-01
1.222525213e+00,4.71857e-27,9.99999e-01,5.16194e-27,9.14105e-01,9.99999e-01
1.228637839e+00,6.29970e-21,9.99999e-01,6.87944e-21,9.15728e-01,9.99999e-01
1.234781029e+00,7.25509e-14,9.99999e-01,7.90898e-14,9.17322e-01,9.99999e-01
1.240954934e+00,2.19272e-09,9.99999e-01,2.38628e-09,9.18887e-01,9.99999e-01
1.247159708e+00,1.81358e-05,9.99999e-01,1.97038e-05,9.20424e-01,9.99999e-01
1.253395507e+00,1.79900e-03,9.99999e-01,1.95134e-03,9.21933e-01,9.99999e-01
1.259662485e+00,2.60738e-02,9.99999e-01,2.82363e-02,9.23414e-01,9.99999e-01
1.265960797e+00,1.17167e-01,9.99999e-01,1.26685e-01,9.24868e-01,9.99999e-01
1.272290601e+00,3.91055e-01,9.99999e-01,4.22170e-01,9.26296e-01,9.99999e-01
1.278652054e+00,3.35916e-01,9.99999e-01,3.62096e-01,9.27698e-01,9.99999e-01
1.285045314e+00,1.03646e-02,9.99999e-01,1.11558e-02,9.29074e-01,9.99999e-01
1.291470541e+00,2.17157e-04,9.99999e-01,2.33395e-04,9.30425e-01,9.99999e-01
1.297927893e+00,2.11955e-02,9.99999e-01,2.27480e-02,9.31752e-01,9.99999e-01
1.304417533e+00,1.94571e-01,9.99999e-01,2.08531e-01,9.33054e-01,9.99999e-01
1.310939621e+00,3.33838e-02,9.99999e-01,3.57301e-02,9.34331e-01,9.99999e-01
1.317494319e+00,2.48621e-11,9.99999e-01,2.65738e-11,9.35586e-01,9.99999e-01
1.324081790e+00,5.39026e-08,9.99999e-01,5.75379e-08,9.36817e-01,9.99999e-01
1.330702199e+00,9.97338e-05,9.99999e-01,1.06323e-04,9.38026e-01,9.99999e-01
1.337355710e+00,9.66902e-05,9.99999e-01,1.02948e-04,9.39212e-01,9.99999e-01
1.344042489e+00,2.80405e-05,9.99999e-01,2.98183e-05,9.40376e-01,9.99999e-01
1.350762701e+00,6.79807e-05,9.99999e-01,7.22032e-05,9.41518e-01,9.99999e-01
1.357516515e+00,1.95111e-03,9.99999e-01,2.06983e-03,9.42640e-01,9.99999e-01
1.364304097e+00,1.81547e-02,9.99999e-01,1.92369e-02,9.43740e-01,9.99999e-01
1.371125618e+00,1.19231e-01,9.99999e-01,1.26194e-01,9.44820e-01,9.99999e-01
1.377981246e+00,1.76053e-01,9.99999e-01,1.86126e-01,9.45880e-01,9.99999e-01
1.384871152e+00,3.56083e-01,9.99999e-01,3.76043e-01,9.46920e-01,9.99999e-01
1.391795508e+00,3.84133e-01,9.99999e-01,4.05229e-01,9.47941e-01,9.99999e-01
1.398754485e+00,5.43881e-01,9.99999e-01,5.73144e-01,9.48942e-01,9.99999e-01
1.405748258e+00,6.30426e-01,9.99999e-01,6.63658e-01,9.49925e-01,9.99999e-01
1.412776999e+00,7.34155e-01,9.99999e-01,7.72071e-01,9.50890e-01,9.99999e-01
1.419840884e+00,6.64808e-01,9.99999e-01,6.98447e-01,9.51836e-01,9.99999e-01
1.426940089e+00,7.23555e-02,9.99999e-01,7.59426e-02,9.52764e-01,9.99999e-01
1.434074789e+00,0.00000e+00,9.99999e-01,0.00000e+00,9.53675e-01,9.99999e-01
1.441245163e+00,0.00000e+00,9.99999e-01,0.00000e+00,9.54569e-01,9.99999e-01
1.448451389e+00,0.00000e+00,9.99999e-01,0.00000e+00,9.55446e-01,9.99999e-01
1.455693646e+00,1.17740e-248,9.99999e-01,1.23120e-248,9.56307e-01,9.99999e-01
1.462972114e+00,9.20867e-121,9.99999e-01,9.62090e-121,9.57151e-01,9.99999e-01
1.470286975e+00,5.14927e-51,9.99999e-01,5.37513e-51,9.57980e-01,9.99999e-01
