#,Wave/freq,Total,O2,CO2,Rayleigh,CIA
4.000000000e-01,7.04462e-06,9.99999e-01,9.99999e-01,7.04462e-06,9.99999e-01
4.020000000e-01,8.90696e-06,9.99999e-01,9.99999e-01,8.90696e-06,9.99999e-01
4.040100000e-01,1.12069e-05,9.99999e-01,9.99999e-01,1.12069e-05,9.99999e-01
4.060300500e-01,1.40369e-05,9.99999e-01,9.99999e-01,1.40369e-05,9.99999e-01
4.080602003e-01,1.75034e-05,9.99999e-01,9.99999e-01,1.75034e-05,9.99999e-01
4.101005013e-01,2.17312e-05,9.99999e-01,9.99999e-01,2.17312e-05,9.99999e-01
4.121510038e-01,2.68650e-05,9.99999e-01,9.99999e-01,2.68650e-05,9.99999e-01
4.142117588e-01,3.30729e-05,9.99999e-01,9.99999e-01,3.30729e-05,9.99999e-01
4.162828176e-01,4.05484e-05,9.99999e-01,9.99999e-01,4.05484e-05,9.99999e-01
4.183642317e-01,4.95139e-05,9.99999e-01,9.99999e-01,4.95139e-05,9.99999e-01
4.204560528e-01,6.02237e-05,9.99999e-01,9.99999e-01,6.02237e-05,9.99999e-01
4.225583331e-01,7.29671e-05,9.99999e-01,9.99999e-01,7.29671e-05,9.99999e-01
4.246711247e-01,8.80726e-05,9.99999e-01,9.99999e-01,8.80726e-05,9.99999e-01
4.267944804e-01,1.05911e-04,9.99999e-01,9.99999e-01,1.05911e-04,9.99999e-01
4.289284528e-01,1.26899e-04,9.99999e-01,9.99999e-01,1.26899e-04,9.99999e-01
4.310730950e-01,1.51504e-04,9.99999e-01,9.99999e-01,1.51504e-04,9.99999e-01
4.332284605e-01,1.80248e-04,9.99999e-01,9.99999e-01,1.80248e-04,9.99999e-01
4.353946028e-01,2.13710e-04,9.99999e-01,9.99999e-01,2.13710e-04,9.99999e-01
4.375715758e-01,2.52534e-04,9.99999e-01,9.99999e-01,2.52534e-04,9.99999e-01
4.397594337e-01,2.97429e-04,9.99999e-01,9.99999e-01,2.97429e-04,9.99999e-01
4.419582309e-01,3.49175e-04,9.99999e-01,9.99999e-01,3.49175e-04,9.99999e-01
4.441680220e-01,4.08627e-04,9.99999e-01,9.99999e-01,4.08627e-04,9.99999e-01
4.463888621e-01,4.76718e-04,9.99999e-01,9.99999e-01,4.76718e-04,9.99999e-01
4.486208064e-01,5.54465e-04,9.99999e-01,9.99999e-01,5.54465e-04,9.99999e-01
4.508639105e-01,6.42970e-04,9.99999e-01,9.99999e-01,6.42970e-04,9.99999e-01
4.531182300e-01,7.43424e-04,9.99999e-01,9.99999e-01,7.43424e-04,9.99999e-01
4.553838212e-01,8.57112e-04,9.99999e-01,9.99999e-01,8.57112e-04,9.99999e-01
4.576607403e-01,9.85411e-04,9.99999e-01,9.99999e-01,9.85411e-04,9.99999e-01
4.599490440e-01,1.12980e-03,9.99999e-01,9.99999e-01,1.12980e-03,9.99999e-01
4.622487892e-01,1.29185e-03,9.99999e-01,9.99999e-01,1.29185e-03,9.99999e-01
4.645600332e-01,1.47324e-03,9.99999e-01,9.99999e-01,1.47324e-03,9.99999e-01
4.668828333e-01,1.67574e-03,9.99999e-01,9.99999e-01,1.67574e-03,9.99999e-01
4.692172475e-01,1.90123e-03,9.99999e-01,9.99999e-01,1.90123e-03,9.99999e-01
4.715633337e-01,2.15169e-03,9.99999e-01,9.99999e-01,2.15169e-03,9.99999e-01
4.739211504e-01,2.42921e-03,9.99999e-01,9.99999e-01,2.42921e-03,9.99999e-01
4.762907561e-01,2.73595e-03,9.99999e-01,9.99999e-01,2.73595e-03,9.99999e-01
4.786722099e-01,3.07420e-03,9.99999e-01,9.99999e-01,3.07420e-03,9.99999e-01
4.810655710e-01,3.44632e-03,9.99999e-01,9.99999e-01,3.44632e-03,9.99999e-01
4.834708988e-01,3.85477e-03,9.99999e-01,9.99999e-01,3.85477e-03,9.99999e-01
4.858882533e-01,4.30210e-03,9.99999e-01,9.99999e-01,4.30210e-03,9.99999e-01
4.883176946e-01,4.79095e-03,9.99999e-01,9.99999e-01,4.79095e-03,9.99999e-01
4.907592831e-01,5.32401e-03,9.99999e-01,9.99999e-01,5.32401e-03,9.99999e-01
4.932130795e-01,5.90407e-03,9.99999e-01,9.99999e-01,5.90407e-03,9.99999e-01
4.956791449e-01,6.53396e-03,9.99999e-01,9.99999e-01,6.53396e-03,9.99999e-01
4.981575406e-01,7.21660e-03,9.99999e-01,9.99999e-01,7.21660e-03,9.99999e-01
5.006483283e-01,7.95492e-03,9.99999e-01,9.99999e-01,7.95492e-03,9.99999e-01
5.031515699e-01,8.75192e-03,9.99999e-01,9.99999e-01,8.75192e-03,9.99999e-01
5.056673278e-01,9.61063e-03,9.99999e-01,9.99999e-01,9.61063e-03,9.99999e-01
5.081956644e-01,1.05341e-02,9.99999e-01,9.99999e-01,1.05341e-02,9.99999e-01
5.107366428e-01,1.15254e-02,9.99999e-01,9.99999e-01,1.15254e-02,9.99999e-01
5.132903260e-01,1.25876e-02,9.99999e-01,9.99999e-01,1.25876e-02,9.99999e-01
5.158567776e-01,1.37238e-02,9.99999e-01,9.99999e-01,1.37238e-02,9.99999e-01
5.184360615e-01,1.49370e-02,9.99999e-01,9.99999e-01,1.49370e-02,9.99999e-01
5.210282418e-01,1.62303e-02,9.99999e-01,9.99999e-01,1.62303e-02,9.99999e-01
5.236333830e-01,1.76067e-02,9.99999e-01,9.99999e-01,1.76067e-02,9.99999e-01
5.262515499e-01,1.90690e-02,9.99999e-01,9.99999e-01,1.90690e-02,9.99999e-01
5.288828077e-01,2.06204e-02,9.99999e-01,9.99999e-01,2.06204e-02,9.99999e-01
5.315272217e-01,2.22635e-02,9.99999e-01,9.99999e-01,2.22635e-02,9.99999e-01
5.341848578e-01,2.40012e-02,9.99999e-01,9.99999e-01,2.40012e-02,9.99999e-01
5.368557821e-01,2.58361e-02,9.99999e-01,9.99999e-01,2.58361e-02,9.99999e-01
5.395400610e-01,2.77709e-02,9.99999e-01,9.99999e-01,2.77709e-02,9.99999e-01
5.422377613e-01,2.98080e-02,9.99999e-01,9.99999e-01,2.98080e-02,9.99999e-01
5.449489501e-01,3.19498e-02,9.99999e-01,9.99999e-01,3.19498e-02,9.99999e-01
5.476736949e-01,3.41986e-02,9.99999e-01,9.99999e-01,3.41986e-02,9.99999e-01
5.504120634e-01,3.65566e-02,9.99999e-01,9.99999e-01,3.65566e-02,9.99999e-01
5.531641237e-01,3.90257e-02,9.99999e-01,9.99999e-01,3.90257e-02,9.99999e-01
5.559299443e-01,4.16078e-02,9.99999e-01,9.99999e-01,4.16078e-02,9.99999e-01
5.587095940e-01,4.43047e-02,9.99999e-01,9.99999e-01,4.43047e-02,9.99999e-01
5.615031420e-01,4.71179e-02,9.99999e-01,9.99999e-01,4.71179e-02,9.99999e-01
5.643106577e-01,5.00488e-02,9.99999e-01,9.99999e-01,5.00488e-02,9.99999e-01
5.671322110e-01,5.30987e-02,9.99999e-01,9.99999e-01,5.30987e-02,9.99999e-01
5.699678720e-01,5.62686e-02,9.99999e-01,9.99999e-01,5.62686e-02,9.99999e-01
5.728177114e-01,5.95596e-02,9.99999e-01,9.99999e-01,5.95596e-02,9.99999e-01
5.756818000e-01,6.29723e-02,9.99999e-01,9.99999e-01,6.29723e-02,9.99999e-01
5.785602090e-01,6.65073e-02,9.99999e-01,9.99999e-01,6.65073e-02,9.99999e-01
5.814530100e-01,7.01650e-02,9.99999e-01,9.99999e-01,7.01650e-02,9.99999e-01
5.843602750e-01,7.39456e-02,9.99999e-01,9.99999e-01,7.39456e-02,9.99999e-01
5.872820764e-01,7.78492e-02,9.99999e-01,9.99999e-01,7.78492e-02,9.99999e-01
5.902184868e-01,8.18756e-02,9.99999e-01,9.99999e-01,8.18756e-02,9.99999e-01
5.931695792e-01,8.60246e-02,9.99999e-01,9.99999e-01,8.60246e-02,9.99999e-01
5.961354271e-01,9.02956e-02,9.99999e-01,9.99999e-01,9.02956e-02,9.99999e-01
5.991161043e-01,9.46879e-02,9.99999e-01,9.99999e-01,9.46879e-02,9.99999e-01
6.021116848e-01,9.92008e-02,9.99999e-01,9.99999e-01,9.92008e-02,9.99999e-01
6.051222432e-01,1.03833e-01,9.99999e-01,9.99999e-01,1.03833e-01,9.99999e-01
6.081478544e-01,1.08584e-01,9.99999e-01,9.99999e-01,1.08584e-01,9.99999e-01
6.111885937e-01,1.13452e-01,9.99999e-01,9.99999e-01,1.13452e-01,9.99999e-01
6.142445367e-01,1.18436e-01,9.99999e-01,9.99999e-01,1.18436e-01,9.99999e-01
6.173157594e-01,1.23533e-01,9.99999e-01,9.99999e-01,1.23533e-01,9.99999e-01
6.204023382e-01,1.28743e-01,9.99999e-01,9.99999e-01,1.28743e-01,9.99999e-01
6.235043498e-01,1.34063e-01,9.99999e-01,9.99999e-01,1.34063e-01,9.99999e-01
6.266218716e-01,1.39491e-01,9.99999e-01,9.99999e-01,1.39491e-01,9.99999e-01
6.297549810e-01,1.45025e-01,9.99999e-01,9.99999e-01,1.45025e-01,9.99999e-01
6.329037559e-01,1.50663e-01,9.99999e-01,9.99999e-01,1.50663e-01,9.99999e-01
6.360682746e-01,1.56402e-01,9.99999e-01,9.99999e-01,1.56402e-01,9.99999e-01
6.392486160e-01,1.62240e-01,9.99999e-01,9.99999e-01,1.62240e-01,9.99999e-01
6.424448591e-01,1.68174e-01,9.99999e-01,9.99999e-01,1.68174e-01,9.99999e-01
6.456570834e-01,1.74202e-01,9.99999e-01,9.99999e-01,1.74202e-01,9.99999e-01
6.488853688e-01,1.80320e-01,9.99999e-01,9.99999e-01,1.80320e-01,9.99999e-01
6.521297956e-01,1.86526e-01,9.99999e-01,9.99999e-01,1.86526e-01,9.99999e-01
6.553904446e-01,1.92816e-01,9.99999e-01,9.99999e-01,1.92816e-01,9.99999e-01
6.586673968e-01,1.99188e-01,9.99999e-01,9.99999e-01,1.99188e-01,9.99999e-01
6.619607338e-01,2.05639e-01,9.99999e-01,9.99999e-01,2.05639e-01,9.99999e-01
6.652705375e-01,2.12165e-01,9.99999e-01,9.99999e-01,2.12165e-01,9.99999e-01
6.685968902e-01,2.18763e-01,9.99999e-01,9.99999e-01,2.18763e-01,9.99999e-01
6.719398746e-01,2.25429e-01,9.99999e-01,9.99999e-01,2.25429e-01,9.99999e-01
6.752995740e-01,2.32161e-01,9.99999e-01,9.99999e-01,2.32161e-01,9.99999e-01
6.786760719e-01,2.38956e-01,9.99999e-01,9.99999e-01,2.38956e-01,9.99999e-01
6.820694522e-01,2.45808e-01,9.99999e-01,9.99999e-01,2.45808e-01,9.99999e-01
6.854797995e-01,2.52717e-01,9.99999e-01,9.99999e-01,2.52717e-01,9.99999e-01
6.889071985e-01,2.59677e-01,9.99999e-01,9.99999e-01,2.59677e-01,9.99999e-01
6.923517345e-01,2.66686e-01,9.99999e-01,9.99999e-01,2.66686e-01,9.99999e-01
6.958134932e-01,2.73740e-01,9.99999e-01,9.99999e-01,2.73740e-01,9.99999e-01
6.992925606e-01,2.80835e-01,9.99999e-01,9.99999e-01,2.80835e-01,9.99999e-01
7.027890234e-01,2.87969e-01,9.99999e-01,9.99999e-01,2.87969e-01,9.99999e-01
7.063029686e-01,2.95138e-01,9.99999e-01,9.99999e-01,2.95138e-01,9.99999e-01
7.098344834e-01,3.02339e-01,9.99999e-01,9.99999e-01,3.02339e-01,9.99999e-01
7.133836558e-01,3.09567e-01,9.99999e-01,9.99999e-01,3.09567e-01,9.99999e-01
7.169505741e-01,3.16821e-01,9.99999e-01,9.99999e-01,3.16821e-01,9.99999e-01
7.205353270e-01,3.24096e-01,9.99999e-01,9.99999e-01,3.24096e-01,9.99999e-01
7.241380036e-01,3.31390e-01,9.99999e-01,9.99999e-01,3.31390e-01,9.99999e-01
7.277586936e-01,3.38699e-01,9.99999e-01,9.99999e-01,3.38699e-01,9.99999e-01
7.313974871e-01,3.46020e-01,9.99999e-01,9.99999e-01,3.46020e-01,9.99999e-01
7.350544745e-01,3.53350e-01,9.99999e-01,9.99999e-01,3.53350e-01,9.99999e-01
7.387297469e-01,3.60686e-01,9.99999e-01,9.99999e-01,3.60686e-01,9.99999e-01
7.424233956e-01,3.68025e-01,9.99999e-01,9.99999e-01,3.68025e-01,9.99999e-01
7.461355126e-01,3.75364e-01,9.99999e-01,9.99999e-01,3.75364e-01,9.99999e-01
7.498661902e-01,3.82699e-01,9.99999e-01,9.99999e-01,3.82699e-01,9.99999e-01
7.536155211e-01,3.90029e-01,9.99999e-01,9.99999e-01,3.90029e-01,9.99999e-01
7.573835987e-01,3.97351e-01,9.99999e-01,9.99999e-01,3.97351e-01,9.99999e-01
7.611705167e-01,4.04661e-01,9.99999e-01,9.99999e-01,4.04661e-01,9.99999e-01
7.649763693e-01,4.11957e-01,9.99999e-01,9.99999e-01,4.11957e-01,9.99999e-01
7.688012511e-01,4.19237e-01,9.99999e-01,9.99999e-01,4.19237e-01,9.99999e-01
7.726452574e-01,4.26498e-01,9.99999e-01,9.99999e-01,4.26498e-01,9.99999e-01
7.765084837e-01,4.33738e-01,9.99999e-01,9.99999e-01,4.33738e-01,9.99999e-01
7.803910261e-01,4.24037e-01,9.99999e-01,9.61634e-01,4.40954e-01,9.99999e-01
7.842929812e-01,3.77310e-01,9.99999e-01,8.41939e-01,4.48144e-01,9.99999e-01
7.882144461e-01,3.78644e-01,9.99999e-01,8.31627e-01,4.55305e-01,9.99999e-01
7.921555184e-01,4.15106e-01,9.99999e-01,8.97649e-01,4.62436e-01,9.99999e-01
7.961162960e-01,4.36829e-01,9.99999e-01,9.30343e-01,4.69535e-01,9.99999e-01
8.000968774e-01,4.58298e-01,9.99999e-01,9.61599e-01,4.76599e-01,9.99999e-01
8.040973618e-01,4.73927e-01,9.99999e-01,9.79942e-01,4.83627e-01,9.99999e-01
8.081178486e-01,4.86070e-01,9.99999e-01,9.90732e-01,4.90617e-01,9.99999e-01
8.121584379e-01,4.96141e-01,9.99999e-01,9.97136e-01,4.97566e-01,9.99999e-01
8.162192301e-01,5.04155e-01,9.99999e-01,9.99366e-01,5.04474e-01,9.99999e-01
8.203003262e-01,5.11334e-01,9.99999e-01,9.99990e-01,5.11338e-01,9.99999e-01
8.244018279e-01,5.18158e-01,9.99999e-01,9.99999e-01,5.18158e-01,9.99999e-01
8.285238370e-01,5.24931e-01,9.99999e-01,9.99999e-01,5.24931e-01,9.99999e-01
8.326664562e-01,5.31656e-01,9.99999e-01,9.99999e-01,5.31656e-01,9.99999e-01
8.368297885e-01,5.38332e-01,9.99999e-01,9.99999e-01,5.38332e-01,9.99999e-01
8.410139374e-01,5.44958e-01,9.99999e-01,9.99999e-01,5.44958e-01,9.99999e-01
8.452190071e-01,5.51531e-01,9.99999e-01,9.99999e-01,5.51531e-01,9.99999e-01
8.494451021e-01,5.58052e-01,9.99999e-01,9.99999e-01,5.58052e-01,9.99999e-01
8.536923276e-01,5.64519e-01,9.99999e-01,9.99999e-01,5.64519e-01,9.99999e-01
8.579607893e-01,5.70931e-01,9.99999e-01,9.99999e-01,5.70931e-01,9.99999e-01
8.622505932e-01,5.77287e-01,9.99999e-01,9.99999e-01,5.77287e-01,9.99999e-01
8.665618462e-01,5.36117e-01,9.99999e-01,9.18658e-01,5.83586e-01,9.99999e-01
8.708946554e-01,3.81308e-01,9.99999e-01,6.46473e-01,5.89827e-01,9.99999e-01
8.752491287e-01,4.19106e-01,9.99999e-01,7.03186e-01,5.96010e-01,9.99999e-01
8.796253743e-01,4.96027e-01,9.99999e-01,8.23782e-01,6.02134e-01,9.99999e-01
8.840235012e-01,5.49955e-01,9.99999e-01,9.04238e-01,6.08197e-01,9.99999e-01
8.884436187e-01,5.90326e-01,9.99999e-01,9.61129e-01,6.14200e-01,9.99999e-01
8.928858368e-01,6.10258e-01,9.99999e-01,9.84061e-01,6.20142e-01,9.99999e-01
8.973502660e-01,6.23590e-01,9.99999e-01,9.96113e-01,6.26023e-01,9.99999e-01
9.018370173e-01,6.31571e-01,9.99999e-01,9.99571e-01,6.31841e-01,9.99999e-01
9.063462024e-01,6.30562e-01,9.99999e-01,9.88965e-01,6.37597e-01,9.99999e-01
9.108779334e-01,6.27184e-01,9.99999e-01,9.74961e-01,6.43291e-01,9.99999e-01
9.154323231e-01,6.45081e-01,9.99999e-01,9.94081e-01,6.48921e-01,9.99999e-01
9.200094847e-01,6.00510e-01,9.99999e-01,9.17526e-01,6.54487e-01,9.99999e-01
9.246095321e-01,5.82961e-01,9.99999e-01,8.83285e-01,6.59991e-01,9.99999e-01
9.292325798e-01,6.03686e-01,9.99999e-01,9.07211e-01,6.65430e-01,9.99999e-01
9.338787427e-01,6.10633e-01,9.99999e-01,9.10298e-01,6.70805e-01,9.99999e-01
9.385481364e-01,6.30968e-01,9.99999e-01,9.33223e-01,6.76117e-01,9.99999e-01
9.432408771e-01,6.53149e-01,9.99999e-01,9.58590e-01,6.81364e-01,9.99999e-01
9.479570815e-01,6.71804e-01,9.99999e-01,9.78525e-01,6.86547e-01,9.99999e-01
9.526968669e-01,6.84470e-01,9.99999e-01,9.89595e-01,6.91666e-01,9.99999e-01
9.574603512e-01,6.93613e-01,9.99999e-01,9.95539e-01,6.96721e-01,9.99999e-01
9.622476530e-01,7.00735e-01,9.99999e-01,9.98607e-01,7.01712e-01,9.99999e-01
9.670588912e-01,7.06344e-01,9.99999e-01,9.99582e-01,7.06639e-01,9.99999e-01
9.718941857e-01,7.11481e-01,9.99999e-01,9.99970e-01,7.11502e-01,9.99999e-01
9.767536566e-01,7.16302e-01,9.99999e-01,9.99999e-01,7.16302e-01,9.99999e-01
9.816374249e-01,7.21038e-01,9.99999e-01,9.99999e-01,7.21038e-01,9.99999e-01
9.865456120e-01,7.25712e-01,9.99999e-01,9.99999e-01,7.25712e-01,9.99999e-01
9.914783401e-01,7.30322e-01,9.99999e-01,9.99999e-01,7.30322e-01,9.99999e-01
9.964357318e-01,7.34869e-01,9.99999e-01,9.99999e-01,7.34869e-01,9.99999e-01
1.001417910e+00,7.39355e-01,9.99999e-01,9.99999e-01,7.39355e-01,9.99999e-01
1.006425000e+00,7.43778e-01,9.99999e-01,9.99999e-01,7.43778e-01,9.99999e-01
1.011457125e+00,7.48140e-01,9.99999e-01,9.99999e-01,7.48140e-01,9.99999e-01
1.016514411e+00,7.52440e-01,9.99999e-01,9.99999e-01,7.52440e-01,9.99999e-01
1.021596983e+00,7.56634e-01,9.99999e-01,9.99939e-01,7.56679e-01,9.99999e-01
1.026704968e+00,7.57570e-01,9.99999e-01,9.95678e-01,7.60858e-01,9.99999e-01
1.031838492e+00,7.27148e-01,9.99999e-01,9.50548e-01,7.64976e-01,9.99999e-01
1.036997685e+00,1.03362e-01,9.99999e-01,1.34405e-01,7.69035e-01,9.99999e-01
1.042182673e+00,7.02564e-02,9.99999e-01,9.08838e-02,7.73035e-01,9.99999e-01
1.047393587e+00,8.91018e-02,9.99999e-01,1.14678e-01,7.76976e-01,9.99999e-01
1.052630555e+00,1.61168e-03,9.99999e-01,2.06399e-03,7.80858e-01,9.99999e-01
1.057893707e+00,4.41204e-03,9.99999e-01,5.62270e-03,7.84683e-01,9.99999e-01
1.063183176e+00,1.70463e-02,9.99999e-01,2.16200e-02,7.88450e-01,9.99999e-01
1.068499092e+00,5.37093e-02,9.99999e-01,6.78010e-02,7.92160e-01,9.99999e-01
1.073841587e+00,1.45100e-01,9.99999e-01,1.82328e-01,7.95814e-01,9.99999e-01
1.079210795e+00,2.72017e-01,9.99999e-01,3.40271e-01,7.99413e-01,9.99999e-01
1.084606849e+00,4.43017e-01,9.99999e-01,5.51732e-01,8.02956e-01,9.99999e-01
1.090029883e+00,5.92036e-01,9.99999e-01,7.34131e-01,8.06444e-01,9.99999e-01
1.095480033e+00,6.95486e-01,9.99999e-01,8.58753e-01,8.09878e-01,9.99999e-01
1.100957433e+00,7.55708e-01,9.99999e-01,9.29235e-01,8.13258e-01,9.99999e-01
1.106462220e+00,7.92182e-01,9.99999e-01,9.70114e-01,8.16585e-01,9.99999e-01
1.111994531e+00,8.10692e-01,9.99999e-01,9.88816e-01,8.19860e-01,9.99999e-01
1.117554504e+00,8.20830e-01,9.99999e-01,9.97262e-01,8.23083e-01,9.99999e-01
1.123142276e+00,8.26106e-01,9.99999e-01,9.99820e-01,8.26255e-01,9.99999e-01
1.128757988e+00,8.29375e-01,9.99999e-01,9.99999e-01,8.29375e-01,9.99999e-01
1.134401778e+00,8.32446e-01,9.99999e-01,9.99999e-01,8.32446e-01,9.99999e-01
1.140073787e+00,8.35467e-01,9.99999e-01,9.99999e-01,8.35467e-01,9.99999e-01
1.145774156e+00,8.38438e-01,9.99999e-01,9.99999e-01,8.38438e-01,9.99999e-01
1.151503026e+00,8.41362e-01,9.99999e-01,9.99999e-01,8.41362e-01,9.99999e-01
1.157260541e+00,8.44237e-01,9.99999e-01,9.99999e-01,8.44237e-01,9.99999e-01
1.163046844e+00,8.47066e-01,9.99999e-01,9.99999e-01,8.47066e-01,9.99999e-01
1.168862078e+00,8.49847e-01,9.99999e-01,9.99999e-01,8.49847e-01,9.99999e-01
1.174706389e+00,8.52583e-01,9.99999e-01,9.99999e-01,8.52583e-01,9.99999e-01
1.180579921e+00,8.55273e-01,9.99999e-01,9.99999e-01,8.55273e-01,9.99999e-01
1.186482820e+00,8.57911e-01,9.99999e-01,9.99991e-01,8.57918e-01,9.99999e-01
1.192415234e+00,8.47331e-01,9.99999e-01,9.84674e-01,8.60519e-01,9.99999e-01
1.198377311e+00,4.81220e-01,9.99999e-01,5.57564e-01,8.63076e-01,9.99999e-01
1.204369197e+00,1.54637e-12,9.99999e-01,1.78649e-12,8.65590e-01,9.99999e-01
1.210391043e+00,1.90355e-46,9.99999e-01,2.19287e-46,8.68061e-01,9.99999e-01
1.216442998e+00,2.20229e-40,9.99999e-01,2.52994e-40,8.70491e-01,9.99999e-01
1.222525213e+00,8.47521e-40,9.99999e-01,9.70948e-40,8.72879e-01,9.99999e-01
1.228637839e+00,7.89310e-31,9.99999e-01,9.01834e-31,8.75226e-01,9.99999e-01
1.234781029e+00,7.77379e-20,9.99999e-01,8.85867e-20,8.77533e-01,9.99999e-01
1.240954934e+00,2.27821e-13,9.99999e-01,2.58946e-13,8.79800e-01,9.99999e-01
1.247159708e+00,2.76633e-07,9.99999e-01,3.13633e-07,8.82029e-01,9.99999e-01
1.253395507e+00,9.57620e-05,9.99999e-01,1.08301e-04,8.84218e-01,9.99999e-01
1.259662485e+00,4.69362e-03,9.99999e-01,5.29532e-03,8.86370e-01,9.99999e-01
1.265960797e+00,4.32660e-02,9.99999e-01,4.86963e-02,8.88485e-01,9.99999e-01
1.272290601e+00,2.44797e-01,9.99999e-01,2.74879e-01,8.90562e-01,9.99999e-01
1.278652054e+00,2.08081e-01,9.99999e-01,2.33117e-01,8.92603e-01,9.99999e-01
1.285045314e+00,3.28441e-03,9.99999e-01,3.67133e-03,8.94609e-01,9.99999e-01
1.291470541e+00,4.10427e-06,9.99999e-01,4.57770e-06,8.96579e-01,9.99999e-01
1.297927893e+00,5.29009e-03,9.99999e-01,5.88759e-03,8.98514e-01,9.99999e-01
1.304417533e+00,8.55172e-02,9.99999e-01,9.49752e-02,9.00415e-01,9.99999e-01
1.310939621e+00,2.02002e-02,9.99999e-01,2.23879e-02,9.02283e-01,9.99999e-01
1.317494319e+00,2.07685e-16,9.99999e-01,2.29710e-16,9.04117e-01,9.99999e-01
1.324081790e+00,2.89996e-11,9.99999e-01,3.20112e-11,9.05919e-01,9.99999e-01
1.330702199e+00,1.14791e-06,9.99999e-01,1.26465e-06,9.07689e-01,9.99999e-01
1.337355710e+00,1.82618e-06,9.99999e-01,2.00805e-06,9.09427e-01,9.99999e-01
1.344042489e+00,5.74080e-07,9.99999e-01,6.30071e-07,9.11134e-01,9.99999e-01
1.350762701e+00,6.94516e-07,9.99999e-01,7.60854e-07,9.12811e-01,9.99999e-01
1.357516515e+00,1.18809e-04,9.99999e-01,1.29923e-04,9.14457e-01,9.99999e-01
1.364304097e+00,2.50387e-03,9.99999e-01,2.73326e-03,9.16074e-01,9.99999e-01
1.371125618e+00,4.27985e-02,9.99999e-01,4.66386e-02,9.17661e-01,9.99999e-01
1.377981246e+00,7.29099e-02,9.99999e-01,7.93170e-02,9.19220e-01,9.99999e-01
1.384871152e+00,2.10747e-01,9.99999e-01,2.28886e-01,9.20750e-01,9.99999e-01
1.391795508e+00,2.36147e-01,9.99999e-01,2.56054e-01,9.22253e-01,9.99999e-01
1.398754485e+00,3.97820e-01,9.99999e-01,4.30667e-01,9.23729e-01,9.99999e-01
1.405748258e+00,4.98000e-01,9.99999e-01,5.38274e-01,9.25178e-01,9.99999e-01
1.412776999e+00,6.26403e-01,9.99999e-01,6.76023e-01,9.26600e-01,9.99999e-01
1.419840884e+00,5.61216e-01,9.99999e-01,6.04760e-01,9.27996e-01,9.99999e-01
1.426940089e+00,4.68395e-02,9.99999e-01,5.03993e-02,9.29367e-01,9.99999e-01
1.434074789e+00,0.00000e+00,9.99999e-01,0.00000e+00,9.30713e-01,9.99999e-01
1.441245163e+00,0.00000e+00,9.99999e-01,0.00000e+00,9.32034e-01,9.99999e-01
1.448451389e+00,0.00000e+00,9.99999e-01,0.00000e+00,9.33330e-01,9.99999e-01
1.455693646e+00,0.00000e+00,9.99999e-01,0.00000e+00,9.34603e-01,9.99999e-01
1.462972114e+00,1.20241e-181,9.99999e-01,1.28483e-181,9.35852e-01,9.99999e-01
1.470286975e+00,4.56221e-76,9.99999e-01,4.86854e-76,9.37079e-01,9.99999e-01
