#,Wave/freq,Total,O2,CO2,Rayleigh,CIA
4.000000000e-01,1.99164e-06,9.99999e-01,9.99999e-01,1.99164e-06,9.99999e-01
4.020000000e-01,2.58184e-06,9.99999e-01,9.99999e-01,2.58184e-06,9.99999e-01
4.040100000e-01,3.32896e-06,9.99999e-01,9.99999e-01,3.32896e-06,9.99999e-01
4.060300500e-01,4.27077e-06,9.99999e-01,9.99999e-01,4.27077e-06,9.99999e-01
4.080602003e-01,5.45214e-06,9.99999e-01,9.99999e-01,5.45214e-06,9.99999e-01
4.101005013e-01,6.92680e-06,9.99999e-01,9.99999e-01,6.92680e-06,9.99999e-01
4.121510038e-01,8.75881e-06,9.99999e-01,9.99999e-01,8.75881e-06,9.99999e-01
4.142117588e-01,1.10241e-05,9.99999e-01,9.99999e-01,1.10241e-05,9.99999e-01
4.162828176e-01,1.38124e-05,9.99999e-01,9.99999e-01,1.38124e-05,9.99999e-01
4.183642317e-01,1.72291e-05,9.99999e-01,9.99999e-01,1.72291e-05,9.99999e-01
4.204560528e-01,2.13972e-05,9.99999e-01,9.99999e-01,2.13972e-05,9.99999e-01
4.225583331e-01,2.64603e-05,9.99999e-01,9.99999e-01,2.64603e-05,9.99999e-01
4.246711247e-01,3.25844e-05,9.99999e-01,9.99999e-01,3.25844e-05,9.99999e-01
4.267944804e-01,3.99612e-05,9.99999e-01,9.99999e-01,3.99612e-05,9.99999e-01
4.289284528e-01,4.88110e-05,9.99999e-01,9.99999e-01,4.88110e-05,9.99999e-01
4.310730950e-01,5.93854e-05,9.99999e-01,9.99999e-01,5.93854e-05,9.99999e-01
4.332284605e-01,7.19714e-05,9.99999e-01,9.99999e-01,7.19714e-05,9.99999e-01
4.353946028e-01,8.68943e-05,9.99999e-01,9.99999e-01,8.68943e-05,9.99999e-01
4.375715758e-01,1.04522e-04,9.99999e-01,9.99999e-01,1.04522e-04,9.99999e-01
4.397594337e-01,1.25267e-04,9.99999e-01,9.99999e-01,1.25267e-04,9.99999e-01
4.419582309e-01,1.49594e-04,9.99999e-01,9.99999e-01,1.49594e-04,9.99999e-01
4.441680220e-01,1.78020e-04,9.99999e-01,9.99999e-01,1.78020e-04,9.99999e-01
4.463888621e-01,2.11121e-04,9.99999e-01,9.99999e-01,2.11121e-04,9.99999e-01
4.486208064e-01,2.49535e-04,9.99999e-01,9.99999e-01,2.49535e-04,9.99999e-01
4.508639105e-01,2.93966e-04,9.99999e-01,9.99999e-01,2.93966e-04,9.99999e-01
4.531182300e-01,3.45189e-04,9.99999e-01,9.99999e-01,3.45189e-04,9.99999e-01
4.553838212e-01,4.04053e-04,9.99999e-01,9.99999e-01,4.04053e-04,9.99999e-01
4.576607403e-01,4.71487e-04,9.99999e-01,9.99999e-01,4.71487e-04,9.99999e-01
4.599490440e-01,5.48501e-04,9.99999e-01,9.99999e-01,5.48501e-04,9.99999e-01
4.622487892e-01,6.36190e-04,9.99999e-01,9.99999e-01,6.36190e-04,9.99999e-01
4.645600332e-01,7.35739e-04,9.99999e-01,9.99999e-01,7.35739e-04,9.99999e-01
4.668828333e-01,8.48425e-04,9.99999e-01,9.99999e-01,8.48425e-04,9.99999e-01
4.692172475e-01,9.75621e-04,9.99999e-01,9.99999e-01,9.75621e-04,9.99999e-01
4.715633337e-01,1.11879e-03,9.99999e-01,9.99999e-01,1.11879e-03,9.99999e-01
4.739211504e-01,1.27951e-03,9.99999e-01,9.99999e-01,1.27951e-03,9.99999e-01
4.762907561e-01,1.45945e-03,9.99999e-01,9.99999e-01,1.45945e-03,9.99999e-01
4.786722099e-01,1.66036e-03,9.99999e-01,9.99999e-01,1.66036e-03,9.99999e-01
4.810655710e-01,1.88413e-03,9.99999e-01,9.99999e-01,1.88413e-03,9.99999e-01
4.834708988e-01,2.13272e-03,9.99999e-01,9.99999e-01,2.13272e-03,9.99999e-01
4.858882533e-01,2.40821e-03,9.99999e-01,9.99999e-01,2.40821e-03,9.99999e-01
4.883176946e-01,2.71276e-03,9.99999e-01,9.99999e-01,2.71276e-03,9.99999e-01
4.907592831e-01,3.04865e-03,9.99999e-01,9.99999e-01,3.04865e-03,9.99999e-01
4.932130795e-01,3.41824e-03,9.99999e-01,9.99999e-01,3.41824e-03,9.99999e-01
4.956791449e-01,3.82399e-03,9.99999e-01,9.99999e-01,3.82399e-03,9.99999e-01
4.981575406e-01,4.26843e-03,9.99999e-01,9.99999e-01,4.26843e-03,9.99999e-01
5.006483283e-01,4.75418e-03,9.99999e-01,9.99999e-01,4.75418e-03,9.99999e-01
5.031515699e-01,5.28396e-03,9.99999e-01,9.99999e-01,5.28396e-03,9.99999e-01
5.056673278e-01,5.86053e-03,9.99999e-01,9.99999e-01,5.86053e-03,9.99999e-01
5.081956644e-01,6.48672e-03,9.99999e-01,9.99999e-01,6.48672e-03,9.99999e-01
5.107366428e-01,7.16545e-03,9.99999e-01,9.99999e-01,7.16545e-03,9.99999e-01
5.132903260e-01,7.89964e-03,9.99999e-01,9.99999e-01,7.89964e-03,9.99999e-01
5.158567776e-01,8.69231e-03,9.99999e-01,9.99999e-01,8.69231e-03,9.99999e-01
5.184360615e-01,9.54646e-03,9.99999e-01,9.99999e-01,9.54646e-03,9.99999e-01
5.210282418e-01,1.04651e-02,9.99999e-01,9.99999e-01,1.04651e-02,9.99999e-01
5.236333830e-01,1.14514e-02,9.99999e-01,9.99999e-01,1.14514e-02,9.99999e-01
5.262515499e-01,1.25084e-02,9.99999e-01,9.99999e-01,1.25084e-02,9.99999e-01
5.288828077e-01,1.36392e-02,9.99999e-01,9.99999e-01,1.36392e-02,9.99999e-01
5.315272217e-01,1.48467e-02,9.99999e-01,9.99999e-01,1.48467e-02,9.99999e-01
5.341848578e-01,1.61341e-02,9.99999e-01,9.99999e-01,1.61341e-02,9.99999e-01
5.368557821e-01,1.75044e-02,9.99999e-01,9.99999e-01,1.75044e-02,9.99999e-01
5.395400610e-01,1.89604e-02,9.99999e-01,9.99999e-01,1.89604e-02,9.99999e-01
5.422377613e-01,2.05053e-02,9.99999e-01,9.99999e-01,2.05053e-02,9.99999e-01
5.449489501e-01,2.21417e-02,9.99999e-01,9.99999e-01,2.21417e-02,9.99999e-01
5.476736949e-01,2.38724e-02,9.99999e-01,9.99999e-01,2.38724e-02,9.99999e-01
5.504120634e-01,2.57002e-02,9.99999e-01,9.99999e-01,2.57002e-02,9.99999e-01
5.531641237e-01,2.76277e-02,9.99999e-01,9.99999e-01,2.76277e-02,9.99999e-01
5.559299443e-01,2.96573e-02,9.99999e-01,9.99999e-01,2.96573e-02,9.99999e-01
5.587095940e-01,3.17915e-02,9.99999e-01,9.99999e-01,3.17915e-02,9.99999e-01
5.615031420e-01,3.40325e-02,9.99999e-01,9.99999e-01,3.40325e-02,9.99999e-01
5.643106577e-01,3.63825e-02,9.99999e-01,9.99999e-01,3.63825e-02,9.99999e-01
5.671322110e-01,3.88435e-02,9.99999e-01,9.99999e-01,3.88435e-02,9.99999e-01
5.699678720e-01,4.14174e-02,9.99999e-01,9.99999e-01,4.14174e-02,9.99999e-01
5.728177114e-01,4.41060e-02,9.99999e-01,9.99999e-01,4.41060e-02,9.99999e-01
5.756818000e-01,4.69107e-02,9.99999e-01,9.99999e-01,4.69107e-02,9.99999e-01
5.785602090e-01,4.98330e-02,9.99999e-01,9.99999e-01,4.98330e-02,9.99999e-01
5.814530100e-01,5.28743e-02,9.99999e-01,9.99999e-01,5.28743e-02,9.99999e-01
5.843602750e-01,5.60356e-02,9.99999e-01,9.99999e-01,5.60356e-02,9.99999e-01
5.872820764e-01,5.93178e-02,9.99999e-01,9.99999e-01,5.93178e-02,9.99999e-01
5.902184868e-01,6.27216e-02,9.99999e-01,9.99999e-01,6.27216e-02,9.99999e-01
5.931695792e-01,6.62478e-02,9.99999e-01,9.99999e-01,6.62478e-02,9.99999e-01
5.961354271e-01,6.98966e-02,9.99999e-01,9.99999e-01,6.98966e-02,9.99999e-01
5.991161043e-01,7.36683e-02,9.99999e-01,9.99999e-01,7.36683e-02,9.99999e-01
6.021116848e-01,7.75631e-02,9.99999e-01,9.99999e-01,7.75631e-02,9.99999e-01
6.051222432e-01,8.15806e-02,9.99999e-01,9.99999e-01,8.15806e-02,9.99999e-01
6.081478544e-01,8.57207e-02,9.99999e-01,9.99999e-01,8.57207e-02,9.99999e-01
6.111885937e-01,8.99829e-02,9.99999e-01,9.99999e-01,8.99829e-02,9.99999e-01
6.142445367e-01,9.43665e-02,9.99999e-01,9.99999e-01,9.43665e-02,9.99999e-01
6.173157594e-01,9.88708e-02,9.99999e-01,9.99999e-01,9.88708e-02,9.99999e-01
6.204023382e-01,1.03495e-01,9.99999e-01,9.99999e-01,1.03495e-01,9.99999e-01
6.235043498e-01,1.08237e-01,9.99999e-01,9.99999e-01,1.08237e-01,9.99999e-01
6.266218716e-01,1.13096e-01,9.99999e-01,9.99999e-01,1.13096e-01,9.99999e-01
6.297549810e-01,1.18072e-01,9.99999e-01,9.99999e-01,1.18072e-01,9.99999e-01
6.329037559e-01,1.23161e-01,9.99999e-01,9.99999e-01,1.23161e-01,9.99999e-01
6.360682746e-01,1.28363e-01,9.99999e-01,9.99999e-01,1.28363e-01,9.99999e-01
6.392486160e-01,1.33675e-01,9.99999e-01,9.99999e-01,1.33675e-01,9.99999e-01
6.424448591e-01,1.39095e-01,9.99999e-01,9.99999e-01,1.39095e-01,9.99999e-01
6.456570834e-01,1.44622e-01,9.99999e-01,9.99999e-01,1.44622e-01,9.99999e-01
6.488853688e-01,1.50252e-01,9.99999e-01,9.99999e-01,1.50252e-01,9.99999e-01
6.521297956e-01,1.55984e-01,9.99999e-01,9.99999e-01,1.55984e-01,9.99999e-01
6.553904446e-01,1.61815e-01,9.99999e-01,9.99999e-01,1.61815e-01,9.99999e-01
6.586673968e-01,1.67743e-01,9.99999e-01,9.99999e-01,1.67743e-01,9.99999e-01
6.619607338e-01,1.73763e-01,9.99999e-01,9.99999e-01,1.73763e-01,9.99999e-01
6.652705375e-01,1.79875e-01,9.99999e-01,9.99999e-01,1.79875e-01,9.99999e-01
6.685968902e-01,1.86075e-01,9.99999e-01,9.99999e-01,1.86075e-01,9.99999e-01
6.719398746e-01,1.92359e-01,9.99999e-01,9.99999e-01,1.92359e-01,9.99999e-01
6.752995740e-01,1.98725e-01,9.99999e-01,9.99999e-01,1.98725e-01,9.99999e-01
6.786760719e-01,2.05170e-01,9.99999e-01,9.99999e-01,2.05170e-01,9.99999e-01
6.820694522e-01,2.11691e-01,9.99999e-01,9.99999e-01,2.11691e-01,9.99999e-01
6.854797995e-01,2.18284e-01,9.99999e-01,9.99999e-01,2.18284e-01,9.99999e-01
6.889071985e-01,2.24945e-01,9.99999e-01,9.99999e-01,2.24945e-01,9.99999e-01
6.923517345e-01,2.31673e-01,9.99999e-01,9.99999e-01,2.31673e-01,9.99999e-01
6.958134932e-01,2.38463e-01,9.99999e-01,9.99999e-01,2.38463e-01,9.99999e-01
6.992925606e-01,2.45311e-01,9.99999e-01,9.99999e-01,2.45311e-01,9.99999e-01
7.027890234e-01,2.52216e-01,9.99999e-01,9.99999e-01,2.52216e-01,9.99999e-01
7.063029686e-01,2.59172e-01,9.99999e-01,9.99999e-01,2.59172e-01,9.99999e-01
7.098344834e-01,2.66178e-01,9.99999e-01,9.99999e-01,2.66178e-01,9.99999e-01
7.133836558e-01,2.73229e-01,9.99999e-01,9.99999e-01,2.73229e-01,9.99999e-01
7.169505741e-01,2.80321e-01,9.99999e-01,9.99999e-01,2.80321e-01,9.99999e-01
7.205353270e-01,2.87453e-01,9.99999e-01,9.99999e-01,2.87453e-01,9.99999e-01
7.241380036e-01,2.94619e-01,9.99999e-01,9.99999e-01,2.94619e-01,9.99999e-01
7.277586936e-01,3.01817e-01,9.99999e-01,9.99999e-01,3.01817e-01,9.99999e-01
7.313974871e-01,3.09044e-01,9.99999e-01,9.99999e-01,3.09044e-01,9.99999e-01
7.350544745e-01,3.16296e-01,9.99999e-01,9.99999e-01,3.16296e-01,9.99999e-01
7.387297469e-01,3.23570e-01,9.99999e-01,9.99999e-01,3.23570e-01,9.99999e-01
7.424233956e-01,3.30863e-01,9.99999e-01,9.99999e-01,3.30863e-01,9.99999e-01
7.461355126e-01,3.38171e-01,9.99999e-01,9.99999e-01,3.38171e-01,9.99999e-01
7.498661902e-01,3.45491e-01,9.99999e-01,9.99999e-01,3.45491e-01,9.99999e-01
7.536155211e-01,3.52820e-01,9.99999e-01,9.99999e-01,3.52820e-01,9.99999e-01
7.573835987e-01,3.60156e-01,9.99999e-01,9.99999e-01,3.60156e-01,9.99999e-01
7.611705167e-01,3.67495e-01,9.99999e-01,9.99999e-01,3.67495e-01,9.99999e-01
7.649763693e-01,3.74833e-01,9.99999e-01,9.99999e-01,3.74833e-01,9.99999e-01
7.688012511e-01,3.82170e-01,9.99999e-01,9.99999e-01,3.82170e-01,9.99999e-01
7.726452574e-01,3.89500e-01,9.99999e-01,9.99999e-01,3.89500e-01,9.99999e-01
7.765084837e-01,3.96822e-01,9.99999e-01,9.99999e-01,3.96822e-01,9.99999e-01
7.803910261e-01,3.86798e-01,9.99999e-01,9.57104e-01,4.04133e-01,9.99999e-01
7.842929812e-01,3.40548e-01,9.99999e-01,8.27715e-01,4.11431e-01,9.99999e-01
7.882144461e-01,3.41702e-01,9.99999e-01,8.16077e-01,4.18712e-01,9.99999e-01
7.921555184e-01,3.78003e-01,9.99999e-01,8.87384e-01,4.25974e-01,9.99999e-01
7.961162960e-01,4.00070e-01,9.99999e-01,9.23487e-01,4.33216e-01,9.99999e-01
8.000968774e-01,4.21802e-01,9.99999e-01,9.57698e-01,4.40433e-01,9.99999e-01
8.040973618e-01,4.37746e-01,9.99999e-01,9.77929e-01,4.47625e-01,9.99999e-01
8.081178486e-01,4.50138e-01,9.99999e-01,9.89773e-01,4.54789e-01,9.99999e-01
8.121584379e-01,4.60471e-01,9.99999e-01,9.96857e-01,4.61922e-01,9.99999e-01
8.162192301e-01,4.68697e-01,9.99999e-01,9.99304e-01,4.69023e-01,9.99999e-01
8.203003262e-01,4.76085e-01,9.99999e-01,9.99989e-01,4.76090e-01,9.99999e-01
8.244018279e-01,4.83121e-01,9.99999e-01,9.99999e-01,4.83121e-01,9.99999e-01
8.285238370e-01,4.90113e-01,9.99999e-01,9.99999e-01,4.90113e-01,9.99999e-01
8.326664562e-01,4.97065e-01,9.99999e-01,9.99999e-01,4.97065e-01,9.99999e-01
8.368297885e-01,5.03976e-01,9.99999e-01,9.99999e-01,5.03976e-01,9.99999e-01
8.410139374e-01,5.10844e-01,9.99999e-01,9.99999e-01,5.10844e-01,9.99999e-01
8.452190071e-01,5.17667e-01,9.99999e-01,9.99999e-01,5.17667e-01,9.99999e-01
8.494451021e-01,5.24443e-01,9.99999e-01,9.99999e-01,5.24443e-01,9.99999e-01
8.536923276e-01,5.31172e-01,9.99999e-01,9.99999e-01,5.31172e-01,9.99999e-01
8.579607893e-01,5.37852e-01,9.99999e-01,9.99999e-01,5.37852e-01,9.99999e-01
8.622505932e-01,5.44481e-01,9.99999e-01,9.99999e-01,5.44481e-01,9.99999e-01
8.665618462e-01,5.02666e-01,9.99999e-01,9.12183e-01,5.51058e-01,9.99999e-01
8.708946554e-01,3.45121e-01,9.99999e-01,6.18959e-01,5.57583e-01,9.99999e-01
8.752491287e-01,3.82958e-01,9.99999e-01,6.78939e-01,5.64054e-01,9.99999e-01
8.796253743e-01,4.60823e-01,9.99999e-01,8.07795e-01,5.70470e-01,9.99999e-01
8.840235012e-01,5.16245e-01,9.99999e-01,8.94968e-01,5.76830e-01,9.99999e-01
8.884436187e-01,5.58255e-01,9.99999e-01,9.57336e-01,5.83133e-01,9.99999e-01
8.928858368e-01,5.79039e-01,9.99999e-01,9.82457e-01,5.89378e-01,9.99999e-01
8.973502660e-01,5.93024e-01,9.99999e-01,9.95732e-01,5.95565e-01,9.99999e-01
9.018370173e-01,6.01410e-01,9.99999e-01,9.99529e-01,6.01693e-01,9.99999e-01
9.063462024e-01,6.00273e-01,9.99999e-01,9.87679e-01,6.07761e-01,9.99999e-01
9.108779334e-01,5.96836e-01,9.99999e-01,9.72411e-01,6.13769e-01,9.99999e-01
9.154323231e-01,6.15695e-01,9.99999e-01,9.93512e-01,6.19715e-01,9.99999e-01
9.200094847e-01,5.68811e-01,9.99999e-01,9.09223e-01,6.25600e-01,9.99999e-01
9.246095321e-01,5.50604e-01,9.99999e-01,8.72004e-01,6.31423e-01,9.99999e-01
9.292325798e-01,5.71960e-01,9.99999e-01,8.97636e-01,6.37184e-01,9.99999e-01
9.338787427e-01,5.79556e-01,9.99999e-01,9.01497e-01,6.42881e-01,9.99999e-01
9.385481364e-01,6.00865e-01,9.99999e-01,9.26522e-01,6.48516e-01,9.99999e-01
9.432408771e-01,6.24276e-01,9.99999e-01,9.54422e-01,6.54087e-01,9.99999e-01
9.479570815e-01,6.43970e-01,9.99999e-01,9.76310e-01,6.59595e-01,9.99999e-01
9.526968669e-01,6.57411e-01,9.99999e-01,9.88530e-01,6.65039e-01,9.99999e-01
9.574603512e-01,6.67123e-01,9.99999e-01,9.95082e-01,6.70419e-01,9.99999e-01
9.622476530e-01,6.74698e-01,9.99999e-01,9.98465e-01,6.75735e-01,9.99999e-01
9.670588912e-01,6.80674e-01,9.99999e-01,9.99540e-01,6.80987e-01,9.99999e-01
9.718941857e-01,6.86153e-01,9.99999e-01,9.99967e-01,6.86175e-01,9.99999e-01
9.767536566e-01,6.91298e-01,9.99999e-01,9.99999e-01,6.91298e-01,9.99999e-01
9.816374249e-01,6.96358e-01,9.99999e-01,9.99999e-01,6.96358e-01,9.99999e-01
9.865456120e-01,7.01353e-01,9.99999e-01,9.99999e-01,7.01353e-01,9.99999e-01
9.914783401e-01,7.06285e-01,9.99999e-01,9.99999e-01,7.06285e-01,9.99999e-01
9.964357318e-01,7.11153e-01,9.99999e-01,9.99999e-01,7.11153e-01,9.99999e-01
1.001417910e+00,7.15957e-01,9.99999e-01,9.99999e-01,7.15957e-01,9.99999e-01
1.006425000e+00,7.20698e-01,9.99999e-01,9.99999e-01,7.20698e-01,9.99999e-01
1.011457125e+00,7.25376e-01,9.99999e-01,9.99999e-01,7.25376e-01,9.99999e-01
1.016514411e+00,7.29991e-01,9.99999e-01,9.99999e-01,7.29991e-01,9.99999e-01
1.021596983e+00,7.34490e-01,9.99999e-01,9.99926e-01,7.34543e-01,9.99999e-01
1.026704968e+00,7.35454e-01,9.99999e-01,9.95156e-01,7.39033e-01,9.99999e-01
1.031838492e+00,7.02618e-01,9.99999e-01,9.45064e-01,7.43461e-01,9.99999e-01
1.036997685e+00,9.07168e-02,9.99999e-01,1.21307e-01,7.47827e-01,9.99999e-01
1.042182673e+00,5.45862e-02,9.99999e-01,7.25753e-02,7.52131e-01,9.99999e-01
1.047393587e+00,7.25487e-02,9.99999e-01,9.59163e-02,7.56375e-01,9.99999e-01
1.052630555e+00,9.24199e-04,9.99999e-01,1.21516e-03,7.60558e-01,9.99999e-01
1.057893707e+00,2.69139e-03,9.99999e-01,3.51962e-03,7.64681e-01,9.99999e-01
1.063183176e+00,1.16347e-02,9.99999e-01,1.51347e-02,7.68744e-01,9.99999e-01
1.068499092e+00,3.98381e-02,9.99999e-01,5.15538e-02,7.72748e-01,9.99999e-01
1.073841587e+00,1.19210e-01,9.99999e-01,1.53484e-01,7.76693e-01,9.99999e-01
1.079210795e+00,2.38141e-01,9.99999e-01,3.05082e-01,7.80580e-01,9.99999e-01
1.084606849e+00,4.07200e-01,9.99999e-01,5.19116e-01,7.84408e-01,9.99999e-01
1.090029883e+00,5.60356e-01,9.99999e-01,7.10949e-01,7.88180e-01,9.99999e-01
1.095480033e+00,6.69447e-01,9.99999e-01,8.45373e-01,7.91894e-01,9.99999e-01
1.100957433e+00,7.33644e-01,9.99999e-01,9.22181e-01,7.95552e-01,9.99999e-01
1.106462220e+00,7.72855e-01,9.99999e-01,9.67090e-01,7.99155e-01,9.99999e-01
1.111994531e+00,7.92806e-01,9.99999e-01,9.87671e-01,8.02702e-01,9.99999e-01
1.117554504e+00,8.03767e-01,9.99999e-01,9.96989e-01,8.06194e-01,9.99999e-01
1.123142276e+00,8.09472e-01,9.99999e-01,9.99802e-01,8.09632e-01,9.99999e-01
1.128757988e+00,8.13016e-01,9.99999e-01,9.99999e-01,8.13016e-01,9.99999e-01
1.134401778e+00,8.16347e-01,9.99999e-01,9.99999e-01,8.16347e-01,9.99999e-01
1.140073787e+00,8.19625e-01,9.99999e-01,9.99999e-01,8.19625e-01,9.99999e-01
1.145774156e+00,8.22852e-01,9.99999e-01,9.99999e-01,8.22852e-01,9.99999e-01
1.151503026e+00,8.26027e-01,9.99999e-01,9.99999e-01,8.26027e-01,9.99999e-01
1.157260541e+00,8.29151e-01,9.99999e-01,9.99999e-01,8.29151e-01,9.99999e-01
1.163046844e+00,8.32226e-01,9.99999e-01,9.99999e-01,8.32226e-01,9.99999e-01
1.168862078e+00,8.35250e-01,9.99999e-01,9.99999e-01,8.35250e-01,9.99999e-01
1.174706389e+00,8.38225e-01,9.99999e-01,9.99999e-01,8.38225e-01,9.99999e-01
1.180579921e+00,8.41152e-01,9.99999e-01,9.99999e-01,8.41152e-01,9.99999e-01
1.186482820e+00,8.44022e-01,9.99999e-01,9.99988e-01,8.44031e-01,9.99999e-01
1.192415234e+00,8.32319e-01,9.99999e-01,9.82826e-01,8.46863e-01,9.99999e-01
1.198377311e+00,4.70775e-01,9.99999e-01,5.54082e-01,8.49648e-01,9.99999e-01
1.204369197e+00,1.23719e-13,9.99999e-01,1.45144e-13,8.52387e-01,9.99999e-01
1.210391043e+00,3.69311e-51,9.99999e-01,4.31902e-51,8.55080e-01,9.99999e-01
1.216442998e+00,1.89289e-44,9.99999e-01,2.20686e-44,8.57728e-01,9.99999e-01
1.222525213e+00,8.40923e-44,9.99999e-01,9.77438e-44,8.60332e-01,9.99999e-01
1.228637839e+00,6.29128e-34,9.99999e-01,7.29092e-34,8.62893e-01,9.99999e-01
1.234781029e+00,1.03655e-21,9.99999e-01,1.19776e-21,8.65410e-01,9.99999e-01
1.240954934e+00,1.33674e-14,9.99999e-01,1.54023e-14,8.67884e-01,9.99999e-01
1.247159708e+00,7.85732e-08,9.99999e-01,9.02811e-08,8.70317e-01,9.99999e-01
1.253395507e+00,3.93854e-05,9.99999e-01,4.51301e-05,8.72708e-01,9.99999e-01
1.259662485e+00,2.80156e-03,9.99999e-01,3.20157e-03,8.75058e-01,9.99999e-01
1.265960797e+00,3.24567e-02,9.99999e-01,3.69933e-02,8.77368e-01,9.99999e-01
1.272290601e+00,2.12330e-01,9.99999e-01,2.41383e-01,8.79638e-01,9.99999e-01
1.278652054e+00,1.78843e-01,9.99999e-01,2.02800e-01,8.81869e-01,9.99999e-01
1.285045314e+00,2.31131e-03,9.99999e-01,2.61442e-03,8.84062e-01,9.99999e-01
1.291470541e+00,1.20570e-06,9.99999e-01,1.36050e-06,8.86216e-01,9.99999e-01
1.297927893e+00,3.62886e-03,9.99999e-01,4.08501e-03,8.88333e-01,9.99999e-01
1.304417533e+00,6.63134e-02,9.99999e-01,7.44748e-02,8.90413e-01,9.99999e-01
1.310939621e+00,1.06881e-02,9.99999e-01,1.19760e-02,8.92457e-01,9.99999e-01
1.317494319e+00,3.91402e-18,9.99999e-01,4.37581e-18,8.94465e-01,9.99999e-01
1.324081790e+00,2.84502e-12,9.99999e-01,3.17369e-12,8.96437e-01,9.99999e-01
1.330702199e+00,2.86380e-07,9.99999e-01,3.18775e-07,8.98375e-01,9.99999e-01
1.337355710e+00,5.42169e-07,9.99999e-01,6.02223e-07,9.00279e-01,9.99999e-01
1.344042489e+00,1.75133e-07,9.99999e-01,1.94128e-07,9.02149e-01,9.99999e-01
1.350762701e+00,1.71495e-07,9.99999e-01,1.89709e-07,9.03986e-01,9.99999e-01
1.357516515e+00,5.23262e-05,9.99999e-01,5.77685e-05,9.05790e-01,9.99999e-01
1.364304097e+00,1.36776e-03,9.99999e-01,1.50706e-03,9.07562e-01,9.99999e-01
1.371125618e+00,3.14813e-02,9.99999e-01,3.46213e-02,9.09303e-01,9.99999e-01
1.377981246e+00,5.55243e-02,9.99999e-01,6.09478e-02,9.11012e-01,9.99999e-01
1.384871152e+00,1.79295e-01,9.99999e-01,1.96446e-01,9.12690e-01,9.99999e-01
1.391795508e+00,2.03421e-01,9.99999e-01,2.22478e-01,9.14339e-01,9.99999e-01
1.398754485e+00,3.61100e-01,9.99999e-01,3.94232e-01,9.15958e-01,9.99999e-01
1.405748258e+00,4.63302e-01,9.99999e-01,5.04935e-01,9.17547e-01,9.99999e-01
1.412776999e+00,5.96645e-01,9.99999e-01,6.49156e-01,9.19108e-01,9.99999e-01
1.419840884e+00,5.31149e-01,9.99999e-01,5.76933e-01,9.20641e-01,9.99999e-01
1.426940089e+00,4.06975e-02,9.99999e-01,4.41335e-02,9.22146e-01,9.99999e-01
1.434074789e+00,0.00000e+00,9.99999e-01,0.00000e+00,9.23623e-01,9.99999e-01
1.441245163e+00,0.00000e+00,9.99999e-01,0.00000e+00,9.25074e-01,9.99999e-01
1.448451389e+00,0.00000e+00,9.99999e-01,0.00000e+00,9.26498e-01,9.99999e-01
1.455693646e+00,0.00000e+00,9.99999e-01,0.00000e+00,9.27896e-01,9.99999e-01
1.462972114e+00,8.97012e-201,9.99999e-01,9.65287e-201,9.29269e-01,9.99999e-01
1.470286975e+00,6.14769e-84,9.99999e-01,6.60604e-84,9.30616e-01,9.99999e-01
