#,Wave/freq,Total,O2,CO2,Rayleigh,CIA
4.000000000e-01,5.46975e-05,9.99999e-01,9.99999e-01,5.46975e-05,9.99999e-01
4.020000000e-01,6.64108e-05,9.99999e-01,9.99999e-01,6.64108e-05,9.99999e-01
4.040100000e-01,8.03081e-05,9.99999e-01,9.99999e-01,8.03081e-05,9.99999e-01
4.060300500e-01,9.67499e-05,9.99999e-01,9.99999e-01,9.67499e-05,9.99999e-01
4.080602003e-01,1.16130e-04,9.99999e-01,9.99999e-01,1.16130e-04,9.99999e-01
4.101005013e-01,1.38890e-04,9.99999e-01,9.99999e-01,1.38890e-04,9.99999e-01
4.121510038e-01,1.65525e-04,9.99999e-01,9.99999e-01,1.65525e-04,9.99999e-01
4.142117588e-01,1.96585e-04,9.99999e-01,9.99999e-01,1.96585e-04,9.99999e-01
4.162828176e-01,2.32681e-04,9.99999e-01,9.99999e-01,2.32681e-04,9.99999e-01
4.183642317e-01,2.74490e-04,9.99999e-01,9.99999e-01,2.74490e-04,9.99999e-01
4.204560528e-01,3.22756e-04,9.99999e-01,9.99999e-01,3.22756e-04,9.99999e-01
4.225583331e-01,3.78297e-04,9.99999e-01,9.99999e-01,3.78297e-04,9.99999e-01
4.246711247e-01,4.42007e-04,9.99999e-01,9.99999e-01,4.42007e-04,9.99999e-01
4.267944804e-01,5.14861e-04,9.99999e-01,9.99999e-01,5.14861e-04,9.99999e-01
4.289284528e-01,5.97919e-04,9.99999e-01,9.99999e-01,5.97919e-04,9.99999e-01
4.310730950e-01,6.92328e-04,9.99999e-01,9.99999e-01,6.92328e-04,9.99999e-01
4.332284605e-01,7.99325e-04,9.99999e-01,9.99999e-01,7.99325e-04,9.99999e-01
4.353946028e-01,9.20243e-04,9.99999e-01,9.99999e-01,9.20243e-04,9.99999e-01
4.375715758e-01,1.05651e-03,9.99999e-01,9.99999e-01,1.05651e-03,9.99999e-01
4.397594337e-01,1.20965e-03,9.99999e-01,9.99999e-01,1.20965e-03,9.99999e-01
4.419582309e-01,1.38129e-03,9.99999e-01,9.99999e-01,1.38129e-03,9.99999e-01
4.441680220e-01,1.57315e-03,9.99999e-01,9.99999e-01,1.57315e-03,9.99999e-01
4.463888621e-01,1.78707e-03,9.99999e-01,9.99999e-01,1.78707e-03,9.99999e-01
4.486208064e-01,2.02497e-03,9.99999e-01,9.99999e-01,2.02497e-03,9.99999e-01
4.508639105e-01,2.28888e-03,9.99999e-01,9.99999e-01,2.28888e-03,9.99999e-01
4.531182300e-01,2.58093e-03,9.99999e-01,9.99999e-01,2.58093e-03,9.99999e-01
4.553838212e-01,2.90336e-03,9.99999e-01,9.99999e-01,2.90336e-03,9.99999e-01
4.576607403e-01,3.25848e-03,9.99999e-01,9.99999e-01,3.25848e-03,9.99999e-01
4.599490440e-01,3.64870e-03,9.99999e-01,9.99999e-01,3.64870e-03,9.99999e-01
4.622487892e-01,4.07655e-03,9.99999e-01,9.99999e-01,4.07655e-03,9.99999e-01
4.645600332e-01,4.54459e-03,9.99999e-01,9.99999e-01,4.54459e-03,9.99999e-01
4.668828333e-01,5.05551e-03,9.99999e-01,9.99999e-01,5.05551e-03,9.99999e-01
4.692172475e-01,5.61205e-03,9.99999e-01,9.99999e-01,5.61205e-03,9.99999e-01
4.715633337e-01,6.21702e-03,9.99999e-01,9.99999e-01,6.21702e-03,9.99999e-01
4.739211504e-01,6.87328e-03,9.99999e-01,9.99999e-01,6.87328e-03,9.99999e-01
4.762907561e-01,7.58378e-03,9.99999e-01,9.99999e-01,7.58378e-03,9.99999e-01
4.786722099e-01,8.35147e-03,9.99999e-01,9.99999e-01,8.35147e-03,9.99999e-01
4.810655710e-01,9.17938e-03,9.99999e-01,9.99999e-01,9.17938e-03,9.99999e-01
4.834708988e-01,1.00705e-02,9.99999e-01,9.99999e-01,1.00705e-02,9.99999e-01
4.858882533e-01,1.10280e-02,9.99999e-01,9.99999e-01,1.10280e-02,9.99999e-01
4.883176946e-01,1.20549e-02,9.99999e-01,9.99999e-01,1.20549e-02,9.99999e-01
4.907592831e-01,1.31542e-02,9.99999e-01,9.99999e-01,1.31542e-02,9.99999e-01
4.932130795e-01,1.43291e-02,9.99999e-01,9.99999e-01,1.43291e-02,9.99999e-01
4.956791449e-01,1.55825e-02,9.99999e-01,9.99999e-01,1.55825e-02,9.99999e-01
4.981575406e-01,1.69175e-02,9.99999e-01,9.99999e-01,1.69175e-02,9.99999e-01
5.006483283e-01,1.83371e-02,9.99999e-01,9.99999e-01,1.83371e-02,9.99999e-01
5.031515699e-01,1.98443e-02,9.99999e-01,9.99999e-01,1.98443e-02,9.99999e-01
5.056673278e-01,2.14418e-02,9.99999e-01,9.99999e-01,2.14418e-02,9.99999e-01
5.081956644e-01,2.31325e-02,9.99999e-01,9.99999e-01,2.31325e-02,9.99999e-01
5.107366428e-01,2.49192e-02,9.99999e-01,9.99999e-01,2.49192e-02,9.99999e-01
5.132903260e-01,2.68044e-02,9.99999e-01,9.99999e-01,2.68044e-02,9.99999e-01
5.158567776e-01,2.87907e-02,9.99999e-01,9.99999e-01,2.87907e-02,9.99999e-01
5.184360615e-01,3.08806e-02,9.99999e-01,9.99999e-01,3.08806e-02,9.99999e-01
5.210282418e-01,3.30764e-02,9.99999e-01,9.99999e-01,3.30764e-02,9.99999e-01
5.236333830e-01,3.53803e-02,9.99999e-01,9.99999e-01,3.53803e-02,9.99999e-01
5.262515499e-01,3.77944e-02,9.99999e-01,9.99999e-01,3.77944e-02,9.99999e-01
5.288828077e-01,4.03206e-02,9.99999e-01,9.99999e-01,4.03206e-02,9.99999e-01
5.315272217e-01,4.29607e-02,9.99999e-01,9.99999e-01,4.29607e-02,9.99999e-01
5.341848578e-01,4.57163e-02,9.99999e-01,9.99999e-01,4.57163e-02,9.99999e-01
5.368557821e-01,4.85890e-02,9.99999e-01,9.99999e-01,4.85890e-02,9.99999e-01
5.395400610e-01,5.15801e-02,9.99999e-01,9.99999e-01,5.15801e-02,9.99999e-01
5.422377613e-01,5.46908e-02,9.99999e-01,9.99999e-01,5.46908e-02,9.99999e-01
5.449489501e-01,5.79220e-02,9.99999e-01,9.99999e-01,5.79220e-02,9.99999e-01
5.476736949e-01,6.12746e-02,9.99999e-01,9.99999e-01,6.12746e-02,9.99999e-01
5.504120634e-01,6.47492e-02,9.99999e-01,9.99999e-01,6.47492e-02,9.99999e-01
5.531641237e-01,6.83464e-02,9.99999e-01,9.99999e-01,6.83464e-02,9.99999e-01
5.559299443e-01,7.20664e-02,9.99999e-01,9.99999e-01,7.20664e-02,9.99999e-01
5.587095940e-01,7.59094e-02,9.99999e-01,9.99999e-01,7.59094e-02,9.99999e-01
5.615031420e-01,7.98753e-02,9.99999e-01,9.99999e-01,7.98753e-02,9.99999e-01
5.643106577e-01,8.39639e-02,9.99999e-01,9.99999e-01,8.39639e-02,9.99999e-01
5.671322110e-01,8.81747e-02,9.99999e-01,9.99999e-01,8.81747e-02,9.99999e-01
5.699678720e-01,9.25074e-02,9.99999e-01,9.99999e-01,9.25074e-02,9.99999e-01
5.728177114e-01,9.69609e-02,9.99999e-01,9.99999e-01,9.69609e-02,9.99999e-01
5.756818000e-01,1.01535e-01,9.99999e-01,9.99999e-01,1.01535e-01,9.99999e-01
5.785602090e-01,1.06227e-01,9.99999e-01,9.99999e-01,1.06227e-01,9.99999e-01
5.814530100e-01,1.11038e-01,9.99999e-01,9.99999e-01,1.11038e-01,9.99999e-01
5.843602750e-01,1.15964e-01,9.99999e-01,9.99999e-01,1.15964e-01,9.99999e-01
5.872820764e-01,1.21006e-01,9.99999e-01,9.99999e-01,1.21006e-01,9.99999e-01
5.902184868e-01,1.26160e-01,9.99999e-01,9.99999e-01,1.26160e-01,9.99999e-01
5.931695792e-01,1.31426e-01,9.99999e-01,9.99999e-01,1.31426e-01,9.99999e-01
5.961354271e-01,1.36801e-01,9.99999e-01,9.99999e-01,1.36801e-01,9.99999e-01
5.991161043e-01,1.42284e-01,9.99999e-01,9.99999e-01,1.42284e-01,9.99999e-01
6.021116848e-01,1.47871e-01,9.99999e-01,9.99999e-01,1.47871e-01,9.99999e-01
6.051222432e-01,1.53560e-01,9.99999e-01,9.99999e-01,1.53560e-01,9.99999e-01
6.081478544e-01,1.59350e-01,9.99999e-01,9.99999e-01,1.59350e-01,9.99999e-01
6.111885937e-01,1.65237e-01,9.99999e-01,9.99999e-01,1.65237e-01,9.99999e-01
6.142445367e-01,1.71219e-01,9.99999e-01,9.99999e-01,1.71219e-01,9.99999e-01
6.173157594e-01,1.77293e-01,9.99999e-01,9.99999e-01,1.77293e-01,9.99999e-01
6.204023382e-01,1.83456e-01,9.99999e-01,9.99999e-01,1.83456e-01,9.99999e-01
6.235043498e-01,1.89705e-01,9.99999e-01,9.99999e-01,1.89705e-01,9.99999e-01
6.266218716e-01,1.96037e-01,9.99999e-01,9.99999e-01,1.96037e-01,9.99999e-01
6.297549810e-01,2.02449e-01,9.99999e-01,9.99999e-01,2.02449e-01,9.99999e-01
6.329037559e-01,2.08938e-01,9.99999e-01,9.99999e-01,2.08938e-01,9.99999e-01
6.360682746e-01,2.15501e-01,9.99999e-01,9.99999e-01,2.15501e-01,9.99999e-01
6.392486160e-01,2.22134e-01,9.99999e-01,9.99999e-01,2.22134e-01,9.99999e-01
6.424448591e-01,2.28834e-01,9.99999e-01,9.99999e-01,2.28834e-01,9.99999e-01
6.456570834e-01,2.35598e-01,9.99999e-01,9.99999e-01,2.35598e-01,9.99999e-01
6.488853688e-01,2.42423e-01,9.99999e-01,9.99999e-01,2.42423e-01,9.99999e-01
6.521297956e-01,2.49304e-01,9.99999e-01,9.99999e-01,2.49304e-01,9.99999e-01
6.553904446e-01,2.56239e-01,9.99999e-01,9.99999e-01,2.56239e-01,9.99999e-01
6.586673968e-01,2.63225e-01,9.99999e-01,9.99999e-01,2.63225e-01,9.99999e-01
6.619607338e-01,2.70257e-01,9.99999e-01,9.99999e-01,2.70257e-01,9.99999e-01
6.652705375e-01,2.77332e-01,9.99999e-01,9.99999e-01,2.77332e-01,9.99999e-01
6.685968902e-01,2.84448e-01,9.99999e-01,9.99999e-01,2.84448e-01,9.99999e-01
6.719398746e-01,2.91600e-01,9.99999e-01,9.99999e-01,2.91600e-01,9.99999e-01
6.752995740e-01,2.98785e-01,9.99999e-01,9.99999e-01,2.98785e-01,9.99999e-01
6.786760719e-01,3.06000e-01,9.99999e-01,9.99999e-01,3.06000e-01,9.99999e-01
6.820694522e-01,3.13242e-01,9.99999e-01,9.99999e-01,3.13242e-01,9.99999e-01
6.854797995e-01,3.20507e-01,9.99999e-01,9.99999e-01,3.20507e-01,9.99999e-01
6.889071985e-01,3.27792e-01,9.99999e-01,9.99999e-01,3.27792e-01,9.99999e-01
6.923517345e-01,3.35094e-01,9.99999e-01,9.99999e-01,3.35094e-01,9.99999e-01
6.958134932e-01,3.42410e-01,9.99999e-01,9.99999e-01,3.42410e-01,9.99999e-01
6.992925606e-01,3.49736e-01,9.99999e-01,9.99999e-01,3.49736e-01,9.99999e-01
7.027890234e-01,3.57069e-01,9.99999e-01,9.99999e-01,3.57069e-01,9.99999e-01
7.063029686e-01,3.64407e-01,9.99999e-01,9.99999e-01,3.64407e-01,9.99999e-01
7.098344834e-01,3.71746e-01,9.99999e-01,9.99999e-01,3.71746e-01,9.99999e-01
7.133836558e-01,3.79083e-01,9.99999e-01,9.99999e-01,3.79083e-01,9.99999e-01
7.169505741e-01,3.86417e-01,9.99999e-01,9.99999e-01,3.86417e-01,9.99999e-01
7.205353270e-01,3.93743e-01,9.99999e-01,9.99999e-01,3.93743e-01,9.99999e-01
7.241380036e-01,4.01059e-01,9.99999e-01,9.99999e-01,4.01059e-01,9.99999e-01
7.277586936e-01,4.08362e-01,9.99999e-01,9.99999e-01,4.08362e-01,9.99999e-01
7.313974871e-01,4.15651e-01,9.99999e-01,9.99999e-01,4.15651e-01,9.99999e-01
7.350544745e-01,4.22921e-01,9.99999e-01,9.99999e-01,4.22921e-01,9.99999e-01
7.387297469e-01,4.30172e-01,9.99999e-01,9.99999e-01,4.30172e-01,9.99999e-01
7.424233956e-01,4.37399e-01,9.99999e-01,9.99999e-01,4.37399e-01,9.99999e-01
7.461355126e-01,4.44602e-01,9.99999e-01,9.99999e-01,4.44602e-01,9.99999e-01
7.498661902e-01,4.51778e-01,9.99999e-01,9.99999e-01,4.51778e-01,9.99999e-01
7.536155211e-01,4.58925e-01,9.99999e-01,9.99999e-01,4.58925e-01,9.99999e-01
7.573835987e-01,4.66039e-01,9.99999e-01,9.99999e-01,4.66039e-01,9.99999e-01
7.611705167e-01,4.73121e-01,9.99999e-01,9.99999e-01,4.73121e-01,9.99999e-01
7.649763693e-01,4.80167e-01,9.99999e-01,9.99999e-01,4.80167e-01,9.99999e-01
7.688012511e-01,4.87176e-01,9.99999e-01,9.99999e-01,4.87176e-01,9.99999e-01
7.726452574e-01,4.94145e-01,9.99999e-01,9.99999e-01,4.94145e-01,9.99999e-01
7.765084837e-01,5.01074e-01,9.99999e-01,9.99999e-01,5.01074e-01,9.99999e-01
7.803910261e-01,4.91106e-01,9.99999e-01,9.66821e-01,5.07960e-01,9.99999e-01
7.842929812e-01,4.46323e-01,9.99999e-01,8.66979e-01,5.14802e-01,9.99999e-01
7.882144461e-01,4.47249e-01,9.99999e-01,8.57458e-01,5.21598e-01,9.99999e-01
7.921555184e-01,4.83078e-01,9.99999e-01,9.14319e-01,5.28347e-01,9.99999e-01
7.961162960e-01,5.04109e-01,9.99999e-01,9.42176e-01,5.35047e-01,9.99999e-01
8.000968774e-01,5.24462e-01,9.99999e-01,9.68182e-01,5.41698e-01,9.99999e-01
8.040973618e-01,5.39222e-01,9.99999e-01,9.83447e-01,5.48297e-01,9.99999e-01
8.081178486e-01,5.50596e-01,9.99999e-01,9.92343e-01,5.54844e-01,9.99999e-01
8.121584379e-01,5.60018e-01,9.99999e-01,9.97648e-01,5.61338e-01,9.99999e-01
8.162192301e-01,5.67482e-01,9.99999e-01,9.99480e-01,5.67777e-01,9.99999e-01
8.203003262e-01,5.74156e-01,9.99999e-01,9.99992e-01,5.74160e-01,9.99999e-01
8.244018279e-01,5.80488e-01,9.99999e-01,9.99999e-01,5.80488e-01,9.99999e-01
8.285238370e-01,5.86757e-01,9.99999e-01,9.99999e-01,5.86757e-01,9.99999e-01
8.326664562e-01,5.92969e-01,9.99999e-01,9.99999e-01,5.92969e-01,9.99999e-01
8.368297885e-01,5.99122e-01,9.99999e-01,9.99999e-01,5.99122e-01,9.99999e-01
8.410139374e-01,6.05215e-01,9.99999e-01,9.99999e-01,6.05215e-01,9.99999e-01
8.452190071e-01,6.11248e-01,9.99999e-01,9.99999e-01,6.11248e-01,9.99999e-01
8.494451021e-01,6.17221e-01,9.99999e-01,9.99999e-01,6.17221e-01,9.99999e-01
8.536923276e-01,6.23132e-01,9.99999e-01,9.99999e-01,6.23132e-01,9.99999e-01
8.579607893e-01,6.28981e-01,9.99999e-01,9.99999e-01,6.28981e-01,9.99999e-01
8.622505932e-01,6.34768e-01,9.99999e-01,9.99999e-01,6.34768e-01,9.99999e-01
8.665618462e-01,5.92965e-01,9.99999e-01,9.25795e-01,6.40492e-01,9.99999e-01
8.708946554e-01,4.48668e-01,9.99999e-01,6.94367e-01,6.46153e-01,9.99999e-01
8.752491287e-01,4.86455e-01,9.99999e-01,7.46381e-01,6.51751e-01,9.99999e-01
8.796253743e-01,5.59903e-01,9.99999e-01,8.51840e-01,6.57286e-01,9.99999e-01
8.840235012e-01,6.09901e-01,9.99999e-01,9.20248e-01,6.62756e-01,9.99999e-01
8.884436187e-01,6.46720e-01,9.99999e-01,9.67906e-01,6.68163e-01,9.99999e-01
8.928858368e-01,6.64651e-01,9.99999e-01,9.86851e-01,6.73506e-01,9.99999e-01
8.973502660e-01,6.76618e-01,9.99999e-01,9.96806e-01,6.78785e-01,9.99999e-01
9.018370173e-01,6.83759e-01,9.99999e-01,9.99648e-01,6.84000e-01,9.99999e-01
9.063462024e-01,6.82773e-01,9.99999e-01,9.90746e-01,6.89150e-01,9.99999e-01
9.108779334e-01,6.79859e-01,9.99999e-01,9.79288e-01,6.94237e-01,9.99999e-01
9.154323231e-01,6.95864e-01,9.99999e-01,9.95143e-01,6.99259e-01,9.99999e-01
9.200094847e-01,6.54833e-01,9.99999e-01,9.29872e-01,7.04218e-01,9.99999e-01
9.246095321e-01,6.39992e-01,9.99999e-01,9.02524e-01,7.09113e-01,9.99999e-01
9.292325798e-01,6.58317e-01,9.99999e-01,9.22084e-01,7.13944e-01,9.99999e-01
9.338787427e-01,6.64964e-01,9.99999e-01,9.25216e-01,7.18711e-01,9.99999e-01
9.385481364e-01,6.83248e-01,9.99999e-01,9.44474e-01,7.23416e-01,9.99999e-01
9.432408771e-01,7.03094e-01,9.99999e-01,9.65713e-01,7.28057e-01,9.99999e-01
9.479570815e-01,7.19618e-01,9.99999e-01,9.82232e-01,7.32635e-01,9.99999e-01
9.526968669e-01,7.30819e-01,9.99999e-01,9.91409e-01,7.37151e-01,9.99999e-01
9.574603512e-01,7.38877e-01,9.99999e-01,9.96320e-01,7.41605e-01,9.99999e-01
9.622476530e-01,7.45141e-01,9.99999e-01,9.98852e-01,7.45997e-01,9.99999e-01
9.670588912e-01,7.50070e-01,9.99999e-01,9.99656e-01,7.50327e-01,9.99999e-01
9.718941857e-01,7.54579e-01,9.99999e-01,9.99975e-01,7.54597e-01,9.99999e-01
9.767536566e-01,7.58805e-01,9.99999e-01,9.99999e-01,7.58805e-01,9.99999e-01
9.816374249e-01,7.62954e-01,9.99999e-01,9.99999e-01,7.62954e-01,9.99999e-01
9.865456120e-01,7.67042e-01,9.99999e-01,9.99999e-01,7.67042e-01,9.99999e-01
9.914783401e-01,7.71071e-01,9.99999e-01,9.99999e-01,7.71071e-01,9.99999e-01
9.964357318e-01,7.75040e-01,9.99999e-01,9.99999e-01,7.75040e-01,9.99999e-01
1.001417910e+00,7.78951e-01,9.99999e-01,9.99999e-01,7.78951e-01,9.99999e-01
1.006425000e+00,7.82805e-01,9.99999e-01,9.99999e-01,7.82805e-01,9.99999e-01
1.011457125e+00,7.86600e-01,9.99999e-01,9.99999e-01,7.86600e-01,9.99999e-01
1.016514411e+00,7.90338e-01,9.99999e-01,9.99999e-01,7.90338e-01,9.99999e-01
1.021596983e+00,7.93977e-01,9.99999e-01,9.99945e-01,7.94020e-01,9.99999e-01
1.026704968e+00,7.94753e-01,9.99999e-01,9.96372e-01,7.97646e-01,9.99999e-01
1.031838492e+00,7.64913e-01,9.99999e-01,9.54689e-01,8.01216e-01,9.99999e-01
1.036997685e+00,1.27781e-01,9.99999e-01,1.58788e-01,8.04731e-01,9.99999e-01
1.042182673e+00,1.07940e-01,9.99999e-01,1.33557e-01,8.08192e-01,9.99999e-01
1.047393587e+00,1.23055e-01,9.99999e-01,1.51620e-01,8.11598e-01,9.99999e-01
1.052630555e+00,4.05146e-03,9.99999e-01,4.97140e-03,8.14952e-01,9.99999e-01
1.057893707e+00,1.02160e-02,9.99999e-01,1.24852e-02,8.18252e-01,9.99999e-01
1.063183176e+00,3.24684e-02,9.99999e-01,3.95232e-02,8.21501e-01,9.99999e-01
1.068499092e+00,8.74590e-02,9.99999e-01,1.06050e-01,8.24697e-01,9.99999e-01
1.073841587e+00,2.01221e-01,9.99999e-01,2.43066e-01,8.27843e-01,9.99999e-01
1.079210795e+00,3.39299e-01,9.99999e-01,4.08332e-01,8.30938e-01,9.99999e-01
1.084606849e+00,5.09880e-01,9.99999e-01,6.11379e-01,8.33983e-01,9.99999e-01
1.090029883e+00,6.48191e-01,9.99999e-01,7.74441e-01,8.36979e-01,9.99999e-01
1.095480033e+00,7.40658e-01,9.99999e-01,8.81812e-01,8.39927e-01,9.99999e-01
1.100957433e+00,7.93261e-01,9.99999e-01,9.41191e-01,8.42826e-01,9.99999e-01
1.106462220e+00,8.24775e-01,9.99999e-01,9.75282e-01,8.45677e-01,9.99999e-01
1.111994531e+00,8.40648e-01,9.99999e-01,9.90766e-01,8.48482e-01,9.99999e-01
1.117554504e+00,8.49323e-01,9.99999e-01,9.97747e-01,8.51240e-01,9.99999e-01
1.123142276e+00,8.53827e-01,9.99999e-01,9.99852e-01,8.53952e-01,9.99999e-01
1.128757988e+00,8.56619e-01,9.99999e-01,9.99999e-01,8.56619e-01,9.99999e-01
1.134401778e+00,8.59242e-01,9.99999e-01,9.99999e-01,8.59242e-01,9.99999e-01
1.140073787e+00,8.61821e-01,9.99999e-01,9.99999e-01,8.61821e-01,9.99999e-01
1.145774156e+00,8.64356e-01,9.99999e-01,9.99999e-01,8.64356e-01,9.99999e-01
1.151503026e+00,8.66848e-01,9.99999e-01,9.99999e-01,8.66848e-01,9.99999e-01
1.157260541e+00,8.69298e-01,9.99999e-01,9.99999e-01,8.69298e-01,9.99999e-01
1.163046844e+00,8.71707e-01,9.99999e-01,9.99999e-01,8.71707e-01,9.99999e-01
1.168862078e+00,8.74074e-01,9.99999e-01,9.99999e-01,8.74074e-01,9.99999e-01
1.174706389e+00,8.76401e-01,9.99999e-01,9.99999e-01,8.76401e-01,9.99999e-01
1.180579921e+00,8.78688e-01,9.99999e-01,9.99999e-01,8.78688e-01,9.99999e-01
1.186482820e+00,8.80928e-01,9.99999e-01,9.99991e-01,8.80935e-01,9.99999e-01
1.192415234e+00,8.71709e-01,9.99999e-01,9.87051e-01,8.83144e-01,9.99999e-01
1.198377311e+00,4.97591e-01,9.99999e-01,5.62050e-01,8.85314e-01,9.99999e-01
1.204369197e+00,9.23807e-11,9.99999e-01,1.04097e-10,8.87447e-01,9.99999e-01
1.210391043e+00,8.14374e-39,9.99999e-01,9.15497e-39,8.89542e-01,9.99999e-01
1.216442998e+00,8.45677e-34,9.99999e-01,9.48491e-34,8.91601e-01,9.99999e-01
1.222525213e+00,2.58093e-33,9.99999e-01,2.88815e-33,8.93624e-01,9.99999e-01
1.228637839e+00,8.41220e-26,9.99999e-01,9.39268e-26,8.95612e-01,9.99999e-01
1.234781029e+00,8.45926e-17,9.99999e-01,9.42468e-17,8.97564e-01,9.99999e-01
1.240954934e+00,2.43201e-11,9.99999e-01,2.70378e-11,8.99482e-01,9.99999e-01
1.247159708e+00,2.21219e-06,9.99999e-01,2.45426e-06,9.01366e-01,9.99999e-01
1.253395507e+00,4.23588e-04,9.99999e-01,4.68977e-04,9.03217e-01,9.99999e-01
1.259662485e+00,1.11789e-02,9.99999e-01,1.23519e-02,9.05035e-01,9.99999e-01
1.265960797e+00,7.16799e-02,9.99999e-01,7.90452e-02,9.06820e-01,9.99999e-01
1.272290601e+00,3.10832e-01,9.99999e-01,3.42109e-01,9.08574e-01,9.99999e-01
1.278652054e+00,2.63580e-01,9.99999e-01,2.89554e-01,9.10296e-01,9.99999e-01
1.285045314e+00,5.70109e-03,9.99999e-01,6.25128e-03,9.11988e-01,9.99999e-01
1.291470541e+00,3.05135e-05,9.99999e-01,3.33973e-05,9.13649e-01,9.99999e-01
1.297927893e+00,1.05296e-02,9.99999e-01,1.15042e-02,9.15280e-01,9.99999e-01
1.304417533e+00,1.29825e-01,9.99999e-01,1.41593e-01,9.16882e-01,9.99999e-01
1.310939621e+00,2.13646e-02,9.99999e-01,2.32614e-02,9.18455e-01,9.99999e-01
1.317494319e+00,6.92193e-14,9.99999e-01,7.52383e-14,9.19999e-01,9.99999e-01
1.324081790e+00,1.31794e-09,9.99999e-01,1.43019e-09,9.21516e-01,9.99999e-01
1.330702199e+00,1.10358e-05,9.99999e-01,1.19564e-05,9.23005e-01,9.99999e-01
1.337355710e+00,1.36800e-05,9.99999e-01,1.47977e-05,9.24467e-01,9.99999e-01
1.344042489e+00,4.00091e-06,9.99999e-01,4.32109e-06,9.25902e-01,9.99999e-01
1.350762701e+00,7.09136e-06,9.99999e-01,7.64722e-06,9.27311e-01,9.99999e-01
1.357516515e+00,4.88084e-04,9.99999e-01,5.25559e-04,9.28694e-01,9.99999e-01
1.364304097e+00,6.85362e-03,9.99999e-01,7.36906e-03,9.30052e-01,9.99999e-01
1.371125618e+00,7.20778e-02,9.99999e-01,7.73876e-02,9.31385e-01,9.99999e-01
1.377981246e+00,1.14223e-01,9.99999e-01,1.22465e-01,9.32694e-01,9.99999e-01
1.384871152e+00,2.75397e-01,9.99999e-01,2.94864e-01,9.33979e-01,9.99999e-01
1.391795508e+00,3.02736e-01,9.99999e-01,3.23699e-01,9.35239e-01,9.99999e-01
1.398754485e+00,4.66729e-01,9.99999e-01,4.98388e-01,9.36477e-01,9.99999e-01
1.405748258e+00,5.61855e-01,9.99999e-01,5.99189e-01,9.37692e-01,9.99999e-01
1.412776999e+00,6.79453e-01,9.99999e-01,7.23681e-01,9.38884e-01,9.99999e-01
1.419840884e+00,6.08848e-01,9.99999e-01,6.47672e-01,9.40054e-01,9.99999e-01
1.426940089e+00,5.76121e-02,9.99999e-01,6.12111e-02,9.41203e-01,9.99999e-01
1.434074789e+00,0.00000e+00,9.99999e-01,0.00000e+00,9.42330e-01,9.99999e-01
1.441245163e+00,0.00000e+00,9.99999e-01,0.00000e+00,9.43436e-01,9.99999e-01
1.448451389e+00,0.00000e+00,9.99999e-01,0.00000e+00,9.44522e-01,9.99999e-01
1.455693646e+00,7.64114e-311,9.99999e-01,8.08083e-311,9.45587e-01,9.99999e-01
1.462972114e+00,1.13251e-150,9.99999e-01,1.19635e-150,9.46633e-01,9.99999e-01
1.470286975e+00,2.53673e-63,9.99999e-01,2.67684e-63,9.47659e-01,9.99999e-01
