#,Wave/freq,Total,O2,CO2,Rayleigh,CIA
4.000000000e-01,1.60689e-02,9.99999e-01,9.99999e-01,1.60689e-02,9.99999e-01
4.020000000e-01,1.74365e-02,9.99999e-01,9.99999e-01,1.74365e-02,9.99999e-01
4.040100000e-01,1.88884e-02,9.99999e-01,9.99999e-01,1.88884e-02,9.99999e-01
4.060300500e-01,2.04288e-02,9.99999e-01,9.99999e-01,2.04288e-02,9.99999e-01
4.080602003e-01,2.20608e-02,9.99999e-01,9.99999e-01,2.20608e-02,9.99999e-01
4.101005013e-01,2.37869e-02,9.99999e-01,9.99999e-01,2.37869e-02,9.99999e-01
4.121510038e-01,2.56100e-02,9.99999e-01,9.99999e-01,2.56100e-02,9.99999e-01
4.142117588e-01,2.75326e-02,9.99999e-01,9.99999e-01,2.75326e-02,9.99999e-01
4.162828176e-01,2.95573e-02,9.99999e-01,9.99999e-01,2.95573e-02,9.99999e-01
4.183642317e-01,3.16864e-02,9.99999e-01,9.99999e-01,3.16864e-02,9.99999e-01
4.204560528e-01,3.39222e-02,9.99999e-01,9.99999e-01,3.39222e-02,9.99999e-01
4.225583331e-01,3.62669e-02,9.99999e-01,9.99999e-01,3.62669e-02,9.99999e-01
4.246711247e-01,3.87225e-02,9.99999e-01,9.99999e-01,3.87225e-02,9.99999e-01
4.267944804e-01,4.12910e-02,9.99999e-01,9.99999e-01,4.12910e-02,9.99999e-01
4.289284528e-01,4.39739e-02,9.99999e-01,9.99999e-01,4.39739e-02,9.99999e-01
4.310730950e-01,4.67730e-02,9.99999e-01,9.99999e-01,4.67730e-02,9.99999e-01
4.332284605e-01,4.96897e-02,9.99999e-01,9.99999e-01,4.96897e-02,9.99999e-01
4.353946028e-01,5.27252e-02,9.99999e-01,9.99999e-01,5.27252e-02,9.99999e-01
4.375715758e-01,5.58807e-02,9.99999e-01,9.99999e-01,5.58807e-02,9.99999e-01
4.397594337e-01,5.91570e-02,9.99999e-01,9.99999e-01,5.91570e-02,9.99999e-01
4.419582309e-01,6.25550e-02,9.99999e-01,9.99999e-01,6.25550e-02,9.99999e-01
4.441680220e-01,6.60753e-02,9.99999e-01,9.99999e-01,6.60753e-02,9.99999e-01
4.463888621e-01,6.97182e-02,9.99999e-01,9.99999e-01,6.97182e-02,9.99999e-01
4.486208064e-01,7.34840e-02,9.99999e-01,9.99999e-01,7.34840e-02,9.99999e-01
4.508639105e-01,7.73728e-02,9.99999e-01,9.99999e-01,7.73728e-02,9.99999e-01
4.531182300e-01,8.13845e-02,9.99999e-01,9.99999e-01,8.13845e-02,9.99999e-01
4.553838212e-01,8.55187e-02,9.99999e-01,9.99999e-01,8.55187e-02,9.99999e-01
4.576607403e-01,8.97750e-02,9.99999e-01,9.99999e-01,8.97750e-02,9.99999e-01
4.599490440e-01,9.41528e-02,9.99999e-01,9.99999e-01,9.41528e-02,9.99999e-01
4.622487892e-01,9.86513e-02,9.99999e-01,9.99999e-01,9.86513e-02,9.99999e-01
4.645600332e-01,1.03269e-01,9.99999e-01,9.99999e-01,1.03269e-01,9.99999e-01
4.668828333e-01,1.08006e-01,9.99999e-01,9.99999e-01,1.08006e-01,9.99999e-01
4.692172475e-01,1.12860e-01,9.99999e-01,9.99999e-01,1.12860e-01,9.99999e-01
4.715633337e-01,1.17830e-01,9.99999e-01,9.99999e-01,1.17830e-01,9.99999e-01
4.739211504e-01,1.22913e-01,9.99999e-01,9.99999e-01,1.22913e-01,9.99999e-01
4.762907561e-01,1.28110e-01,9.99999e-01,9.99999e-01,1.28110e-01,9.99999e-01
4.786722099e-01,1.33417e-01,9.99999e-01,9.99999e-01,1.33417e-01,9.99999e-01
4.810655710e-01,1.38832e-01,9.99999e-01,9.99999e-01,1.38832e-01,9.99999e-01
4.834708988e-01,1.44353e-01,9.99999e-01,9.99999e-01,1.44353e-01,9.99999e-01
4.858882533e-01,1.49979e-01,9.99999e-01,9.99999e-01,1.49979e-01,9.99999e-01
4.883176946e-01,1.55706e-01,9.99999e-01,9.99999e-01,1.55706e-01,9.99999e-01
4.907592831e-01,1.61532e-01,9.99999e-01,9.99999e-01,1.61532e-01,9.99999e-01
4.932130795e-01,1.67455e-01,9.99999e-01,9.99999e-01,1.67455e-01,9.99999e-01
4.956791449e-01,1.73472e-01,9.99999e-01,9.99999e-01,1.73472e-01,9.99999e-01
4.981575406e-01,1.79579e-01,9.99999e-01,9.99999e-01,1.79579e-01,9.99999e-01
5.006483283e-01,1.85774e-01,9.99999e-01,9.99999e-01,1.85774e-01,9.99999e-01
5.031515699e-01,1.92055e-01,9.99999e-01,9.99999e-01,1.92055e-01,9.99999e-01
5.056673278e-01,1.98417e-01,9.99999e-01,9.99999e-01,1.98417e-01,9.99999e-01
5.081956644e-01,2.04858e-01,9.99999e-01,9.99999e-01,2.04858e-01,9.99999e-01
5.107366428e-01,2.11375e-01,9.99999e-01,9.99999e-01,2.11375e-01,9.99999e-01
5.132903260e-01,2.17965e-01,9.99999e-01,9.99999e-01,2.17965e-01,9.99999e-01
5.158567776e-01,2.24623e-01,9.99999e-01,9.99999e-01,2.24623e-01,9.99999e-01
5.184360615e-01,2.31348e-01,9.99999e-01,9.99999e-01,2.31348e-01,9.99999e-01
5.210282418e-01,2.38135e-01,9.99999e-01,9.99999e-01,2.38135e-01,9.99999e-01
5.236333830e-01,2.44981e-01,9.99999e-01,9.99999e-01,2.44981e-01,9.99999e-01
5.262515499e-01,2.51882e-01,9.99999e-01,9.99999e-01,2.51882e-01,9.99999e-01
5.288828077e-01,2.58837e-01,9.99999e-01,9.99999e-01,2.58837e-01,9.99999e-01
5.315272217e-01,2.65840e-01,9.99999e-01,9.99999e-01,2.65840e-01,9.99999e-01
5.341848578e-01,2.72888e-01,9.99999e-01,9.99999e-01,2.72888e-01,9.99999e-01
5.368557821e-01,2.79979e-01,9.99999e-01,9.99999e-01,2.79979e-01,9.99999e-01
5.395400610e-01,2.87109e-01,9.99999e-01,9.99999e-01,2.87109e-01,9.99999e-01
5.422377613e-01,2.94274e-01,9.99999e-01,9.99999e-01,2.94274e-01,9.99999e-01
5.449489501e-01,3.01470e-01,9.99999e-01,9.99999e-01,3.01470e-01,9.99999e-01
5.476736949e-01,3.08696e-01,9.99999e-01,9.99999e-01,3.08696e-01,9.99999e-01
5.504120634e-01,3.15947e-01,9.99999e-01,9.99999e-01,3.15947e-01,9.99999e-01
5.531641237e-01,3.23220e-01,9.99999e-01,9.99999e-01,3.23220e-01,9.99999e-01
5.559299443e-01,3.30511e-01,9.99999e-01,9.99999e-01,3.30511e-01,9.99999e-01
5.587095940e-01,3.37819e-01,9.99999e-01,9.99999e-01,3.37819e-01,9.99999e-01
5.615031420e-01,3.45138e-01,9.99999e-01,9.99999e-01,3.45138e-01,9.99999e-01
5.643106577e-01,3.52467e-01,9.99999e-01,9.99999e-01,3.52467e-01,9.99999e-01
5.671322110e-01,3.59803e-01,9.99999e-01,9.99999e-01,3.59803e-01,9.99999e-01
5.699678720e-01,3.67141e-01,9.99999e-01,9.99999e-01,3.67141e-01,9.99999e-01
5.728177114e-01,3.74480e-01,9.99999e-01,9.99999e-01,3.74480e-01,9.99999e-01
5.756818000e-01,3.81817e-01,9.99999e-01,9.99999e-01,3.81817e-01,9.99999e-01
5.785602090e-01,3.89147e-01,9.99999e-01,9.99999e-01,3.89147e-01,9.99999e-01
5.814530100e-01,3.96470e-01,9.99999e-01,9.99999e-01,3.96470e-01,9.99999e-01
5.843602750e-01,4.03782e-01,9.99999e-01,9.99999e-01,4.03782e-01,9.99999e-01
5.872820764e-01,4.11080e-01,9.99999e-01,9.99999e-01,4.11080e-01,9.99999e-01
5.902184868e-01,4.18362e-01,9.99999e-01,9.99999e-01,4.18362e-01,9.99999e-01
5.931695792e-01,4.25625e-01,9.99999e-01,9.99999e-01,4.25625e-01,9.99999e-01
5.961354271e-01,4.32868e-01,9.99999e-01,9.99999e-01,4.32868e-01,9.99999e-01
5.991161043e-01,4.40087e-01,9.99999e-01,9.99999e-01,4.40087e-01,9.99999e-01
6.021116848e-01,4.47280e-01,9.99999e-01,9.99999e-01,4.47280e-01,9.99999e-01
6.051222432e-01,4.54445e-01,9.99999e-01,9.99999e-01,4.54445e-01,9.99999e-01
6.081478544e-01,4.61580e-01,9.99999e-01,9.99999e-01,4.61580e-01,9.99999e-01
6.111885937e-01,4.68682e-01,9.99999e-01,9.99999e-01,4.68682e-01,9.99999e-01
6.142445367e-01,4.75751e-01,9.99999e-01,9.99999e-01,4.75751e-01,9.99999e-01
6.173157594e-01,4.82783e-01,9.99999e-01,9.99999e-01,4.82783e-01,9.99999e-01
6.204023382e-01,4.89777e-01,9.99999e-01,9.99999e-01,4.89777e-01,9.99999e-01
6.235043498e-01,4.96732e-01,9.99999e-01,9.99999e-01,4.96732e-01,9.99999e-01
6.266218716e-01,5.03645e-01,9.99999e-01,9.99999e-01,5.03645e-01,9.99999e-01
6.297549810e-01,5.10515e-01,9.99999e-01,9.99999e-01,5.10515e-01,9.99999e-01
6.329037559e-01,5.17339e-01,9.99999e-01,9.99999e-01,5.17339e-01,9.99999e-01
6.360682746e-01,5.24118e-01,9.99999e-01,9.99999e-01,5.24118e-01,9.99999e-01
6.392486160e-01,5.30849e-01,9.99999e-01,9.99999e-01,5.30849e-01,9.99999e-01
6.424448591e-01,5.37531e-01,9.99999e-01,9.99999e-01,5.37531e-01,9.99999e-01
6.456570834e-01,5.44163e-01,9.99999e-01,9.99999e-01,5.44163e-01,9.99999e-01
6.488853688e-01,5.50743e-01,9.99999e-01,9.99999e-01,5.50743e-01,9.99999e-01
6.521297956e-01,5.57270e-01,9.99999e-01,9.99999e-01,5.57270e-01,9.99999e-01
6.553904446e-01,5.63744e-01,9.99999e-01,9.99999e-01,5.63744e-01,9.99999e-01
6.586673968e-01,5.70162e-01,9.99999e-01,9.99999e-01,5.70162e-01,9.99999e-01
6.619607338e-01,5.76525e-01,9.99999e-01,9.99999e-01,5.76525e-01,9.99999e-01
6.652705375e-01,5.82831e-01,9.99999e-01,9.99999e-01,5.82831e-01,9.99999e-01
6.685968902e-01,5.89079e-01,9.99999e-01,9.99999e-01,5.89079e-01,9.99999e-01
6.719398746e-01,5.95269e-01,9.99999e-01,9.99999e-01,5.95269e-01,9.99999e-01
6.752995740e-01,6.01400e-01,9.99999e-01,9.99999e-01,6.01400e-01,9.99999e-01
6.786760719e-01,6.07471e-01,9.99999e-01,9.99999e-01,6.07471e-01,9.99999e-01
6.820694522e-01,6.13481e-01,9.99999e-01,9.99999e-01,6.13481e-01,9.99999e-01
6.854797995e-01,6.19430e-01,9.99999e-01,9.99999e-01,6.19430e-01,9.99999e-01
6.889071985e-01,6.25318e-01,9.99999e-01,9.99999e-01,6.25318e-01,9.99999e-01
6.923517345e-01,6.31144e-01,9.99999e-01,9.99999e-01,6.31144e-01,9.99999e-01
6.958134932e-01,6.36908e-01,9.99999e-01,9.99999e-01,6.36908e-01,9.99999e-01
6.992925606e-01,6.42609e-01,9.99999e-01,9.99999e-01,6.42609e-01,9.99999e-01
7.027890234e-01,6.48246e-01,9.99999e-01,9.99999e-01,6.48246e-01,9.99999e-01
7.063029686e-01,6.53821e-01,9.99999e-01,9.99999e-01,6.53821e-01,9.99999e-01
7.098344834e-01,6.59332e-01,9.99999e-01,9.99999e-01,6.59332e-01,9.99999e-01
7.133836558e-01,6.64779e-01,9.99999e-01,9.99999e-01,6.64779e-01,9.99999e-01
7.169505741e-01,6.70162e-01,9.99999e-01,9.99999e-01,6.70162e-01,9.99999e-01
7.205353270e-01,6.75481e-01,9.99999e-01,9.99999e-01,6.75481e-01,9.99999e-01
7.241380036e-01,6.80736e-01,9.99999e-01,9.99999e-01,6.80736e-01,9.99999e-01
7.277586936e-01,6.85926e-01,9.99999e-01,9.99999e-01,6.85926e-01,9.99999e-01
7.313974871e-01,6.91053e-01,9.99999e-01,9.99999e-01,6.91053e-01,9.99999e-01
7.350544745e-01,6.96116e-01,9.99999e-01,9.99999e-01,6.96116e-01,9.99999e-01
7.387297469e-01,7.01114e-01,9.99999e-01,9.99999e-01,7.01114e-01,9.99999e-01
7.424233956e-01,7.06049e-01,9.99999e-01,9.99999e-01,7.06049e-01,9.99999e-01
7.461355126e-01,7.10920e-01,9.99999e-01,9.99999e-01,7.10920e-01,9.99999e-01
7.498661902e-01,7.15728e-01,9.99999e-01,9.99999e-01,7.15728e-01,9.99999e-01
7.536155211e-01,7.20472e-01,9.99999e-01,9.99999e-01,7.20472e-01,9.99999e-01
7.573835987e-01,7.25152e-01,9.99999e-01,9.99999e-01,7.25152e-01,9.99999e-01
7.611705167e-01,7.29770e-01,9.99999e-01,9.99999e-01,7.29770e-01,9.99999e-01
7.649763693e-01,7.34325e-01,9.99999e-01,9.99999e-01,7.34325e-01,9.99999e-01
7.688012511e-01,7.38818e-01,9.99999e-01,9.99999e-01,7.38818e-01,9.99999e-01
7.726452574e-01,7.43249e-01,9.99999e-01,9.99999e-01,7.43249e-01,9.99999e-01
7.765084837e-01,7.47618e-01,9.99999e-01,9.99999e-01,7.47618e-01,9.99999e-01
7.803910261e-01,7.41535e-01,9.99999e-01,9.86180e-01,7.51925e-01,9.99999e-01
7.842929812e-01,7.10885e-01,9.99999e-01,9.40110e-01,7.56172e-01,9.99999e-01
7.882144461e-01,7.11796e-01,9.99999e-01,9.36131e-01,7.60358e-01,9.99999e-01
7.921555184e-01,7.36154e-01,9.99999e-01,9.62941e-01,7.64484e-01,9.99999e-01
7.961162960e-01,7.49298e-01,9.99999e-01,9.74949e-01,7.68550e-01,9.99999e-01
8.000968774e-01,7.62030e-01,9.99999e-01,9.86374e-01,7.72557e-01,9.99999e-01
8.040973618e-01,7.70989e-01,9.99999e-01,9.92896e-01,7.76505e-01,9.99999e-01
8.081178486e-01,7.77856e-01,9.99999e-01,9.96747e-01,7.80394e-01,9.99999e-01
8.121584379e-01,7.83431e-01,9.99999e-01,9.98986e-01,7.84226e-01,9.99999e-01
8.162192301e-01,7.87823e-01,9.99999e-01,9.99775e-01,7.88000e-01,9.99999e-01
8.203003262e-01,7.91714e-01,9.99999e-01,9.99995e-01,7.91717e-01,9.99999e-01
8.244018279e-01,7.95378e-01,9.99999e-01,9.99999e-01,7.95378e-01,9.99999e-01
8.285238370e-01,7.98983e-01,9.99999e-01,9.99999e-01,7.98983e-01,9.99999e-01
8.326664562e-01,8.02532e-01,9.99999e-01,9.99999e-01,8.02532e-01,9.99999e-01
8.368297885e-01,8.06027e-01,9.99999e-01,9.99999e-01,8.06027e-01,9.99999e-01
8.410139374e-01,8.09467e-01,9.99999e-01,9.99999e-01,8.09467e-01,9.99999e-01
8.452190071e-01,8.12854e-01,9.99999e-01,9.99999e-01,8.12854e-01,9.99999e-01
8.494451021e-01,8.16188e-01,9.99999e-01,9.99999e-01,8.16188e-01,9.99999e-01
8.536923276e-01,8.19469e-01,9.99999e-01,9.99999e-01,8.19469e-01,9.99999e-01
8.579607893e-01,8.22698e-01,9.99999e-01,9.99999e-01,8.22698e-01,9.99999e-01
8.622505932e-01,8.25875e-01,9.99999e-01,9.99999e-01,8.25875e-01,9.99999e-01
8.665618462e-01,7.97326e-01,9.99999e-01,9.61789e-01,8.29002e-01,9.99999e-01
8.708946554e-01,7.09675e-01,9.99999e-01,8.52893e-01,8.32079e-01,9.99999e-01
8.752491287e-01,7.35801e-01,9.99999e-01,8.81087e-01,8.35106e-01,9.99999e-01
8.796253743e-01,7.82425e-01,9.99999e-01,9.33588e-01,8.38083e-01,9.99999e-01
8.840235012e-01,8.11764e-01,9.99999e-01,9.65222e-01,8.41012e-01,9.99999e-01
8.884436187e-01,8.32184e-01,9.99999e-01,9.86124e-01,8.43894e-01,9.99999e-01
8.928858368e-01,8.41966e-01,9.99999e-01,9.94376e-01,8.46728e-01,9.99999e-01
8.973502660e-01,8.48346e-01,9.99999e-01,9.98623e-01,8.49515e-01,9.99999e-01
9.018370173e-01,8.52126e-01,9.99999e-01,9.99847e-01,8.52256e-01,9.99999e-01
9.063462024e-01,8.51704e-01,9.99999e-01,9.96201e-01,8.54951e-01,9.99999e-01
9.108779334e-01,8.50012e-01,9.99999e-01,9.91149e-01,8.57602e-01,9.99999e-01
9.154323231e-01,8.58400e-01,9.99999e-01,9.97898e-01,8.60208e-01,9.99999e-01
9.200094847e-01,8.36321e-01,9.99999e-01,9.69343e-01,8.62770e-01,9.99999e-01
9.246095321e-01,8.28405e-01,9.99999e-01,9.57372e-01,8.65290e-01,9.99999e-01
9.292325798e-01,8.38754e-01,9.99999e-01,9.66566e-01,8.67766e-01,9.99999e-01
9.338787427e-01,8.41907e-01,9.99999e-01,9.67485e-01,8.70201e-01,9.99999e-01
9.385481364e-01,8.51720e-01,9.99999e-01,9.76078e-01,8.72594e-01,9.99999e-01
9.432408771e-01,8.62056e-01,9.99999e-01,9.85267e-01,8.74946e-01,9.99999e-01
9.479570815e-01,8.70624e-01,9.99999e-01,9.92438e-01,8.77258e-01,9.99999e-01
9.526968669e-01,8.76311e-01,9.99999e-01,9.96340e-01,8.79530e-01,9.99999e-01
9.574603512e-01,8.80381e-01,9.99999e-01,9.98433e-01,8.81763e-01,9.99999e-01
9.622476530e-01,8.83525e-01,9.99999e-01,9.99510e-01,8.83957e-01,9.99999e-01
9.670588912e-01,8.85983e-01,9.99999e-01,9.99852e-01,8.86113e-01,9.99999e-01
9.718941857e-01,8.88223e-01,9.99999e-01,9.99988e-01,8.88232e-01,9.99999e-01
9.767536566e-01,8.90314e-01,9.99999e-01,9.99999e-01,8.90314e-01,9.99999e-01
9.816374249e-01,8.92359e-01,9.99999e-01,9.99999e-01,8.92359e-01,9.99999e-01
9.865456120e-01,8.94369e-01,9.99999e-01,9.99999e-01,8.94369e-01,9.99999e-01
9.914783401e-01,8.96343e-01,9.99999e-01,9.99999e-01,8.96343e-01,9.99999e-01
9.964357318e-01,8.98283e-01,9.99999e-01,9.99999e-01,8.98283e-01,9.99999e-01
1.001417910e+00,9.00188e-01,9.99999e-01,9.99999e-01,9.00188e-01,9.99999e-01
1.006425000e+00,9.02060e-01,9.99999e-01,9.99999e-01,9.02060e-01,9.99999e-01
1.011457125e+00,9.03898e-01,9.99999e-01,9.99999e-01,9.03898e-01,9.99999e-01
1.016514411e+00,9.05704e-01,9.99999e-01,9.99999e-01,9.05704e-01,9.99999e-01
1.021596983e+00,9.07461e-01,9.99999e-01,9.99981e-01,9.07478e-01,9.99999e-01
1.026704968e+00,9.07882e-01,9.99999e-01,9.98528e-01,9.09220e-01,9.99999e-01
1.031838492e+00,8.91442e-01,9.99999e-01,9.78605e-01,9.10930e-01,9.99999e-01
1.036997685e+00,3.05113e-01,9.99999e-01,3.34329e-01,9.12610e-01,9.99999e-01
1.042182673e+00,3.73020e-01,9.99999e-01,4.08002e-01,9.14260e-01,9.99999e-01
1.047393587e+00,3.39383e-01,9.99999e-01,3.70553e-01,9.15880e-01,9.99999e-01
1.052630555e+00,6.86464e-02,9.99999e-01,7.48212e-02,9.17471e-01,9.99999e-01
1.057893707e+00,1.20514e-01,9.99999e-01,1.31131e-01,9.19034e-01,9.99999e-01
1.063183176e+00,2.12867e-01,9.99999e-01,2.31234e-01,9.20568e-01,9.99999e-01
1.068499092e+00,3.50709e-01,9.99999e-01,3.80348e-01,9.22074e-01,9.99999e-01
1.073841587e+00,5.01093e-01,9.99999e-01,5.42570e-01,9.23553e-01,9.99999e-01
1.079210795e+00,6.29558e-01,9.99999e-01,6.80599e-01,9.25005e-01,9.99999e-01
1.084606849e+00,7.50961e-01,9.99999e-01,8.10595e-01,9.26430e-01,9.99999e-01
1.090029883e+00,8.32413e-01,9.99999e-01,8.97161e-01,9.27829e-01,9.99999e-01
1.095480033e+00,8.80817e-01,9.99999e-01,9.47927e-01,9.29203e-01,9.99999e-01
1.100957433e+00,9.06930e-01,9.99999e-01,9.74614e-01,9.30552e-01,9.99999e-01
1.106462220e+00,9.22015e-01,9.99999e-01,9.89417e-01,9.31876e-01,9.99999e-01
1.111994531e+00,9.29505e-01,9.99999e-01,9.96066e-01,9.33175e-01,9.99999e-01
1.117554504e+00,9.33549e-01,9.99999e-01,9.99034e-01,9.34451e-01,9.99999e-01
1.123142276e+00,9.35644e-01,9.99999e-01,9.99935e-01,9.35703e-01,9.99999e-01
1.128757988e+00,9.36932e-01,9.99999e-01,9.99999e-01,9.36932e-01,9.99999e-01
1.134401778e+00,9.38139e-01,9.99999e-01,9.99999e-01,9.38139e-01,9.99999e-01
1.140073787e+00,9.39323e-01,9.99999e-01,9.99999e-01,9.39323e-01,9.99999e-01
1.145774156e+00,9.40485e-01,9.99999e-01,9.99999e-01,9.40485e-01,9.99999e-01
1.151503026e+00,9.41625e-01,9.99999e-01,9.99999e-01,9.41625e-01,9.99999e-01
1.157260541e+00,9.42745e-01,9.99999e-01,9.99999e-01,9.42745e-01,9.99999e-01
1.163046844e+00,9.43843e-01,9.99999e-01,9.99999e-01,9.43843e-01,9.99999e-01
1.168862078e+00,9.44921e-01,9.99999e-01,9.99999e-01,9.44921e-01,9.99999e-01
1.174706389e+00,9.45979e-01,9.99999e-01,9.99999e-01,9.45979e-01,9.99999e-01
1.180579921e+00,9.47018e-01,9.99999e-01,9.99999e-01,9.47018e-01,9.99999e-01
1.186482820e+00,9.48035e-01,9.99999e-01,9.99997e-01,9.48036e-01,9.99999e-01
1.192415234e+00,9.44038e-01,9.99999e-01,9.94732e-01,9.49036e-01,9.99999e-01
1.198377311e+00,5.68053e-01,9.99999e-01,5.97939e-01,9.50017e-01,9.99999e-01
1.204369197e+00,7.96622e-06,9.99999e-01,8.37685e-06,9.50980e-01,9.99999e-01
1.210391043e+00,1.23037e-17,9.99999e-01,1.29250e-17,9.51925e-01,9.99999e-01
1.216442998e+00,1.64155e-15,9.99999e-01,1.72278e-15,9.52851e-01,9.99999e-01
1.222525213e+00,2.85605e-15,9.99999e-01,2.99451e-15,9.53761e-01,9.99999e-01
1.228637839e+00,1.04642e-11,9.99999e-01,1.09612e-11,9.54653e-01,9.99999e-01
1.234781029e+00,2.54356e-08,9.99999e-01,2.66193e-08,9.55529e-01,9.99999e-01
1.240954934e+00,1.11323e-05,9.99999e-01,1.16400e-05,9.56388e-01,9.99999e-01
1.247159708e+00,1.68585e-03,9.99999e-01,1.76118e-03,9.57230e-01,9.99999e-01
1.253395507e+00,3.01245e-02,9.99999e-01,3.14433e-02,9.58057e-01,9.99999e-01
1.259662485e+00,1.15134e-01,9.99999e-01,1.20073e-01,9.58868e-01,9.99999e-01
1.265960797e+00,3.08241e-01,9.99999e-01,3.21197e-01,9.59664e-01,9.99999e-01
1.272290601e+00,5.82479e-01,9.99999e-01,6.06468e-01,9.60445e-01,9.99999e-01
1.278652054e+00,5.46340e-01,9.99999e-01,5.68387e-01,9.61211e-01,9.99999e-01
1.285045314e+00,6.07690e-02,9.99999e-01,6.31718e-02,9.61962e-01,9.99999e-01
1.291470541e+00,9.64177e-03,9.99999e-01,1.00153e-02,9.62699e-01,9.99999e-01
1.297927893e+00,6.74691e-02,9.99999e-01,7.00306e-02,9.63422e-01,9.99999e-01
1.304417533e+00,4.16849e-01,9.99999e-01,4.32357e-01,9.64132e-01,9.99999e-01
1.310939621e+00,1.28158e-01,9.99999e-01,1.32830e-01,9.64828e-01,9.99999e-01
1.317494319e+00,1.80994e-06,9.99999e-01,1.87459e-06,9.65510e-01,9.99999e-01
1.324081790e+00,6.68819e-05,9.99999e-01,6.92230e-05,9.66180e-01,9.99999e-01
1.330702199e+00,6.66491e-03,9.99999e-01,6.89352e-03,9.66837e-01,9.99999e-01
1.337355710e+00,4.41688e-03,9.99999e-01,4.56534e-03,9.67481e-01,9.99999e-01
1.344042489e+00,1.78467e-03,9.99999e-01,1.84345e-03,9.68113e-01,9.99999e-01
1.350762701e+00,5.36345e-03,9.99999e-01,5.53656e-03,9.68733e-01,9.99999e-01
1.357516515e+00,3.09017e-02,9.99999e-01,3.18791e-02,9.69341e-01,9.99999e-01
1.364304097e+00,1.16355e-01,9.99999e-01,1.19961e-01,9.69937e-01,9.99999e-01
1.371125618e+00,3.14250e-01,9.99999e-01,3.23795e-01,9.70522e-01,9.99999e-01
1.377981246e+00,3.98041e-01,9.99999e-01,4.09888e-01,9.71096e-01,9.99999e-01
1.384871152e+00,5.77724e-01,9.99999e-01,5.94574e-01,9.71659e-01,9.99999e-01
1.391795508e+00,6.01641e-01,9.99999e-01,6.18838e-01,9.72211e-01,9.99999e-01
1.398754485e+00,7.24495e-01,9.99999e-01,7.44789e-01,9.72752e-01,9.99999e-01
1.405748258e+00,7.82762e-01,9.99999e-01,8.04248e-01,9.73283e-01,9.99999e-01
1.412776999e+00,8.48857e-01,9.99999e-01,8.71691e-01,9.73804e-01,9.99999e-01
1.419840884e+00,7.97245e-01,9.99999e-01,8.18262e-01,9.74314e-01,9.99999e-01
1.426940089e+00,1.14958e-01,9.99999e-01,1.17928e-01,9.74815e-01,9.99999e-01
1.434074789e+00,5.15315e-243,9.99999e-01,5.28362e-243,9.75306e-01,9.99999e-01
1.441245163e+00,0.00000e+00,9.99999e-01,0.00000e+00,9.75788e-01,9.99999e-01
1.448451389e+00,1.43261e-294,9.99999e-01,1.46744e-294,9.76261e-01,9.99999e-01
1.455693646e+00,4.16909e-132,9.99999e-01,4.26844e-132,9.76724e-01,9.99999e-01
1.462972114e+00,1.04841e-64,9.99999e-01,1.07289e-64,9.77179e-01,9.99999e-01
1.470286975e+00,6.03789e-28,9.99999e-01,6.17608e-28,9.77624e-01,9.99999e-01
