#,Wave/freq,Total,O2,CO2,Rayleigh,CIA
4.000000000e-01,1.52623e-04,9.99999e-01,9.99999e-01,1.52623e-04,9.99999e-01
4.020000000e-01,1.81586e-04,9.99999e-01,9.99999e-01,1.81586e-04,9.99999e-01
4.040100000e-01,2.15266e-04,9.99999e-01,9.99999e-01,2.15266e-04,9.99999e-01
4.060300500e-01,2.54336e-04,9.99999e-01,9.99999e-01,2.54336e-04,9.99999e-01
4.080602003e-01,2.99509e-04,9.99999e-01,9.99999e-01,2.99509e-04,9.99999e-01
4.101005013e-01,3.51568e-04,9.99999e-01,9.99999e-01,3.51568e-04,9.99999e-01
4.121510038e-01,4.11372e-04,9.99999e-01,9.99999e-01,4.11372e-04,9.99999e-01
4.142117588e-01,4.79857e-04,9.99999e-01,9.99999e-01,4.79857e-04,9.99999e-01
4.162828176e-01,5.58043e-04,9.99999e-01,9.99999e-01,5.58043e-04,9.99999e-01
4.183642317e-01,6.47037e-04,9.99999e-01,9.99999e-01,6.47037e-04,9.99999e-01
4.204560528e-01,7.48034e-04,9.99999e-01,9.99999e-01,7.48034e-04,9.99999e-01
4.225583331e-01,8.62321e-04,9.99999e-01,9.99999e-01,8.62321e-04,9.99999e-01
4.246711247e-01,9.91282e-04,9.99999e-01,9.99999e-01,9.91282e-04,9.99999e-01
4.267944804e-01,1.13640e-03,9.99999e-01,9.99999e-01,1.13640e-03,9.99999e-01
4.289284528e-01,1.29924e-03,9.99999e-01,9.99999e-01,1.29924e-03,9.99999e-01
4.310730950e-01,1.48150e-03,9.99999e-01,9.99999e-01,1.48150e-03,9.99999e-01
4.332284605e-01,1.68495e-03,9.99999e-01,9.99999e-01,1.68495e-03,9.99999e-01
4.353946028e-01,1.91148e-03,9.99999e-01,9.99999e-01,1.91148e-03,9.99999e-01
4.375715758e-01,2.16306e-03,9.99999e-01,9.99999e-01,2.16306e-03,9.99999e-01
4.397594337e-01,2.44179e-03,9.99999e-01,9.99999e-01,2.44179e-03,9.99999e-01
4.419582309e-01,2.74984e-03,9.99999e-01,9.99999e-01,2.74984e-03,9.99999e-01
4.441680220e-01,3.08949e-03,9.99999e-01,9.99999e-01,3.08949e-03,9.99999e-01
4.463888621e-01,3.46313e-03,9.99999e-01,9.99999e-01,3.46313e-03,9.99999e-01
4.486208064e-01,3.87320e-03,9.99999e-01,9.99999e-01,3.87320e-03,9.99999e-01
4.508639105e-01,4.32227e-03,9.99999e-01,9.99999e-01,4.32227e-03,9.99999e-01
4.531182300e-01,4.81296e-03,9.99999e-01,9.99999e-01,4.81296e-03,9.99999e-01
4.553838212e-01,5.34798e-03,9.99999e-01,9.99999e-01,5.34798e-03,9.99999e-01
4.576607403e-01,5.93013e-03,9.99999e-01,9.99999e-01,5.93013e-03,9.99999e-01
4.599490440e-01,6.56223e-03,9.99999e-01,9.99999e-01,6.56223e-03,9.99999e-01
4.622487892e-01,7.24720e-03,9.99999e-01,9.99999e-01,7.24720e-03,9.99999e-01
4.645600332e-01,7.98798e-03,9.99999e-01,9.99999e-01,7.98798e-03,9.99999e-01
4.668828333e-01,8.78758e-03,9.99999e-01,9.99999e-01,8.78758e-03,9.99999e-01
4.692172475e-01,9.64901e-03,9.99999e-01,9.99999e-01,9.64901e-03,9.99999e-01
4.715633337e-01,1.05753e-02,9.99999e-01,9.99999e-01,1.05753e-02,9.99999e-01
4.739211504e-01,1.15696e-02,9.99999e-01,9.99999e-01,1.15696e-02,9.99999e-01
4.762907561e-01,1.26350e-02,9.99999e-01,9.99999e-01,1.26350e-02,9.99999e-01
4.786722099e-01,1.37744e-02,9.99999e-01,9.99999e-01,1.37744e-02,9.99999e-01
4.810655710e-01,1.49910e-02,9.99999e-01,9.99999e-01,1.49910e-02,9.99999e-01
4.834708988e-01,1.62878e-02,9.99999e-01,9.99999e-01,1.62878e-02,9.99999e-01
4.858882533e-01,1.76678e-02,9.99999e-01,9.99999e-01,1.76678e-02,9.99999e-01
4.883176946e-01,1.91339e-02,9.99999e-01,9.99999e-01,1.91339e-02,9.99999e-01
4.907592831e-01,2.06892e-02,9.99999e-01,9.99999e-01,2.06892e-02,9.99999e-01
4.932130795e-01,2.23363e-02,9.99999e-01,9.99999e-01,2.23363e-02,9.99999e-01
4.956791449e-01,2.40781e-02,9.99999e-01,9.99999e-01,2.40781e-02,9.99999e-01
4.981575406e-01,2.59173e-02,9.99999e-01,9.99999e-01,2.59173e-02,9.99999e-01
5.006483283e-01,2.78564e-02,9.99999e-01,9.99999e-01,2.78564e-02,9.99999e-01
5.031515699e-01,2.98980e-02,9.99999e-01,9.99999e-01,2.98980e-02,9.99999e-01
5.056673278e-01,3.20444e-02,9.99999e-01,9.99999e-01,3.20444e-02,9.99999e-01
5.081956644e-01,3.42978e-02,9.99999e-01,9.99999e-01,3.42978e-02,9.99999e-01
5.107366428e-01,3.66605e-02,9.99999e-01,9.99999e-01,3.66605e-02,9.99999e-01
5.132903260e-01,3.91345e-02,9.99999e-01,9.99999e-01,3.91345e-02,9.99999e-01
5.158567776e-01,4.17215e-02,9.99999e-01,9.99999e-01,4.17215e-02,9.99999e-01
5.184360615e-01,4.44233e-02,9.99999e-01,9.99999e-01,4.44233e-02,9.99999e-01
5.210282418e-01,4.72415e-02,9.99999e-01,9.99999e-01,4.72415e-02,9.99999e-01
5.236333830e-01,5.01776e-02,9.99999e-01,9.99999e-01,5.01776e-02,9.99999e-01
5.262515499e-01,5.32326e-02,9.99999e-01,9.99999e-01,5.32326e-02,9.99999e-01
5.288828077e-01,5.64077e-02,9.99999e-01,9.99999e-01,5.64077e-02,9.99999e-01
5.315272217e-01,5.97039e-02,9.99999e-01,9.99999e-01,5.97039e-02,9.99999e-01
5.341848578e-01,6.31219e-02,9.99999e-01,9.99999e-01,6.31219e-02,9.99999e-01
5.368557821e-01,6.66621e-02,9.99999e-01,9.99999e-01,6.66621e-02,9.99999e-01
5.395400610e-01,7.03251e-02,9.99999e-01,9.99999e-01,7.03251e-02,9.99999e-01
5.422377613e-01,7.41111e-02,9.99999e-01,9.99999e-01,7.41111e-02,9.99999e-01
5.449489501e-01,7.80199e-02,9.99999e-01,9.99999e-01,7.80199e-02,9.99999e-01
5.476736949e-01,8.20516e-02,9.99999e-01,9.99999e-01,8.20516e-02,9.99999e-01
5.504120634e-01,8.62058e-02,9.99999e-01,9.99999e-01,8.62058e-02,9.99999e-01
5.531641237e-01,9.04821e-02,9.99999e-01,9.99999e-01,9.04821e-02,9.99999e-01
5.559299443e-01,9.48796e-02,9.99999e-01,9.99999e-01,9.48796e-02,9.99999e-01
5.587095940e-01,9.93977e-02,9.99999e-01,9.99999e-01,9.93977e-02,9.99999e-01
5.615031420e-01,1.04035e-01,9.99999e-01,9.99999e-01,1.04035e-01,9.99999e-01
5.643106577e-01,1.08791e-01,9.99999e-01,9.99999e-01,1.08791e-01,9.99999e-01
5.671322110e-01,1.13664e-01,9.99999e-01,9.99999e-01,1.13664e-01,9.99999e-01
5.699678720e-01,1.18653e-01,9.99999e-01,9.99999e-01,1.18653e-01,9.99999e-01
5.728177114e-01,1.23755e-01,9.99999e-01,9.99999e-01,1.23755e-01,9.99999e-01
5.756818000e-01,1.28969e-01,9.99999e-01,9.99999e-01,1.28969e-01,9.99999e-01
5.785602090e-01,1.34294e-01,9.99999e-01,9.99999e-01,1.34294e-01,9.99999e-01
5.814530100e-01,1.39727e-01,9.99999e-01,9.99999e-01,1.39727e-01,9.99999e-01
5.843602750e-01,1.45266e-01,9.99999e-01,9.99999e-01,1.45266e-01,9.99999e-01
5.872820764e-01,1.50908e-01,9.99999e-01,9.99999e-01,1.50908e-01,9.99999e-01
5.902184868e-01,1.56651e-01,9.99999e-01,9.99999e-01,1.56651e-01,9.99999e-01
5.931695792e-01,1.62494e-01,9.99999e-01,9.99999e-01,1.62494e-01,9.99999e-01
5.961354271e-01,1.68432e-01,9.99999e-01,9.99999e-01,1.68432e-01,9.99999e-01
5.991161043e-01,1.74463e-01,9.99999e-01,9.99999e-01,1.74463e-01,9.99999e-01
6.021116848e-01,1.80585e-01,9.99999e-01,9.99999e-01,1.80585e-01,9.99999e-01
6.051222432e-01,1.86795e-01,9.99999e-01,9.99999e-01,1.86795e-01,9.99999e-01
6.081478544e-01,1.93089e-01,9.99999e-01,9.99999e-01,1.93089e-01,9.99999e-01
6.111885937e-01,1.99464e-01,9.99999e-01,9.99999e-01,1.99464e-01,9.99999e-01
6.142445367e-01,2.05918e-01,9.99999e-01,9.99999e-01,2.05918e-01,9.99999e-01
6.173157594e-01,2.12447e-01,9.99999e-01,9.99999e-01,2.12447e-01,9.99999e-01
6.204023382e-01,2.19048e-01,9.99999e-01,9.99999e-01,2.19048e-01,9.99999e-01
6.235043498e-01,2.25718e-01,9.99999e-01,9.99999e-01,2.25718e-01,9.99999e-01
6.266218716e-01,2.32452e-01,9.99999e-01,9.99999e-01,2.32452e-01,9.99999e-01
6.297549810e-01,2.39249e-01,9.99999e-01,9.99999e-01,2.39249e-01,9.99999e-01
6.329037559e-01,2.46105e-01,9.99999e-01,9.99999e-01,2.46105e-01,9.99999e-01
6.360682746e-01,2.53015e-01,9.99999e-01,9.99999e-01,2.53015e-01,9.99999e-01
6.392486160e-01,2.59978e-01,9.99999e-01,9.99999e-01,2.59978e-01,9.99999e-01
6.424448591e-01,2.66988e-01,9.99999e-01,9.99999e-01,2.66988e-01,9.99999e-01
6.456570834e-01,2.74044e-01,9.99999e-01,9.99999e-01,2.74044e-01,9.99999e-01
6.488853688e-01,2.81142e-01,9.99999e-01,9.99999e-01,2.81142e-01,9.99999e-01
6.521297956e-01,2.88277e-01,9.99999e-01,9.99999e-01,2.88277e-01,9.99999e-01
6.553904446e-01,2.95447e-01,9.99999e-01,9.99999e-01,2.95447e-01,9.99999e-01
6.586673968e-01,3.02649e-01,9.99999e-01,9.99999e-01,3.02649e-01,9.99999e-01
6.619607338e-01,3.09879e-01,9.99999e-01,9.99999e-01,3.09879e-01,9.99999e-01
6.652705375e-01,3.17134e-01,9.99999e-01,9.99999e-01,3.17134e-01,9.99999e-01
6.685968902e-01,3.24410e-01,9.99999e-01,9.99999e-01,3.24410e-01,9.99999e-01
6.719398746e-01,3.31704e-01,9.99999e-01,9.99999e-01,3.31704e-01,9.99999e-01
6.752995740e-01,3.39014e-01,9.99999e-01,9.99999e-01,3.39014e-01,9.99999e-01
6.786760719e-01,3.46335e-01,9.99999e-01,9.99999e-01,3.46335e-01,9.99999e-01
6.820694522e-01,3.53666e-01,9.99999e-01,9.99999e-01,3.53666e-01,9.99999e-01
6.854797995e-01,3.61002e-01,9.99999e-01,9.99999e-01,3.61002e-01,9.99999e-01
6.889071985e-01,3.68341e-01,9.99999e-01,9.99999e-01,3.68341e-01,9.99999e-01
6.923517345e-01,3.75679e-01,9.99999e-01,9.99999e-01,3.75679e-01,9.99999e-01
6.958134932e-01,3.83015e-01,9.99999e-01,9.99999e-01,3.83015e-01,9.99999e-01
6.992925606e-01,3.90345e-01,9.99999e-01,9.99999e-01,3.90345e-01,9.99999e-01
7.027890234e-01,3.97666e-01,9.99999e-01,9.99999e-01,3.97666e-01,9.99999e-01
7.063029686e-01,4.04975e-01,9.99999e-01,9.99999e-01,4.04975e-01,9.99999e-01
7.098344834e-01,4.12271e-01,9.99999e-01,9.99999e-01,4.12271e-01,9.99999e-01
7.133836558e-01,4.19550e-01,9.99999e-01,9.99999e-01,4.19550e-01,9.99999e-01
7.169505741e-01,4.26810e-01,9.99999e-01,9.99999e-01,4.26810e-01,9.99999e-01
7.205353270e-01,4.34049e-01,9.99999e-01,9.99999e-01,4.34049e-01,9.99999e-01
7.241380036e-01,4.41264e-01,9.99999e-01,9.99999e-01,4.41264e-01,9.99999e-01
7.277586936e-01,4.48452e-01,9.99999e-01,9.99999e-01,4.48452e-01,9.99999e-01
7.313974871e-01,4.55613e-01,9.99999e-01,9.99999e-01,4.55613e-01,9.99999e-01
7.350544745e-01,4.62742e-01,9.99999e-01,9.99999e-01,4.62742e-01,9.99999e-01
7.387297469e-01,4.69840e-01,9.99999e-01,9.99999e-01,4.69840e-01,9.99999e-01
7.424233956e-01,4.76902e-01,9.99999e-01,9.99999e-01,4.76902e-01,9.99999e-01
7.461355126e-01,4.83929e-01,9.99999e-01,9.99999e-01,4.83929e-01,9.99999e-01
7.498661902e-01,4.90916e-01,9.99999e-01,9.99999e-01,4.90916e-01,9.99999e-01
7.536155211e-01,4.97864e-01,9.99999e-01,9.99999e-01,4.97864e-01,9.99999e-01
7.573835987e-01,5.04770e-01,9.99999e-01,9.99999e-01,5.04770e-01,9.99999e-01
7.611705167e-01,5.11633e-01,9.99999e-01,9.99999e-01,5.11633e-01,9.99999e-01
7.649763693e-01,5.18450e-01,9.99999e-01,9.99999e-01,5.18450e-01,9.99999e-01
7.688012511e-01,5.25221e-01,9.99999e-01,9.99999e-01,5.25221e-01,9.99999e-01
7.726452574e-01,5.31944e-01,9.99999e-01,9.99999e-01,5.31944e-01,9.99999e-01
7.765084837e-01,5.38618e-01,9.99999e-01,9.99999e-01,5.38618e-01,9.99999e-01
7.803910261e-01,5.29747e-01,9.99999e-01,9.71581e-01,5.45242e-01,9.99999e-01
7.842929812e-01,4.84953e-01,9.99999e-01,8.78835e-01,5.51813e-01,9.99999e-01
7.882144461e-01,4.86374e-01,9.99999e-01,8.71119e-01,5.58332e-01,9.99999e-01
7.921555184e-01,5.21335e-01,9.99999e-01,9.23049e-01,5.64796e-01,9.99999e-01
7.961162960e-01,5.41302e-01,9.99999e-01,9.47647e-01,5.71206e-01,9.99999e-01
8.000968774e-01,5.60988e-01,9.99999e-01,9.71308e-01,5.77559e-01,9.99999e-01
8.040973618e-01,5.75101e-01,9.99999e-01,9.85004e-01,5.83856e-01,9.99999e-01
8.081178486e-01,5.86027e-01,9.99999e-01,9.93105e-01,5.90094e-01,9.99999e-01
8.121584379e-01,5.94997e-01,9.99999e-01,9.97856e-01,5.96275e-01,9.99999e-01
8.162192301e-01,6.02111e-01,9.99999e-01,9.99526e-01,6.02396e-01,9.99999e-01
8.203003262e-01,6.08452e-01,9.99999e-01,9.99992e-01,6.08457e-01,9.99999e-01
8.244018279e-01,6.14457e-01,9.99999e-01,9.99999e-01,6.14457e-01,9.99999e-01
8.285238370e-01,6.20397e-01,9.99999e-01,9.99999e-01,6.20397e-01,9.99999e-01
8.326664562e-01,6.26275e-01,9.99999e-01,9.99999e-01,6.26275e-01,9.99999e-01
8.368297885e-01,6.32090e-01,9.99999e-01,9.99999e-01,6.32090e-01,9.99999e-01
8.410139374e-01,6.37844e-01,9.99999e-01,9.99999e-01,6.37844e-01,9.99999e-01
8.452190071e-01,6.43534e-01,9.99999e-01,9.99999e-01,6.43534e-01,9.99999e-01
8.494451021e-01,6.49162e-01,9.99999e-01,9.99999e-01,6.49162e-01,9.99999e-01
8.536923276e-01,6.54726e-01,9.99999e-01,9.99999e-01,6.54726e-01,9.99999e-01
8.579607893e-01,6.60226e-01,9.99999e-01,9.99999e-01,6.60226e-01,9.99999e-01
8.622505932e-01,6.65663e-01,9.99999e-01,9.99999e-01,6.65663e-01,9.99999e-01
8.665618462e-01,6.26661e-01,9.99999e-01,9.33871e-01,6.71035e-01,9.99999e-01
8.708946554e-01,4.86951e-01,9.99999e-01,7.19975e-01,6.76344e-01,9.99999e-01
8.752491287e-01,5.23279e-01,9.99999e-01,7.67734e-01,6.81588e-01,9.99999e-01
8.796253743e-01,5.94159e-01,9.99999e-01,8.65150e-01,6.86769e-01,9.99999e-01
8.840235012e-01,6.41909e-01,9.99999e-01,9.27767e-01,6.91885e-01,9.99999e-01
8.884436187e-01,6.76619e-01,9.99999e-01,9.70845e-01,6.96937e-01,9.99999e-01
8.928858368e-01,6.93578e-01,9.99999e-01,9.88108e-01,7.01925e-01,9.99999e-01
8.973502660e-01,7.04793e-01,9.99999e-01,9.97089e-01,7.06850e-01,9.99999e-01
9.018370173e-01,7.11482e-01,9.99999e-01,9.99678e-01,7.11710e-01,9.99999e-01
9.063462024e-01,7.10711e-01,9.99999e-01,9.91910e-01,7.16507e-01,9.99999e-01
9.108779334e-01,7.07765e-01,9.99999e-01,9.81315e-01,7.21241e-01,9.99999e-01
9.154323231e-01,7.22690e-01,9.99999e-01,9.95562e-01,7.25911e-01,9.99999e-01
9.200094847e-01,6.84919e-01,9.99999e-01,9.37578e-01,7.30519e-01,9.99999e-01
9.246095321e-01,6.70241e-01,9.99999e-01,9.11813e-01,7.35064e-01,9.99999e-01
9.292325798e-01,6.88133e-01,9.99999e-01,9.30479e-01,7.39546e-01,9.99999e-01
9.338787427e-01,6.93700e-01,9.99999e-01,9.32433e-01,7.43967e-01,9.99999e-01
9.385481364e-01,7.10863e-01,9.99999e-01,9.49937e-01,7.48326e-01,9.99999e-01
9.432408771e-01,7.29303e-01,9.99999e-01,9.69013e-01,7.52624e-01,9.99999e-01
9.479570815e-01,7.44756e-01,9.99999e-01,9.84007e-01,7.56860e-01,9.99999e-01
9.526968669e-01,7.55138e-01,9.99999e-01,9.92249e-01,7.61036e-01,9.99999e-01
9.574603512e-01,7.62611e-01,9.99999e-01,9.96678e-01,7.65152e-01,9.99999e-01
9.622476530e-01,7.68411e-01,9.99999e-01,9.98962e-01,7.69209e-01,9.99999e-01
9.670588912e-01,7.72965e-01,9.99999e-01,9.99688e-01,7.73206e-01,9.99999e-01
9.718941857e-01,7.77127e-01,9.99999e-01,9.99977e-01,7.77144e-01,9.99999e-01
9.767536566e-01,7.81024e-01,9.99999e-01,9.99999e-01,7.81024e-01,9.99999e-01
9.816374249e-01,7.84846e-01,9.99999e-01,9.99999e-01,7.84846e-01,9.99999e-01
9.865456120e-01,7.88611e-01,9.99999e-01,9.99999e-01,7.88611e-01,9.99999e-01
9.914783401e-01,7.92319e-01,9.99999e-01,9.99999e-01,7.92319e-01,9.99999e-01
9.964357318e-01,7.95970e-01,9.99999e-01,9.99999e-01,7.95970e-01,9.99999e-01
1.001417910e+00,7.99566e-01,9.99999e-01,9.99999e-01,7.99566e-01,9.99999e-01
1.006425000e+00,8.03107e-01,9.99999e-01,9.99999e-01,8.03107e-01,9.99999e-01
1.011457125e+00,8.06593e-01,9.99999e-01,9.99999e-01,8.06593e-01,9.99999e-01
1.016514411e+00,8.10024e-01,9.99999e-01,9.99999e-01,8.10024e-01,9.99999e-01
1.021596983e+00,8.13369e-01,9.99999e-01,9.99958e-01,8.13402e-01,9.99999e-01
1.026704968e+00,8.14155e-01,9.99999e-01,9.96849e-01,8.16727e-01,9.99999e-01
1.031838492e+00,7.88911e-01,9.99999e-01,9.62086e-01,8.20000e-01,9.99999e-01
1.036997685e+00,1.46820e-01,9.99999e-01,1.78348e-01,8.23221e-01,9.99999e-01
1.042182673e+00,1.33090e-01,9.99999e-01,1.61049e-01,8.26390e-01,9.99999e-01
1.047393587e+00,1.47908e-01,9.99999e-01,1.78308e-01,8.29508e-01,9.99999e-01
1.052630555e+00,6.57245e-03,9.99999e-01,7.89410e-03,8.32577e-01,9.99999e-01
1.057893707e+00,1.53883e-02,9.99999e-01,1.84160e-02,8.35595e-01,9.99999e-01
1.063183176e+00,4.46437e-02,9.99999e-01,5.32381e-02,8.38565e-01,9.99999e-01
1.068499092e+00,1.12071e-01,9.99999e-01,1.33182e-01,8.41486e-01,9.99999e-01
1.073841587e+00,2.35903e-01,9.99999e-01,2.79387e-01,8.44360e-01,9.99999e-01
1.079210795e+00,3.78095e-01,9.99999e-01,4.46295e-01,8.47186e-01,9.99999e-01
1.084606849e+00,5.45540e-01,9.99999e-01,6.41836e-01,8.49966e-01,9.99999e-01
1.090029883e+00,6.77572e-01,9.99999e-01,7.94620e-01,8.52699e-01,9.99999e-01
1.095480033e+00,7.63741e-01,9.99999e-01,8.92859e-01,8.55388e-01,9.99999e-01
1.100957433e+00,8.12469e-01,9.99999e-01,9.46899e-01,8.58031e-01,9.99999e-01
1.106462220e+00,8.41420e-01,9.99999e-01,9.77679e-01,8.60630e-01,9.99999e-01
1.111994531e+00,8.55995e-01,9.99999e-01,9.91669e-01,8.63185e-01,9.99999e-01
1.117554504e+00,8.63927e-01,9.99999e-01,9.97955e-01,8.65697e-01,9.99999e-01
1.123142276e+00,8.68050e-01,9.99999e-01,9.99864e-01,8.68167e-01,9.99999e-01
1.128757988e+00,8.70594e-01,9.99999e-01,9.99999e-01,8.70594e-01,9.99999e-01
1.134401778e+00,8.72981e-01,9.99999e-01,9.99999e-01,8.72981e-01,9.99999e-01
1.140073787e+00,8.75326e-01,9.99999e-01,9.99999e-01,8.75326e-01,9.99999e-01
1.145774156e+00,8.77632e-01,9.99999e-01,9.99999e-01,8.77632e-01,9.99999e-01
1.151503026e+00,8.79897e-01,9.99999e-01,9.99999e-01,8.79897e-01,9.99999e-01
1.157260541e+00,8.82124e-01,9.99999e-01,9.99999e-01,8.82124e-01,9.99999e-01
1.163046844e+00,8.84312e-01,9.99999e-01,9.99999e-01,8.84312e-01,9.99999e-01
1.168862078e+00,8.86462e-01,9.99999e-01,9.99999e-01,8.86462e-01,9.99999e-01
1.174706389e+00,8.88575e-01,9.99999e-01,9.99999e-01,8.88575e-01,9.99999e-01
1.180579921e+00,8.90651e-01,9.99999e-01,9.99999e-01,8.90651e-01,9.99999e-01
1.186482820e+00,8.92686e-01,9.99999e-01,9.99994e-01,8.92690e-01,9.99999e-01
1.192415234e+00,8.84671e-01,9.99999e-01,9.88796e-01,8.94694e-01,9.99999e-01
1.198377311e+00,5.07857e-01,9.99999e-01,5.66386e-01,8.96663e-01,9.99999e-01
1.204369197e+00,7.20284e-10,9.99999e-01,8.01564e-10,8.98597e-01,9.99999e-01
1.210391043e+00,5.52817e-35,9.99999e-01,6.13902e-35,9.00496e-01,9.99999e-01
1.216442998e+00,1.71133e-30,9.99999e-01,1.89650e-30,9.02362e-01,9.99999e-01
1.222525213e+00,4.65279e-30,9.99999e-01,5.14578e-30,9.04196e-01,9.99999e-01
1.228637839e+00,2.87618e-23,9.99999e-01,3.17460e-23,9.05996e-01,9.99999e-01
1.234781029e+00,2.83361e-15,9.99999e-01,3.12152e-15,9.07764e-01,9.99999e-01
1.240954934e+00,2.37361e-10,9.99999e-01,2.60979e-10,9.09501e-01,9.99999e-01
1.247159708e+00,6.45587e-06,9.99999e-01,7.08496e-06,9.11207e-01,9.99999e-01
1.253395507e+00,8.76104e-04,9.99999e-01,9.59711e-04,9.12882e-01,9.99999e-01
1.259662485e+00,1.71061e-02,9.99999e-01,1.87048e-02,9.14527e-01,9.99999e-01
1.265960797e+00,9.08965e-02,9.99999e-01,9.92165e-02,9.16142e-01,9.99999e-01
1.272290601e+00,3.22983e-01,9.99999e-01,3.51936e-01,9.17729e-01,9.99999e-01
1.278652054e+00,3.01709e-01,9.99999e-01,3.28199e-01,9.19286e-01,9.99999e-01
1.285045314e+00,1.07878e-02,9.99999e-01,1.17154e-02,9.20816e-01,9.99999e-01
1.291470541e+00,8.38749e-05,9.99999e-01,9.09392e-05,9.22317e-01,9.99999e-01
1.297927893e+00,8.02501e-03,9.99999e-01,8.68702e-03,9.23792e-01,9.99999e-01
1.304417533e+00,1.59230e-01,9.99999e-01,1.72096e-01,9.25239e-01,9.99999e-01
1.310939621e+00,4.04644e-02,9.99999e-01,4.36669e-02,9.26660e-01,9.99999e-01
1.317494319e+00,1.67633e-12,9.99999e-01,1.80628e-12,9.28056e-01,9.99999e-01
1.324081790e+00,8.77390e-09,9.99999e-01,9.44013e-09,9.29425e-01,9.99999e-01
1.330702199e+00,3.44789e-05,9.99999e-01,3.70434e-05,9.30770e-01,9.99999e-01
1.337355710e+00,3.67121e-05,9.99999e-01,3.93869e-05,9.32090e-01,9.99999e-01
1.344042489e+00,1.10375e-05,9.99999e-01,1.18253e-05,9.33385e-01,9.99999e-01
1.350762701e+00,2.22779e-05,9.99999e-01,2.38354e-05,9.34657e-01,9.99999e-01
1.357516515e+00,9.64420e-04,9.99999e-01,1.03047e-03,9.35906e-01,9.99999e-01
1.364304097e+00,1.12182e-02,9.99999e-01,1.19707e-02,9.37131e-01,9.99999e-01
1.371125618e+00,9.24280e-02,9.99999e-01,9.85022e-02,9.38334e-01,9.99999e-01
1.377981246e+00,1.42494e-01,9.99999e-01,1.51668e-01,9.39514e-01,9.99999e-01
1.384871152e+00,3.13766e-01,9.99999e-01,3.33555e-01,9.40673e-01,9.99999e-01
1.391795508e+00,3.41402e-01,9.99999e-01,3.62495e-01,9.41810e-01,9.99999e-01
1.398754485e+00,5.04452e-01,9.99999e-01,5.34985e-01,9.42926e-01,9.99999e-01
1.405748258e+00,5.95290e-01,9.99999e-01,6.30589e-01,9.44021e-01,9.99999e-01
1.412776999e+00,7.06325e-01,9.99999e-01,7.47357e-01,9.45096e-01,9.99999e-01
1.419840884e+00,6.41550e-01,9.99999e-01,6.78063e-01,9.46150e-01,9.99999e-01
1.426940089e+00,6.61098e-02,9.99999e-01,6.97960e-02,9.47185e-01,9.99999e-01
1.434074789e+00,0.00000e+00,9.99999e-01,0.00000e+00,9.48201e-01,9.99999e-01
1.441245163e+00,0.00000e+00,9.99999e-01,0.00000e+00,9.49198e-01,9.99999e-01
1.448451389e+00,0.00000e+00,9.99999e-01,0.00000e+00,9.50176e-01,9.99999e-01
1.455693646e+00,1.66150e-278,9.99999e-01,1.74686e-278,9.51136e-01,9.99999e-01
1.462972114e+00,4.04732e-135,9.99999e-01,4.25103e-135,9.52077e-01,9.99999e-01
1.470286975e+00,6.36852e-57,9.99999e-01,6.68259e-57,9.53001e-01,9.99999e-01
