#,Wave/freq,Total,O2,CO2,Rayleigh,CIA
4.000000000e-01,1.85722e-15,9.99999e-01,9.99999e-01,1.85722e-15,9.99999e-01
4.020000000e-01,3.63197e-15,9.99999e-01,9.99999e-01,3.63197e-15,9.99999e-01
4.040100000e-01,7.00431e-15,9.99999e-01,9.99999e-01,7.00431e-15,9.99999e-01
4.060300500e-01,1.33338e-14,9.99999e-01,9.99999e-01,1.33338e-14,9.99999e-01
4.080602003e-01,2.50623e-14,9.99999e-01,9.99999e-01,2.50623e-14,9.99999e-01
4.101005013e-01,4.65237e-14,9.99999e-01,9.99999e-01,4.65237e-14,9.99999e-01
4.121510038e-01,8.53140e-14,9.99999e-01,9.99999e-01,8.53140e-14,9.99999e-01
4.142117588e-01,1.54584e-13,9.99999e-01,9.99999e-01,1.54584e-13,9.99999e-01
4.162828176e-01,2.76829e-13,9.99999e-01,9.99999e-01,2.76829e-13,9.99999e-01
4.183642317e-01,4.90070e-13,9.99999e-01,9.99999e-01,4.90070e-13,9.99999e-01
4.204560528e-01,8.57840e-13,9.99999e-01,9.99999e-01,8.57840e-13,9.99999e-01
4.225583331e-01,1.48509e-12,9.99999e-01,9.99999e-01,1.48509e-12,9.99999e-01
4.246711247e-01,2.54325e-12,9.99999e-01,9.99999e-01,2.54325e-12,9.99999e-01
4.267944804e-01,4.30934e-12,9.99999e-01,9.99999e-01,4.30934e-12,9.99999e-01
4.289284528e-01,7.22619e-12,9.99999e-01,9.99999e-01,7.22619e-12,9.99999e-01
4.310730950e-01,1.19943e-11,9.99999e-01,9.99999e-01,1.19943e-11,9.99999e-01
4.332284605e-01,1.97102e-11,9.99999e-01,9.99999e-01,1.97102e-11,9.99999e-01
4.353946028e-01,3.20736e-11,9.99999e-01,9.99999e-01,3.20736e-11,9.99999e-01
4.375715758e-01,5.16924e-11,9.99999e-01,9.99999e-01,5.16924e-11,9.99999e-01
4.397594337e-01,8.25301e-11,9.99999e-01,9.99999e-01,8.25301e-11,9.99999e-01
4.419582309e-01,1.30552e-10,9.99999e-01,9.99999e-01,1.30552e-10,9.99999e-01
4.441680220e-01,2.04655e-10,9.99999e-01,9.99999e-01,2.04655e-10,9.99999e-01
4.463888621e-01,3.17982e-10,9.99999e-01,9.99999e-01,3.17982e-10,9.99999e-01
4.486208064e-01,4.89784e-10,9.99999e-01,9.99999e-01,4.89784e-10,9.99999e-01
4.508639105e-01,7.47997e-10,9.99999e-01,9.99999e-01,7.47997e-10,9.99999e-01
4.531182300e-01,1.13282e-09,9.99999e-01,9.99999e-01,1.13282e-09,9.99999e-01
4.553838212e-01,1.70163e-09,9.99999e-01,9.99999e-01,1.70163e-09,9.99999e-01
4.576607403e-01,2.53558e-09,9.99999e-01,9.99999e-01,2.53558e-09,9.99999e-01
4.599490440e-01,3.74859e-09,9.99999e-01,9.99999e-01,3.74859e-09,9.99999e-01
4.622487892e-01,5.49927e-09,9.99999e-01,9.99999e-01,5.49927e-09,9.99999e-01
4.645600332e-01,8.00672e-09,9.99999e-01,9.99999e-01,8.00672e-09,9.99999e-01
4.668828333e-01,1.15713e-08,9.99999e-01,9.99999e-01,1.15713e-08,9.99999e-01
4.692172475e-01,1.66016e-08,9.99999e-01,9.99999e-01,1.66016e-08,9.99999e-01
4.715633337e-01,2.36494e-08,9.99999e-01,9.99999e-01,2.36494e-08,9.99999e-01
4.739211504e-01,3.34547e-08,9.99999e-01,9.99999e-01,3.34547e-08,9.99999e-01
4.762907561e-01,4.70021e-08,9.99999e-01,9.99999e-01,4.70021e-08,9.99999e-01
4.786722099e-01,6.55935e-08,9.99999e-01,9.99999e-01,6.55935e-08,9.99999e-01
4.810655710e-01,9.09381e-08,9.99999e-01,9.99999e-01,9.09381e-08,9.99999e-01
4.834708988e-01,1.25264e-07,9.99999e-01,9.99999e-01,1.25264e-07,9.99999e-01
4.858882533e-01,1.71460e-07,9.99999e-01,9.99999e-01,1.71460e-07,9.99999e-01
4.883176946e-01,2.33241e-07,9.99999e-01,9.99999e-01,2.33241e-07,9.99999e-01
4.907592831e-01,3.15360e-07,9.99999e-01,9.99999e-01,3.15360e-07,9.99999e-01
4.932130795e-01,4.23859e-07,9.99999e-01,9.99999e-01,4.23859e-07,9.99999e-01
4.956791449e-01,5.66370e-07,9.99999e-01,9.99999e-01,5.66370e-07,9.99999e-01
4.981575406e-01,7.52474e-07,9.99999e-01,9.99999e-01,7.52474e-07,9.99999e-01
5.006483283e-01,9.94137e-07,9.99999e-01,9.99999e-01,9.94137e-07,9.99999e-01
5.031515699e-01,1.30621e-06,9.99999e-01,9.99999e-01,1.30621e-06,9.99999e-01
5.056673278e-01,1.70701e-06,9.99999e-01,9.99999e-01,1.70701e-06,9.99999e-01
5.081956644e-01,2.21903e-06,9.99999e-01,9.99999e-01,2.21903e-06,9.99999e-01
5.107366428e-01,2.86972e-06,9.99999e-01,9.99999e-01,2.86972e-06,9.99999e-01
5.132903260e-01,3.69242e-06,9.99999e-01,9.99999e-01,3.69242e-06,9.99999e-01
5.158567776e-01,4.72738e-06,9.99999e-01,9.99999e-01,4.72738e-06,9.99999e-01
5.184360615e-01,6.02296e-06,9.99999e-01,9.99999e-01,6.02296e-06,9.99999e-01
5.210282418e-01,7.63698e-06,9.99999e-01,9.99999e-01,7.63698e-06,9.99999e-01
5.236333830e-01,9.63821e-06,9.99999e-01,9.99999e-01,9.63821e-06,9.99999e-01
5.262515499e-01,1.21081e-05,9.99999e-01,9.99999e-01,1.21081e-05,9.99999e-01
5.288828077e-01,1.51425e-05,9.99999e-01,9.99999e-01,1.51425e-05,9.99999e-01
5.315272217e-01,1.88538e-05,9.99999e-01,9.99999e-01,1.88538e-05,9.99999e-01
5.341848578e-01,2.33734e-05,9.99999e-01,9.99999e-01,2.33734e-05,9.99999e-01
5.368557821e-01,2.88537e-05,9.99999e-01,9.99999e-01,2.88537e-05,9.99999e-01
5.395400610e-01,3.54710e-05,9.99999e-01,9.99999e-01,3.54710e-05,9.99999e-01
5.422377613e-01,4.34285e-05,9.99999e-01,9.99999e-01,4.34285e-05,9.99999e-01
5.449489501e-01,5.29589e-05,9.99999e-01,9.99999e-01,5.29589e-05,9.99999e-01
5.476736949e-01,6.43283e-05,9.99999e-01,9.99999e-01,6.43283e-05,9.99999e-01
5.504120634e-01,7.78389e-05,9.99999e-01,9.99999e-01,7.78389e-05,9.99999e-01
5.531641237e-01,9.38330e-05,9.99999e-01,9.99999e-01,9.38330e-05,9.99999e-01
5.559299443e-01,1.12697e-04,9.99999e-01,9.99999e-01,1.12697e-04,9.99999e-01
5.587095940e-01,1.34864e-04,9.99999e-01,9.99999e-01,1.34864e-04,9.99999e-01
5.615031420e-01,1.60820e-04,9.99999e-01,9.99999e-01,1.60820e-04,9.99999e-01
5.643106577e-01,1.91106e-04,9.99999e-01,9.99999e-01,1.91106e-04,9.99999e-01
5.671322110e-01,2.26323e-04,9.99999e-01,9.99999e-01,2.26323e-04,9.99999e-01
5.699678720e-01,2.67135e-04,9.99999e-01,9.99999e-01,2.67135e-04,9.99999e-01
5.728177114e-01,3.14277e-04,9.99999e-01,9.99999e-01,3.14277e-04,9.99999e-01
5.756818000e-01,3.68552e-04,9.99999e-01,9.99999e-01,3.68552e-04,9.99999e-01
5.785602090e-01,4.30843e-04,9.99999e-01,9.99999e-01,4.30843e-04,9.99999e-01
5.814530100e-01,5.02111e-04,9.99999e-01,9.99999e-01,5.02111e-04,9.99999e-01
5.843602750e-01,5.83401e-04,9.99999e-01,9.99999e-01,5.83401e-04,9.99999e-01
5.872820764e-01,6.75845e-04,9.99999e-01,9.99999e-01,6.75845e-04,9.99999e-01
5.902184868e-01,7.80667e-04,9.99999e-01,9.99999e-01,7.80667e-04,9.99999e-01
5.931695792e-01,8.99181e-04,9.99999e-01,9.99999e-01,8.99181e-04,9.99999e-01
5.961354271e-01,1.03280e-03,9.99999e-01,9.99999e-01,1.03280e-03,9.99999e-01
5.991161043e-01,1.18303e-03,9.99999e-01,9.99999e-01,1.18303e-03,9.99999e-01
6.021116848e-01,1.35149e-03,9.99999e-01,9.99999e-01,1.35149e-03,9.99999e-01
6.051222432e-01,1.53988e-03,9.99999e-01,9.99999e-01,1.53988e-03,9.99999e-01
6.081478544e-01,1.75001e-03,9.99999e-01,9.99999e-01,1.75001e-03,9.99999e-01
6.111885937e-01,1.98380e-03,9.99999e-01,9.99999e-01,1.98380e-03,9.99999e-01
6.142445367e-01,2.24325e-03,9.99999e-01,9.99999e-01,2.24325e-03,9.99999e-01
6.173157594e-01,2.53049e-03,9.99999e-01,9.99999e-01,2.53049e-03,9.99999e-01
6.204023382e-01,2.84772e-03,9.99999e-01,9.99999e-01,2.84772e-03,9.99999e-01
6.235043498e-01,3.19726e-03,9.99999e-01,9.99999e-01,3.19726e-03,9.99999e-01
6.266218716e-01,3.58150e-03,9.99999e-01,9.99999e-01,3.58150e-03,9.99999e-01
6.297549810e-01,4.00293e-03,9.99999e-01,9.99999e-01,4.00293e-03,9.99999e-01
6.329037559e-01,4.46413e-03,9.99999e-01,9.99999e-01,4.46413e-03,9.99999e-01
6.360682746e-01,4.96776e-03,9.99999e-01,9.99999e-01,4.96776e-03,9.99999e-01
6.392486160e-01,5.51654e-03,9.99999e-01,9.99999e-01,5.51654e-03,9.99999e-01
6.424448591e-01,6.11328e-03,9.99999e-01,9.99999e-01,6.11328e-03,9.99999e-01
6.456570834e-01,6.76085e-03,9.99999e-01,9.99999e-01,6.76085e-03,9.99999e-01
6.488853688e-01,7.46215e-03,9.99999e-01,9.99999e-01,7.46215e-03,9.99999e-01
6.521297956e-01,8.22016e-03,9.99999e-01,9.99999e-01,8.22016e-03,9.99999e-01
6.553904446e-01,9.03788e-03,9.99999e-01,9.99999e-01,9.03788e-03,9.99999e-01
6.586673968e-01,9.91834e-03,9.99999e-01,9.99999e-01,9.91834e-03,9.99999e-01
6.619607338e-01,1.08646e-02,9.99999e-01,9.99999e-01,1.08646e-02,9.99999e-01
6.652705375e-01,1.18798e-02,9.99999e-01,9.99999e-01,1.18798e-02,9.99999e-01
6.685968902e-01,1.29669e-02,9.99999e-01,9.99999e-01,1.29669e-02,9.99999e-01
6.719398746e-01,1.41290e-02,9.99999e-01,9.99999e-01,1.41290e-02,9.99999e-01
6.752995740e-01,1.53692e-02,9.99999e-01,9.99999e-01,1.53692e-02,9.99999e-01
6.786760719e-01,1.66905e-02,9.99999e-01,9.99999e-01,1.66905e-02,9.99999e-01
6.820694522e-01,1.80959e-02,9.99999e-01,9.99999e-01,1.80959e-02,9.99999e-01
6.854797995e-01,1.95883e-02,9.99999e-01,9.99999e-01,1.95883e-02,9.99999e-01
6.889071985e-01,2.11707e-02,9.99999e-01,9.99999e-01,2.11707e-02,9.99999e-01
6.923517345e-01,2.28457e-02,9.99999e-01,9.99999e-01,2.28457e-02,9.99999e-01
6.958134932e-01,2.46163e-02,9.99999e-01,9.99999e-01,2.46163e-02,9.99999e-01
6.992925606e-01,2.64850e-02,9.99999e-01,9.99999e-01,2.64850e-02,9.99999e-01
7.027890234e-01,2.84544e-02,9.99999e-01,9.99999e-01,2.84544e-02,9.99999e-01
7.063029686e-01,3.05270e-02,9.99999e-01,9.99999e-01,3.05270e-02,9.99999e-01
7.098344834e-01,3.27051e-02,9.99999e-01,9.99999e-01,3.27051e-02,9.99999e-01
7.133836558e-01,3.49909e-02,9.99999e-01,9.99999e-01,3.49909e-02,9.99999e-01
7.169505741e-01,3.73866e-02,9.99999e-01,9.99999e-01,3.73866e-02,9.99999e-01
7.205353270e-01,3.98941e-02,9.99999e-01,9.99999e-01,3.98941e-02,9.99999e-01
7.241380036e-01,4.25152e-02,9.99999e-01,9.99999e-01,4.25152e-02,9.99999e-01
7.277586936e-01,4.52516e-02,9.99999e-01,9.99999e-01,4.52516e-02,9.99999e-01
7.313974871e-01,4.81048e-02,9.99999e-01,9.99999e-01,4.81048e-02,9.99999e-01
7.350544745e-01,5.10762e-02,9.99999e-01,9.99999e-01,5.10762e-02,9.99999e-01
7.387297469e-01,5.41669e-02,9.99999e-01,9.99999e-01,5.41669e-02,9.99999e-01
7.424233956e-01,5.73781e-02,9.99999e-01,9.99999e-01,5.73781e-02,9.99999e-01
7.461355126e-01,6.07105e-02,9.99999e-01,9.99999e-01,6.07105e-02,9.99999e-01
7.498661902e-01,6.41649e-02,9.99999e-01,9.99999e-01,6.41649e-02,9.99999e-01
7.536155211e-01,6.77417e-02,9.99999e-01,9.99999e-01,6.77417e-02,9.99999e-01
7.573835987e-01,7.14414e-02,9.99999e-01,9.99999e-01,7.14414e-02,9.99999e-01
7.611705167e-01,7.52639e-02,9.99999e-01,9.99999e-01,7.52639e-02,9.99999e-01
7.649763693e-01,7.92095e-02,9.99999e-01,9.99999e-01,7.92095e-02,9.99999e-01
7.688012511e-01,8.32778e-02,9.99999e-01,9.99999e-01,8.32778e-02,9.99999e-01
7.726452574e-01,8.74684e-02,9.99999e-01,9.99999e-01,8.74684e-02,9.99999e-01
7.765084837e-01,9.17809e-02,9.99999e-01,9.99999e-01,9.17809e-02,9.99999e-01
7.803910261e-01,8.77734e-02,9.99999e-01,9.12267e-01,9.62145e-02,9.99999e-01
7.842929812e-01,6.31517e-02,9.99999e-01,6.26702e-01,1.00768e-01,9.99999e-01
7.882144461e-01,6.45304e-02,9.99999e-01,6.12002e-01,1.05441e-01,9.99999e-01
7.921555184e-01,8.14251e-02,9.99999e-01,7.38667e-01,1.10232e-01,9.99999e-01
7.961162960e-01,9.36924e-02,9.99999e-01,8.13727e-01,1.15140e-01,9.99999e-01
8.000968774e-01,1.07448e-01,9.99999e-01,8.94187e-01,1.20162e-01,9.99999e-01
8.040973618e-01,1.18214e-01,9.99999e-01,9.43462e-01,1.25298e-01,9.99999e-01
8.081178486e-01,1.27110e-01,9.99999e-01,9.73677e-01,1.30546e-01,9.99999e-01
8.121584379e-01,1.34782e-01,9.99999e-01,9.91754e-01,1.35903e-01,9.99999e-01
8.162192301e-01,1.41109e-01,9.99999e-01,9.98172e-01,1.41368e-01,9.99999e-01
8.203003262e-01,1.46933e-01,9.99999e-01,9.99970e-01,1.46938e-01,9.99999e-01
8.244018279e-01,1.52610e-01,9.99999e-01,9.99999e-01,1.52610e-01,9.99999e-01
8.285238370e-01,1.58384e-01,9.99999e-01,9.99999e-01,1.58384e-01,9.99999e-01
8.326664562e-01,1.64255e-01,9.99999e-01,9.99999e-01,1.64255e-01,9.99999e-01
8.368297885e-01,1.70221e-01,9.99999e-01,9.99999e-01,1.70221e-01,9.99999e-01
8.410139374e-01,1.76280e-01,9.99999e-01,9.99999e-01,1.76280e-01,9.99999e-01
8.452190071e-01,1.82428e-01,9.99999e-01,9.99999e-01,1.82428e-01,9.99999e-01
8.494451021e-01,1.88663e-01,9.99999e-01,9.99999e-01,1.88663e-01,9.99999e-01
8.536923276e-01,1.94982e-01,9.99999e-01,9.99999e-01,1.94982e-01,9.99999e-01
8.579607893e-01,2.01381e-01,9.99999e-01,9.99999e-01,2.01381e-01,9.99999e-01
8.622505932e-01,2.07858e-01,9.99999e-01,9.99999e-01,2.07858e-01,9.99999e-01
8.665618462e-01,1.86289e-01,9.99999e-01,8.68849e-01,2.14408e-01,9.99999e-01
8.708946554e-01,7.05245e-02,9.99999e-01,3.19072e-01,2.21030e-01,9.99999e-01
8.752491287e-01,8.74593e-02,9.99999e-01,3.84066e-01,2.27719e-01,9.99999e-01
8.796253743e-01,1.36629e-01,9.99999e-01,5.82706e-01,2.34473e-01,9.99999e-01
8.840235012e-01,1.81350e-01,9.99999e-01,7.51590e-01,2.41288e-01,9.99999e-01
8.884436187e-01,2.21501e-01,9.99999e-01,8.92574e-01,2.48160e-01,9.99999e-01
8.928858368e-01,2.43595e-01,9.99999e-01,9.54951e-01,2.55086e-01,9.99999e-01
8.973502660e-01,2.59134e-01,9.99999e-01,9.88820e-01,2.62064e-01,9.99999e-01
9.018370173e-01,2.68755e-01,9.99999e-01,9.98760e-01,2.69088e-01,9.99999e-01
9.063462024e-01,2.67836e-01,9.99999e-01,9.69869e-01,2.76157e-01,9.99999e-01
9.108779334e-01,2.63461e-01,9.99999e-01,9.30082e-01,2.83266e-01,9.99999e-01
9.154323231e-01,2.85482e-01,9.99999e-01,9.83023e-01,2.90412e-01,9.99999e-01
9.200094847e-01,2.40699e-01,9.99999e-01,8.08822e-01,2.97592e-01,9.99999e-01
9.246095321e-01,2.14326e-01,9.99999e-01,7.03162e-01,3.04803e-01,9.99999e-01
9.292325798e-01,2.38380e-01,9.99999e-01,7.63939e-01,3.12040e-01,9.99999e-01
9.338787427e-01,2.44980e-01,9.99999e-01,7.67235e-01,3.19302e-01,9.99999e-01
9.385481364e-01,2.68342e-01,9.99999e-01,8.21663e-01,3.26584e-01,9.99999e-01
9.432408771e-01,2.95769e-01,9.99999e-01,8.85845e-01,3.33883e-01,9.99999e-01
9.479570815e-01,3.20636e-01,9.99999e-01,9.39739e-01,3.41196e-01,9.99999e-01
9.526968669e-01,3.38231e-01,9.99999e-01,9.70474e-01,3.48521e-01,9.99999e-01
9.574603512e-01,3.51316e-01,9.99999e-01,9.87248e-01,3.55853e-01,9.99999e-01
9.622476530e-01,3.61739e-01,9.99999e-01,9.96002e-01,3.63190e-01,9.99999e-01
9.670588912e-01,3.70085e-01,9.99999e-01,9.98798e-01,3.70529e-01,9.99999e-01
9.718941857e-01,3.77835e-01,9.99999e-01,9.99913e-01,3.77868e-01,9.99999e-01
9.767536566e-01,3.85202e-01,9.99999e-01,9.99999e-01,3.85202e-01,9.99999e-01
9.816374249e-01,3.92529e-01,9.99999e-01,9.99999e-01,3.92529e-01,9.99999e-01
9.865456120e-01,3.99847e-01,9.99999e-01,9.99999e-01,3.99847e-01,9.99999e-01
9.914783401e-01,4.07153e-01,9.99999e-01,9.99999e-01,4.07153e-01,9.99999e-01
9.964357318e-01,4.14444e-01,9.99999e-01,9.99999e-01,4.14444e-01,9.99999e-01
1.001417910e+00,4.21718e-01,9.99999e-01,9.99999e-01,4.21718e-01,9.99999e-01
1.006425000e+00,4.28971e-01,9.99999e-01,9.99999e-01,4.28971e-01,9.99999e-01
1.011457125e+00,4.36203e-01,9.99999e-01,9.99999e-01,4.36203e-01,9.99999e-01
1.016514411e+00,4.43410e-01,9.99999e-01,9.99999e-01,4.43410e-01,9.99999e-01
1.021596983e+00,4.50521e-01,9.99999e-01,9.99844e-01,4.50591e-01,9.99999e-01
1.026704968e+00,4.52251e-01,9.99999e-01,9.88002e-01,4.57742e-01,9.99999e-01
1.031838492e+00,4.20859e-01,9.99999e-01,9.05339e-01,4.64863e-01,9.99999e-01
1.036997685e+00,2.31864e-02,9.99999e-01,4.91290e-02,4.71950e-01,9.99999e-01
1.042182673e+00,1.36066e-03,9.99999e-01,2.84061e-03,4.79002e-01,9.99999e-01
1.047393587e+00,3.68385e-03,9.99999e-01,7.57968e-03,4.86017e-01,9.99999e-01
1.052630555e+00,3.13336e-07,9.99999e-01,6.35579e-07,4.92993e-01,9.99999e-01
1.057893707e+00,1.16675e-06,9.99999e-01,2.33384e-06,4.99928e-01,9.99999e-01
1.063183176e+00,3.49891e-05,9.99999e-01,6.90364e-05,5.06822e-01,9.99999e-01
1.068499092e+00,3.75975e-04,9.99999e-01,7.31937e-04,5.13671e-01,9.99999e-01
1.073841587e+00,4.90812e-03,9.99999e-01,9.43008e-03,5.20475e-01,9.99999e-01
1.079210795e+00,2.82878e-02,9.99999e-01,5.36534e-02,5.27232e-01,9.99999e-01
1.084606849e+00,1.00910e-01,9.99999e-01,1.88990e-01,5.33940e-01,9.99999e-01
1.090029883e+00,2.25787e-01,9.99999e-01,4.17661e-01,5.40599e-01,9.99999e-01
1.095480033e+00,3.55091e-01,9.99999e-01,6.48915e-01,5.47207e-01,9.99999e-01
1.100957433e+00,4.49069e-01,9.99999e-01,8.10940e-01,5.53763e-01,9.99999e-01
1.106462220e+00,5.13642e-01,9.99999e-01,9.16783e-01,5.60265e-01,9.99999e-01
1.111994531e+00,5.48729e-01,9.99999e-01,9.68265e-01,5.66713e-01,9.99999e-01
1.117554504e+00,5.68600e-01,9.99999e-01,9.92137e-01,5.73106e-01,9.99999e-01
1.123142276e+00,5.79142e-01,9.99999e-01,9.99479e-01,5.79443e-01,9.99999e-01
1.128757988e+00,5.85722e-01,9.99999e-01,9.99999e-01,5.85722e-01,9.99999e-01
1.134401778e+00,5.91944e-01,9.99999e-01,9.99999e-01,5.91944e-01,9.99999e-01
1.140073787e+00,5.98106e-01,9.99999e-01,9.99999e-01,5.98106e-01,9.99999e-01
1.145774156e+00,6.04210e-01,9.99999e-01,9.99999e-01,6.04210e-01,9.99999e-01
1.151503026e+00,6.10253e-01,9.99999e-01,9.99999e-01,6.10253e-01,9.99999e-01
1.157260541e+00,6.16235e-01,9.99999e-01,9.99999e-01,6.16235e-01,9.99999e-01
1.163046844e+00,6.22156e-01,9.99999e-01,9.99999e-01,6.22156e-01,9.99999e-01
1.168862078e+00,6.28016e-01,9.99999e-01,9.99999e-01,6.28016e-01,9.99999e-01
1.174706389e+00,6.33813e-01,9.99999e-01,9.99999e-01,6.33813e-01,9.99999e-01
1.180579921e+00,6.39547e-01,9.99999e-01,9.99999e-01,6.39547e-01,9.99999e-01
1.186482820e+00,6.45207e-01,9.99999e-01,9.99981e-01,6.45219e-01,9.99999e-01
1.192415234e+00,6.24401e-01,9.99999e-01,9.59395e-01,6.50828e-01,9.99999e-01
1.198377311e+00,3.38481e-01,9.99999e-01,5.15684e-01,6.56373e-01,9.99999e-01
1.204369197e+00,1.17809e-31,9.99999e-01,1.77998e-31,6.61854e-01,9.99999e-01
1.210391043e+00,1.38009e-128,9.99999e-01,2.06826e-128,6.67272e-01,9.99999e-01
1.216442998e+00,2.96915e-111,9.99999e-01,4.41426e-111,6.72625e-01,9.99999e-01
1.222525213e+00,1.39572e-109,9.99999e-01,2.05885e-109,6.77915e-01,9.99999e-01
1.228637839e+00,1.66300e-84,9.99999e-01,2.43435e-84,6.83140e-01,9.99999e-01
1.234781029e+00,1.61156e-52,9.99999e-01,2.34136e-52,6.88301e-01,9.99999e-01
1.240954934e+00,8.25884e-35,9.99999e-01,1.19107e-34,6.93398e-01,9.99999e-01
1.247159708e+00,1.07986e-16,9.99999e-01,1.54612e-16,6.98431e-01,9.99999e-01
1.253395507e+00,2.29672e-11,9.99999e-01,3.26516e-11,7.03400e-01,9.99999e-01
1.259662485e+00,8.89018e-07,9.99999e-01,1.25513e-06,7.08306e-01,9.99999e-01
1.265960797e+00,4.04832e-04,9.99999e-01,5.67670e-04,7.13147e-01,9.99999e-01
1.272290601e+00,1.66874e-02,9.99999e-01,2.32439e-02,7.17925e-01,9.99999e-01
1.278652054e+00,2.00620e-02,9.99999e-01,2.77620e-02,7.22640e-01,9.99999e-01
1.285045314e+00,1.94609e-05,9.99999e-01,2.67580e-05,7.27292e-01,9.99999e-01
1.291470541e+00,4.17869e-15,9.99999e-01,5.70951e-15,7.31881e-01,9.99999e-01
1.297927893e+00,1.63220e-06,9.99999e-01,2.21644e-06,7.36407e-01,9.99999e-01
1.304417533e+00,1.12818e-03,9.99999e-01,1.52278e-03,7.40871e-01,9.99999e-01
1.310939621e+00,3.03941e-04,9.99999e-01,4.07825e-04,7.45273e-01,9.99999e-01
1.317494319e+00,1.23316e-43,9.99999e-01,1.64505e-43,7.49614e-01,9.99999e-01
1.324081790e+00,1.37408e-28,9.99999e-01,1.82265e-28,7.53893e-01,9.99999e-01
1.330702199e+00,5.16158e-17,9.99999e-01,6.80846e-17,7.58112e-01,9.99999e-01
1.337355710e+00,1.50461e-15,9.99999e-01,1.97385e-15,7.62270e-01,9.99999e-01
1.344042489e+00,8.30464e-16,9.99999e-01,1.08363e-15,7.66368e-01,9.99999e-01
1.350762701e+00,2.50911e-17,9.99999e-01,3.25686e-17,7.70407e-01,9.99999e-01
1.357516515e+00,1.50667e-10,9.99999e-01,1.94563e-10,7.74386e-01,9.99999e-01
1.364304097e+00,8.67659e-08,9.99999e-01,1.11480e-07,7.78307e-01,9.99999e-01
1.371125618e+00,2.26527e-04,9.99999e-01,2.89613e-04,7.82170e-01,9.99999e-01
1.377981246e+00,6.75004e-04,9.99999e-01,8.58811e-04,7.85975e-01,9.99999e-01
1.384871152e+00,1.27942e-02,9.99999e-01,1.62008e-02,7.89723e-01,9.99999e-01
1.391795508e+00,1.77784e-02,9.99999e-01,2.24075e-02,7.93414e-01,9.99999e-01
1.398754485e+00,7.22580e-02,9.99999e-01,9.06569e-02,7.97049e-01,9.99999e-01
1.405748258e+00,1.39521e-01,9.99999e-01,1.74264e-01,8.00628e-01,9.99999e-01
1.412776999e+00,2.63876e-01,9.99999e-01,3.28141e-01,8.04152e-01,9.99999e-01
1.419840884e+00,2.53061e-01,9.99999e-01,3.13340e-01,8.07622e-01,9.99999e-01
1.426940089e+00,8.85724e-03,9.99999e-01,1.09209e-02,8.11037e-01,9.99999e-01
1.434074789e+00,0.00000e+00,9.99999e-01,0.00000e+00,8.14400e-01,9.99999e-01
1.441245163e+00,0.00000e+00,9.99999e-01,0.00000e+00,8.17709e-01,9.99999e-01
1.448451389e+00,0.00000e+00,9.99999e-01,0.00000e+00,8.20966e-01,9.99999e-01
1.455693646e+00,0.00000e+00,9.99999e-01,0.00000e+00,8.24171e-01,9.99999e-01
1.462972114e+00,0.00000e+00,9.99999e-01,0.00000e+00,8.27325e-01,9.99999e-01
1.470286975e+00,3.04094e-213,9.99999e-01,3.66189e-213,8.30429e-01,9.99999e-01
