#,Wave/freq,Total,O2,CO2,Rayleigh,CIA
4.000000000e-01,5.22373e-05,9.99999e-01,9.99999e-01,5.22373e-05,9.99999e-01
4.020000000e-01,6.34814e-05,9.99999e-01,9.99999e-01,6.34814e-05,9.99999e-01
4.040100000e-01,7.68342e-05,9.99999e-01,9.99999e-01,7.68342e-05,9.99999e-01
4.060300500e-01,9.26456e-05,9.99999e-01,9.99999e-01,9.26456e-05,9.99999e-01
4.080602003e-01,1.11299e-04,9.99999e-01,9.99999e-01,1.11299e-04,9.99999e-01
4.101005013e-01,1.33224e-04,9.99999e-01,9.99999e-01,1.33224e-04,9.99999e-01
4.121510038e-01,1.58902e-04,9.99999e-01,9.99999e-01,1.58902e-04,9.99999e-01
4.142117588e-01,1.88872e-04,9.99999e-01,9.99999e-01,1.88872e-04,9.99999e-01
4.162828176e-01,2.23729e-04,9.99999e-01,9.99999e-01,2.23729e-04,9.99999e-01
4.183642317e-01,2.64134e-04,9.99999e-01,9.99999e-01,2.64134e-04,9.99999e-01
4.204560528e-01,3.10815e-04,9.99999e-01,9.99999e-01,3.10815e-04,9.99999e-01
4.225583331e-01,3.64573e-04,9.99999e-01,9.99999e-01,3.64573e-04,9.99999e-01
4.246711247e-01,4.26283e-04,9.99999e-01,9.99999e-01,4.26283e-04,9.99999e-01
4.267944804e-01,4.96900e-04,9.99999e-01,9.99999e-01,4.96900e-04,9.99999e-01
4.289284528e-01,5.77466e-04,9.99999e-01,9.99999e-01,5.77466e-04,9.99999e-01
4.310730950e-01,6.69105e-04,9.99999e-01,9.99999e-01,6.69105e-04,9.99999e-01
4.332284605e-01,7.73034e-04,9.99999e-01,9.99999e-01,7.73034e-04,9.99999e-01
4.353946028e-01,8.90562e-04,9.99999e-01,9.99999e-01,8.90562e-04,9.99999e-01
4.375715758e-01,1.02309e-03,9.99999e-01,9.99999e-01,1.02309e-03,9.99999e-01
4.397594337e-01,1.17213e-03,9.99999e-01,9.99999e-01,1.17213e-03,9.99999e-01
4.419582309e-01,1.33928e-03,9.99999e-01,9.99999e-01,1.33928e-03,9.99999e-01
4.441680220e-01,1.52624e-03,9.99999e-01,9.99999e-01,1.52624e-03,9.99999e-01
4.463888621e-01,1.73482e-03,9.99999e-01,9.99999e-01,1.73482e-03,9.99999e-01
4.486208064e-01,1.96692e-03,9.99999e-01,9.99999e-01,1.96692e-03,9.99999e-01
4.508639105e-01,2.22454e-03,9.99999e-01,9.99999e-01,2.22454e-03,9.99999e-01
4.531182300e-01,2.50980e-03,9.99999e-01,9.99999e-01,2.50980e-03,9.99999e-01
4.553838212e-01,2.82490e-03,9.99999e-01,9.99999e-01,2.82490e-03,9.99999e-01
4.576607403e-01,3.17213e-03,9.99999e-01,9.99999e-01,3.17213e-03,9.99999e-01
4.599490440e-01,3.55391e-03,9.99999e-01,9.99999e-01,3.55391e-03,9.99999e-01
4.622487892e-01,3.97270e-03,9.99999e-01,9.99999e-01,3.97270e-03,9.99999e-01
4.645600332e-01,4.43108e-03,9.99999e-01,9.99999e-01,4.43108e-03,9.99999e-01
4.668828333e-01,4.93170e-03,9.99999e-01,9.99999e-01,4.93170e-03,9.99999e-01
4.692172475e-01,5.47729e-03,9.99999e-01,9.99999e-01,5.47729e-03,9.99999e-01
4.715633337e-01,6.07064e-03,9.99999e-01,9.99999e-01,6.07064e-03,9.99999e-01
4.739211504e-01,6.71462e-03,9.99999e-01,9.99999e-01,6.71462e-03,9.99999e-01
4.762907561e-01,7.41213e-03,9.99999e-01,9.99999e-01,7.41213e-03,9.99999e-01
4.786722099e-01,8.16614e-03,9.99999e-01,9.99999e-01,8.16614e-03,9.99999e-01
4.810655710e-01,8.97966e-03,9.99999e-01,9.99999e-01,8.97966e-03,9.99999e-01
4.834708988e-01,9.85571e-03,9.99999e-01,9.99999e-01,9.85571e-03,9.99999e-01
4.858882533e-01,1.07974e-02,9.99999e-01,9.99999e-01,1.07974e-02,9.99999e-01
4.883176946e-01,1.18077e-02,9.99999e-01,9.99999e-01,1.18077e-02,9.99999e-01
4.907592831e-01,1.28897e-02,9.99999e-01,9.99999e-01,1.28897e-02,9.99999e-01
4.932130795e-01,1.40466e-02,9.99999e-01,9.99999e-01,1.40466e-02,9.99999e-01
4.956791449e-01,1.52813e-02,9.99999e-01,9.99999e-01,1.52813e-02,9.99999e-01
4.981575406e-01,1.65970e-02,9.99999e-01,9.99999e-01,1.65970e-02,9.99999e-01
5.006483283e-01,1.79965e-02,9.99999e-01,9.99999e-01,1.79965e-02,9.99999e-01
5.031515699e-01,1.94828e-02,9.99999e-01,9.99999e-01,1.94828e-02,9.99999e-01
5.056673278e-01,2.10589e-02,9.99999e-01,9.99999e-01,2.10589e-02,9.99999e-01
5.081956644e-01,2.27275e-02,9.99999e-01,9.99999e-01,2.27275e-02,9.99999e-01
5.107366428e-01,2.44914e-02,9.99999e-01,9.99999e-01,2.44914e-02,9.99999e-01
5.132903260e-01,2.63533e-02,9.99999e-01,9.99999e-01,2.63533e-02,9.99999e-01
5.158567776e-01,2.83157e-02,9.99999e-01,9.99999e-01,2.83157e-02,9.99999e-01
5.184360615e-01,3.03811e-02,9.99999e-01,9.99999e-01,3.03811e-02,9.99999e-01
5.210282418e-01,3.25519e-02,9.99999e-01,9.99999e-01,3.25519e-02,9.99999e-01
5.236333830e-01,3.48302e-02,9.99999e-01,9.99999e-01,3.48302e-02,9.99999e-01
5.262515499e-01,3.72183e-02,9.99999e-01,9.99999e-01,3.72183e-02,9.99999e-01
5.288828077e-01,3.97180e-02,9.99999e-01,9.99999e-01,3.97180e-02,9.99999e-01
5.315272217e-01,4.23312e-02,9.99999e-01,9.99999e-01,4.23312e-02,9.99999e-01
5.341848578e-01,4.50596e-02,9.99999e-01,9.99999e-01,4.50596e-02,9.99999e-01
5.368557821e-01,4.79048e-02,9.99999e-01,9.99999e-01,4.79048e-02,9.99999e-01
5.395400610e-01,5.08680e-02,9.99999e-01,9.99999e-01,5.08680e-02,9.99999e-01
5.422377613e-01,5.39505e-02,9.99999e-01,9.99999e-01,5.39505e-02,9.99999e-01
5.449489501e-01,5.71533e-02,9.99999e-01,9.99999e-01,5.71533e-02,9.99999e-01
5.476736949e-01,6.04774e-02,9.99999e-01,9.99999e-01,6.04774e-02,9.99999e-01
5.504120634e-01,6.39234e-02,9.99999e-01,9.99999e-01,6.39234e-02,9.99999e-01
5.531641237e-01,6.74918e-02,9.99999e-01,9.99999e-01,6.74918e-02,9.99999e-01
5.559299443e-01,7.11829e-02,9.99999e-01,9.99999e-01,7.11829e-02,9.99999e-01
5.587095940e-01,7.49971e-02,9.99999e-01,9.99999e-01,7.49971e-02,9.99999e-01
5.615031420e-01,7.89342e-02,9.99999e-01,9.99999e-01,7.89342e-02,9.99999e-01
5.643106577e-01,8.29940e-02,9.99999e-01,9.99999e-01,8.29940e-02,9.99999e-01
5.671322110e-01,8.71763e-02,9.99999e-01,9.99999e-01,8.71763e-02,9.99999e-01
5.699678720e-01,9.14804e-02,9.99999e-01,9.99999e-01,9.14804e-02,9.99999e-01
5.728177114e-01,9.59057e-02,9.99999e-01,9.99999e-01,9.59057e-02,9.99999e-01
5.756818000e-01,1.00451e-01,9.99999e-01,9.99999e-01,1.00451e-01,9.99999e-01
5.785602090e-01,1.05116e-01,9.99999e-01,9.99999e-01,1.05116e-01,9.99999e-01
5.814530100e-01,1.09899e-01,9.99999e-01,9.99999e-01,1.09899e-01,9.99999e-01
5.843602750e-01,1.14799e-01,9.99999e-01,9.99999e-01,1.14799e-01,9.99999e-01
5.872820764e-01,1.19813e-01,9.99999e-01,9.99999e-01,1.19813e-01,9.99999e-01
5.902184868e-01,1.24942e-01,9.99999e-01,9.99999e-01,1.24942e-01,9.99999e-01
5.931695792e-01,1.30181e-01,9.99999e-01,9.99999e-01,1.30181e-01,9.99999e-01
5.961354271e-01,1.35531e-01,9.99999e-01,9.99999e-01,1.35531e-01,9.99999e-01
5.991161043e-01,1.40988e-01,9.99999e-01,9.99999e-01,1.40988e-01,9.99999e-01
6.021116848e-01,1.46551e-01,9.99999e-01,9.99999e-01,1.46551e-01,9.99999e-01
6.051222432e-01,1.52217e-01,9.99999e-01,9.99999e-01,1.52217e-01,9.99999e-01
6.081478544e-01,1.57983e-01,9.99999e-01,9.99999e-01,1.57983e-01,9.99999e-01
6.111885937e-01,1.63848e-01,9.99999e-01,9.99999e-01,1.63848e-01,9.99999e-01
6.142445367e-01,1.69808e-01,9.99999e-01,9.99999e-01,1.69808e-01,9.99999e-01
6.173157594e-01,1.75860e-01,9.99999e-01,9.99999e-01,1.75860e-01,9.99999e-01
6.204023382e-01,1.82003e-01,9.99999e-01,9.99999e-01,1.82003e-01,9.99999e-01
6.235043498e-01,1.88232e-01,9.99999e-01,9.99999e-01,1.88232e-01,9.99999e-01
6.266218716e-01,1.94545e-01,9.99999e-01,9.99999e-01,1.94545e-01,9.99999e-01
6.297549810e-01,2.00938e-01,9.99999e-01,9.99999e-01,2.00938e-01,9.99999e-01
6.329037559e-01,2.07410e-01,9.99999e-01,9.99999e-01,2.07410e-01,9.99999e-01
6.360682746e-01,2.13955e-01,9.99999e-01,9.99999e-01,2.13955e-01,9.99999e-01
6.392486160e-01,2.20572e-01,9.99999e-01,9.99999e-01,2.20572e-01,9.99999e-01
6.424448591e-01,2.27257e-01,9.99999e-01,9.99999e-01,2.27257e-01,9.99999e-01
6.456570834e-01,2.34007e-01,9.99999e-01,9.99999e-01,2.34007e-01,9.99999e-01
6.488853688e-01,2.40817e-01,9.99999e-01,9.99999e-01,2.40817e-01,9.99999e-01
6.521297956e-01,2.47685e-01,9.99999e-01,9.99999e-01,2.47685e-01,9.99999e-01
6.553904446e-01,2.54608e-01,9.99999e-01,9.99999e-01,2.54608e-01,9.99999e-01
6.586673968e-01,2.61582e-01,9.99999e-01,9.99999e-01,2.61582e-01,9.99999e-01
6.619607338e-01,2.68604e-01,9.99999e-01,9.99999e-01,2.68604e-01,9.99999e-01
6.652705375e-01,2.75669e-01,9.99999e-01,9.99999e-01,2.75669e-01,9.99999e-01
6.685968902e-01,2.82776e-01,9.99999e-01,9.99999e-01,2.82776e-01,9.99999e-01
6.719398746e-01,2.89919e-01,9.99999e-01,9.99999e-01,2.89919e-01,9.99999e-01
6.752995740e-01,2.97097e-01,9.99999e-01,9.99999e-01,2.97097e-01,9.99999e-01
6.786760719e-01,3.04306e-01,9.99999e-01,9.99999e-01,3.04306e-01,9.99999e-01
6.820694522e-01,3.11542e-01,9.99999e-01,9.99999e-01,3.11542e-01,9.99999e-01
6.854797995e-01,3.18801e-01,9.99999e-01,9.99999e-01,3.18801e-01,9.99999e-01
6.889071985e-01,3.26082e-01,9.99999e-01,9.99999e-01,3.26082e-01,9.99999e-01
6.923517345e-01,3.33380e-01,9.99999e-01,9.99999e-01,3.33380e-01,9.99999e-01
6.958134932e-01,3.40693e-01,9.99999e-01,9.99999e-01,3.40693e-01,9.99999e-01
6.992925606e-01,3.48017e-01,9.99999e-01,9.99999e-01,3.48017e-01,9.99999e-01
7.027890234e-01,3.55349e-01,9.99999e-01,9.99999e-01,3.55349e-01,9.99999e-01
7.063029686e-01,3.62686e-01,9.99999e-01,9.99999e-01,3.62686e-01,9.99999e-01
7.098344834e-01,3.70025e-01,9.99999e-01,9.99999e-01,3.70025e-01,9.99999e-01
7.133836558e-01,3.77363e-01,9.99999e-01,9.99999e-01,3.77363e-01,9.99999e-01
7.169505741e-01,3.84697e-01,9.99999e-01,9.99999e-01,3.84697e-01,9.99999e-01
7.205353270e-01,3.92025e-01,9.99999e-01,9.99999e-01,3.92025e-01,9.99999e-01
7.241380036e-01,3.99344e-01,9.99999e-01,9.99999e-01,3.99344e-01,9.99999e-01
7.277586936e-01,4.06651e-01,9.99999e-01,9.99999e-01,4.06651e-01,9.99999e-01
7.313974871e-01,4.13943e-01,9.99999e-01,9.99999e-01,4.13943e-01,9.99999e-01
7.350544745e-01,4.21218e-01,9.99999e-01,9.99999e-01,4.21218e-01,9.99999e-01
7.387297469e-01,4.28473e-01,9.99999e-01,9.99999e-01,4.28473e-01,9.99999e-01
7.424233956e-01,4.35707e-01,9.99999e-01,9.99999e-01,4.35707e-01,9.99999e-01
7.461355126e-01,4.42915e-01,9.99999e-01,9.99999e-01,4.42915e-01,9.99999e-01
7.498661902e-01,4.50098e-01,9.99999e-01,9.99999e-01,4.50098e-01,9.99999e-01
7.536155211e-01,4.57251e-01,9.99999e-01,9.99999e-01,4.57251e-01,9.99999e-01
7.573835987e-01,4.64374e-01,9.99999e-01,9.99999e-01,4.64374e-01,9.99999e-01
7.611705167e-01,4.71463e-01,9.99999e-01,9.99999e-01,4.71463e-01,9.99999e-01
7.649763693e-01,4.78518e-01,9.99999e-01,9.99999e-01,4.78518e-01,9.99999e-01
7.688012511e-01,4.85535e-01,9.99999e-01,9.99999e-01,4.85535e-01,9.99999e-01
7.726452574e-01,4.92514e-01,9.99999e-01,9.99999e-01,4.92514e-01,9.99999e-01
7.765084837e-01,4.99453e-01,9.99999e-01,9.99999e-01,4.99453e-01,9.99999e-01
7.803910261e-01,4.89390e-01,9.99999e-01,9.66507e-01,5.06349e-01,9.99999e-01
7.842929812e-01,4.44691e-01,9.99999e-01,8.66504e-01,5.13201e-01,9.99999e-01
7.882144461e-01,4.45564e-01,9.99999e-01,8.56839e-01,5.20008e-01,9.99999e-01
7.921555184e-01,4.81423e-01,9.99999e-01,9.13918e-01,5.26768e-01,9.99999e-01
7.961162960e-01,5.02516e-01,9.99999e-01,9.41957e-01,5.33480e-01,9.99999e-01
8.000968774e-01,5.22886e-01,9.99999e-01,9.68051e-01,5.40143e-01,9.99999e-01
8.040973618e-01,5.37671e-01,9.99999e-01,9.83386e-01,5.46754e-01,9.99999e-01
8.081178486e-01,5.49060e-01,9.99999e-01,9.92311e-01,5.53313e-01,9.99999e-01
8.121584379e-01,5.58500e-01,9.99999e-01,9.97642e-01,5.59820e-01,9.99999e-01
8.162192301e-01,5.65977e-01,9.99999e-01,9.99478e-01,5.66272e-01,9.99999e-01
8.203003262e-01,5.72664e-01,9.99999e-01,9.99992e-01,5.72668e-01,9.99999e-01
8.244018279e-01,5.79009e-01,9.99999e-01,9.99999e-01,5.79009e-01,9.99999e-01
8.285238370e-01,5.85292e-01,9.99999e-01,9.99999e-01,5.85292e-01,9.99999e-01
8.326664562e-01,5.91518e-01,9.99999e-01,9.99999e-01,5.91518e-01,9.99999e-01
8.368297885e-01,5.97684e-01,9.99999e-01,9.99999e-01,5.97684e-01,9.99999e-01
8.410139374e-01,6.03792e-01,9.99999e-01,9.99999e-01,6.03792e-01,9.99999e-01
8.452190071e-01,6.09839e-01,9.99999e-01,9.99999e-01,6.09839e-01,9.99999e-01
8.494451021e-01,6.15826e-01,9.99999e-01,9.99999e-01,6.15826e-01,9.99999e-01
8.536923276e-01,6.21751e-01,9.99999e-01,9.99999e-01,6.21751e-01,9.99999e-01
8.579607893e-01,6.27615e-01,9.99999e-01,9.99999e-01,6.27615e-01,9.99999e-01
8.622505932e-01,6.33416e-01,9.99999e-01,9.99999e-01,6.33416e-01,9.99999e-01
8.665618462e-01,5.91378e-01,9.99999e-01,9.25249e-01,6.39155e-01,9.99999e-01
8.708946554e-01,4.47026e-01,9.99999e-01,6.93244e-01,6.44831e-01,9.99999e-01
8.752491287e-01,4.84912e-01,9.99999e-01,7.45508e-01,6.50444e-01,9.99999e-01
8.796253743e-01,5.58450e-01,9.99999e-01,8.51304e-01,6.55993e-01,9.99999e-01
8.840235012e-01,6.08525e-01,9.99999e-01,9.19945e-01,6.61479e-01,9.99999e-01
8.884436187e-01,6.45422e-01,9.99999e-01,9.67792e-01,6.66901e-01,9.99999e-01
8.928858368e-01,6.63388e-01,9.99999e-01,9.86803e-01,6.72259e-01,9.99999e-01
8.973502660e-01,6.75383e-01,9.99999e-01,9.96797e-01,6.77553e-01,9.99999e-01
9.018370173e-01,6.82542e-01,9.99999e-01,9.99647e-01,6.82783e-01,9.99999e-01
9.063462024e-01,6.81537e-01,9.99999e-01,9.90680e-01,6.87948e-01,9.99999e-01
9.108779334e-01,6.78638e-01,9.99999e-01,9.79205e-01,6.93050e-01,9.99999e-01
9.154323231e-01,6.94688e-01,9.99999e-01,9.95130e-01,6.98087e-01,9.99999e-01
9.200094847e-01,6.53469e-01,9.99999e-01,9.29463e-01,7.03061e-01,9.99999e-01
9.246095321e-01,6.38686e-01,9.99999e-01,9.02136e-01,7.07970e-01,9.99999e-01
9.292325798e-01,6.56983e-01,9.99999e-01,9.21671e-01,7.12816e-01,9.99999e-01
9.338787427e-01,6.63716e-01,9.99999e-01,9.24911e-01,7.17599e-01,9.99999e-01
9.385481364e-01,6.82042e-01,9.99999e-01,9.44240e-01,7.22318e-01,9.99999e-01
9.432408771e-01,7.01949e-01,9.99999e-01,9.65576e-01,7.26974e-01,9.99999e-01
9.479570815e-01,7.18514e-01,9.99999e-01,9.82157e-01,7.31567e-01,9.99999e-01
9.526968669e-01,7.29750e-01,9.99999e-01,9.91375e-01,7.36098e-01,9.99999e-01
9.574603512e-01,7.37831e-01,9.99999e-01,9.96306e-01,7.40566e-01,9.99999e-01
9.622476530e-01,7.44115e-01,9.99999e-01,9.98847e-01,7.44973e-01,9.99999e-01
9.670588912e-01,7.49059e-01,9.99999e-01,9.99655e-01,7.49317e-01,9.99999e-01
9.718941857e-01,7.53583e-01,9.99999e-01,9.99975e-01,7.53601e-01,9.99999e-01
9.767536566e-01,7.57824e-01,9.99999e-01,9.99999e-01,7.57824e-01,9.99999e-01
9.816374249e-01,7.61986e-01,9.99999e-01,9.99999e-01,7.61986e-01,9.99999e-01
9.865456120e-01,7.66088e-01,9.99999e-01,9.99999e-01,7.66088e-01,9.99999e-01
9.914783401e-01,7.70131e-01,9.99999e-01,9.99999e-01,7.70131e-01,9.99999e-01
9.964357318e-01,7.74115e-01,9.99999e-01,9.99999e-01,7.74115e-01,9.99999e-01
1.001417910e+00,7.78039e-01,9.99999e-01,9.99999e-01,7.78039e-01,9.99999e-01
1.006425000e+00,7.81906e-01,9.99999e-01,9.99999e-01,7.81906e-01,9.99999e-01
1.011457125e+00,7.85715e-01,9.99999e-01,9.99999e-01,7.85715e-01,9.99999e-01
1.016514411e+00,7.89467e-01,9.99999e-01,9.99999e-01,7.89467e-01,9.99999e-01
1.021596983e+00,7.93118e-01,9.99999e-01,9.99944e-01,7.93162e-01,9.99999e-01
1.026704968e+00,7.93888e-01,9.99999e-01,9.96344e-01,7.96800e-01,9.99999e-01
1.031838492e+00,7.63681e-01,9.99999e-01,9.54142e-01,8.00384e-01,9.99999e-01
1.036997685e+00,1.26890e-01,9.99999e-01,1.57841e-01,8.03911e-01,9.99999e-01
1.042182673e+00,1.06988e-01,9.99999e-01,1.32512e-01,8.07385e-01,9.99999e-01
1.047393587e+00,1.21956e-01,9.99999e-01,1.50413e-01,8.10804e-01,9.99999e-01
1.052630555e+00,3.96404e-03,9.99999e-01,4.86880e-03,8.14170e-01,9.99999e-01
1.057893707e+00,1.00412e-02,9.99999e-01,1.22831e-02,8.17483e-01,9.99999e-01
1.063183176e+00,3.20289e-02,9.99999e-01,3.90242e-02,8.20744e-01,9.99999e-01
1.068499092e+00,8.64898e-02,9.99999e-01,1.04969e-01,8.23952e-01,9.99999e-01
1.073841587e+00,1.99854e-01,9.99999e-01,2.41629e-01,8.27110e-01,9.99999e-01
1.079210795e+00,3.37716e-01,9.99999e-01,4.06780e-01,8.30217e-01,9.99999e-01
1.084606849e+00,5.08418e-01,9.99999e-01,6.10144e-01,8.33274e-01,9.99999e-01
1.090029883e+00,6.46941e-01,9.99999e-01,7.73592e-01,8.36281e-01,9.99999e-01
1.095480033e+00,7.39671e-01,9.99999e-01,8.81358e-01,8.39240e-01,9.99999e-01
1.100957433e+00,7.92424e-01,9.99999e-01,9.40953e-01,8.42150e-01,9.99999e-01
1.106462220e+00,8.24045e-01,9.99999e-01,9.75185e-01,8.45013e-01,9.99999e-01
1.111994531e+00,8.39969e-01,9.99999e-01,9.90729e-01,8.47828e-01,9.99999e-01
1.117554504e+00,8.48676e-01,9.99999e-01,9.97740e-01,8.50597e-01,9.99999e-01
1.123142276e+00,8.53195e-01,9.99999e-01,9.99852e-01,8.53320e-01,9.99999e-01
1.128757988e+00,8.55998e-01,9.99999e-01,9.99999e-01,8.55998e-01,9.99999e-01
1.134401778e+00,8.58631e-01,9.99999e-01,9.99999e-01,8.58631e-01,9.99999e-01
1.140073787e+00,8.61220e-01,9.99999e-01,9.99999e-01,8.61220e-01,9.99999e-01
1.145774156e+00,8.63765e-01,9.99999e-01,9.99999e-01,8.63765e-01,9.99999e-01
1.151503026e+00,8.66267e-01,9.99999e-01,9.99999e-01,8.66267e-01,9.99999e-01
1.157260541e+00,8.68727e-01,9.99999e-01,9.99999e-01,8.68727e-01,9.99999e-01
1.163046844e+00,8.71146e-01,9.99999e-01,9.99999e-01,8.71146e-01,9.99999e-01
1.168862078e+00,8.73522e-01,9.99999e-01,9.99999e-01,8.73522e-01,9.99999e-01
1.174706389e+00,8.75859e-01,9.99999e-01,9.99999e-01,8.75859e-01,9.99999e-01
1.180579921e+00,8.78155e-01,9.99999e-01,9.99999e-01,8.78155e-01,9.99999e-01
1.186482820e+00,8.80404e-01,9.99999e-01,9.99991e-01,8.80412e-01,9.99999e-01
1.192415234e+00,8.71105e-01,9.99999e-01,9.86943e-01,8.82629e-01,9.99999e-01
1.198377311e+00,4.97078e-01,9.99999e-01,5.61791e-01,8.84809e-01,9.99999e-01
1.204369197e+00,8.42440e-11,9.99999e-01,9.49816e-11,8.86950e-01,9.99999e-01
1.210391043e+00,5.47886e-39,9.99999e-01,6.16256e-39,8.89054e-01,9.99999e-01
1.216442998e+00,6.00759e-34,9.99999e-01,6.74160e-34,8.91122e-01,9.99999e-01
1.222525213e+00,1.84300e-33,9.99999e-01,2.06347e-33,8.93153e-01,9.99999e-01
1.228637839e+00,6.47281e-26,9.99999e-01,7.23098e-26,8.95149e-01,9.99999e-01
1.234781029e+00,7.22507e-17,9.99999e-01,8.05372e-17,8.97109e-01,9.99999e-01
1.240954934e+00,2.20173e-11,9.99999e-01,2.44899e-11,8.99035e-01,9.99999e-01
1.247159708e+00,2.11013e-06,9.99999e-01,2.34218e-06,9.00927e-01,9.99999e-01
1.253395507e+00,4.10623e-04,9.99999e-01,4.54839e-04,9.02786e-01,9.99999e-01
1.259662485e+00,1.09775e-02,9.99999e-01,1.21351e-02,9.04612e-01,9.99999e-01
1.265960797e+00,7.09997e-02,9.99999e-01,7.83310e-02,9.06405e-01,9.99999e-01
1.272290601e+00,3.09323e-01,9.99999e-01,3.40602e-01,9.08166e-01,9.99999e-01
1.278652054e+00,2.61843e-01,9.99999e-01,2.87772e-01,9.09895e-01,9.99999e-01
1.285045314e+00,5.60656e-03,9.99999e-01,6.15027e-03,9.11594e-01,9.99999e-01
1.291470541e+00,2.91671e-05,9.99999e-01,3.19373e-05,9.13262e-01,9.99999e-01
1.297927893e+00,1.03985e-02,9.99999e-01,1.13658e-02,9.14900e-01,9.99999e-01
1.304417533e+00,1.28635e-01,9.99999e-01,1.40354e-01,9.16509e-01,9.99999e-01
1.310939621e+00,2.10933e-02,9.99999e-01,2.29752e-02,9.18089e-01,9.99999e-01
1.317494319e+00,6.03061e-14,9.99999e-01,6.55757e-14,9.19640e-01,9.99999e-01
1.324081790e+00,1.71208e-07,9.99999e-01,1.85860e-07,9.21163e-01,9.99999e-01
1.330702199e+00,1.04919e-05,9.99999e-01,1.13714e-05,9.22658e-01,9.99999e-01
1.337355710e+00,1.31087e-05,9.99999e-01,1.41849e-05,9.24126e-01,9.99999e-01
1.344042489e+00,3.82284e-06,9.99999e-01,4.13026e-06,9.25568e-01,9.99999e-01
1.350762701e+00,6.74773e-06,9.99999e-01,7.27923e-06,9.26983e-01,9.99999e-01
1.357516515e+00,4.74949e-04,9.99999e-01,5.11593e-04,9.28372e-01,9.99999e-01
1.364304097e+00,6.70942e-03,9.99999e-01,7.21647e-03,9.29736e-01,9.99999e-01
1.371125618e+00,7.13375e-02,9.99999e-01,7.66184e-02,9.31075e-01,9.99999e-01
1.377981246e+00,1.13123e-01,9.99999e-01,1.21325e-01,9.32389e-01,9.99999e-01
1.384871152e+00,2.73831e-01,9.99999e-01,2.93282e-01,9.33679e-01,9.99999e-01
1.391795508e+00,3.01180e-01,9.99999e-01,3.22136e-01,9.34946e-01,9.99999e-01
1.398754485e+00,4.65178e-01,9.99999e-01,4.96884e-01,9.36189e-01,9.99999e-01
1.405748258e+00,5.60482e-01,9.99999e-01,5.97905e-01,9.37409e-01,9.99999e-01
1.412776999e+00,6.78342e-01,9.99999e-01,7.22711e-01,9.38607e-01,9.99999e-01
1.419840884e+00,6.07169e-01,9.99999e-01,6.46074e-01,9.39782e-01,9.99999e-01
1.426940089e+00,5.71786e-02,9.99999e-01,6.07678e-02,9.40935e-01,9.99999e-01
1.434074789e+00,0.00000e+00,9.99999e-01,0.00000e+00,9.42068e-01,9.99999e-01
1.441245163e+00,0.00000e+00,9.99999e-01,0.00000e+00,9.43179e-01,9.99999e-01
1.448451389e+00,0.00000e+00,9.99999e-01,0.00000e+00,9.44269e-01,9.99999e-01
1.455693646e+00,2.69810e-312,9.99999e-01,2.85410e-312,9.45339e-01,9.99999e-01
1.462972114e+00,2.26880e-151,9.99999e-01,2.39731e-151,9.46390e-01,9.99999e-01
1.470286975e+00,1.30911e-63,9.99999e-01,1.38177e-63,9.47420e-01,9.99999e-01
