#,Wave/freq,Total,O2,CO2,Rayleigh,CIA
4.000000000e-01,1.83066e-20,9.99999e-01,9.99999e-01,1.83066e-20,9.99999e-01
4.020000000e-01,4.49638e-20,9.99999e-01,9.99999e-01,4.49638e-20,9.99999e-01
4.040100000e-01,1.08397e-19,9.99999e-01,9.99999e-01,1.08397e-19,9.99999e-01
4.060300500e-01,2.56816e-19,9.99999e-01,9.99999e-01,2.56816e-19,9.99999e-01
4.080602003e-01,5.98175e-19,9.99999e-01,9.99999e-01,5.98175e-19,9.99999e-01
4.101005013e-01,1.37019e-18,9.99999e-01,9.99999e-01,1.37019e-18,9.99999e-01
4.121510038e-01,3.08762e-18,9.99999e-01,9.99999e-01,3.08762e-18,9.99999e-01
4.142117588e-01,6.84695e-18,9.99999e-01,9.99999e-01,6.84695e-18,9.99999e-01
4.162828176e-01,1.49465e-17,9.99999e-01,9.99999e-01,1.49465e-17,9.99999e-01
4.183642317e-01,3.21280e-17,9.99999e-01,9.99999e-01,3.21280e-17,9.99999e-01
4.204560528e-01,6.80242e-17,9.99999e-01,9.99999e-01,6.80242e-17,9.99999e-01
4.225583331e-01,1.41908e-16,9.99999e-01,9.99999e-01,1.41908e-16,9.99999e-01
4.246711247e-01,2.91773e-16,9.99999e-01,9.99999e-01,2.91773e-16,9.99999e-01
4.267944804e-01,5.91424e-16,9.99999e-01,9.99999e-01,5.91424e-16,9.99999e-01
4.289284528e-01,1.18220e-15,9.99999e-01,9.99999e-01,1.18220e-15,9.99999e-01
4.310730950e-01,2.33100e-15,9.99999e-01,9.99999e-01,2.33100e-15,9.99999e-01
4.332284605e-01,4.53493e-15,9.99999e-01,9.99999e-01,4.53493e-15,9.99999e-01
4.353946028e-01,8.70740e-15,9.99999e-01,9.99999e-01,8.70740e-15,9.99999e-01
4.375715758e-01,1.65048e-14,9.99999e-01,9.99999e-01,1.65048e-14,9.99999e-01
4.397594337e-01,3.08921e-14,9.99999e-01,9.99999e-01,3.08921e-14,9.99999e-01
4.419582309e-01,5.71092e-14,9.99999e-01,9.99999e-01,5.71092e-14,9.99999e-01
4.441680220e-01,1.04302e-13,9.99999e-01,9.99999e-01,1.04302e-13,9.99999e-01
4.463888621e-01,1.88241e-13,9.99999e-01,9.99999e-01,1.88241e-13,9.99999e-01
4.486208064e-01,3.35792e-13,9.99999e-01,9.99999e-01,3.35792e-13,9.99999e-01
4.508639105e-01,5.92191e-13,9.99999e-01,9.99999e-01,5.92191e-13,9.99999e-01
4.531182300e-01,1.03273e-12,9.99999e-01,9.99999e-01,1.03273e-12,9.99999e-01
4.553838212e-01,1.78131e-12,9.99999e-01,9.99999e-01,1.78131e-12,9.99999e-01
4.576607403e-01,3.03960e-12,9.99999e-01,9.99999e-01,3.03960e-12,9.99999e-01
4.599490440e-01,5.13227e-12,9.99999e-01,9.99999e-01,5.13227e-12,9.99999e-01
4.622487892e-01,8.57647e-12,9.99999e-01,9.99999e-01,8.57647e-12,9.99999e-01
4.645600332e-01,1.41874e-11,9.99999e-01,9.99999e-01,1.41874e-11,9.99999e-01
4.668828333e-01,2.32370e-11,9.99999e-01,9.99999e-01,2.32370e-11,9.99999e-01
4.692172475e-01,3.76898e-11,9.99999e-01,9.99999e-01,3.76898e-11,9.99999e-01
4.715633337e-01,6.05508e-11,9.99999e-01,9.99999e-01,6.05508e-11,9.99999e-01
4.739211504e-01,9.63714e-11,9.99999e-01,9.99999e-01,9.63714e-11,9.99999e-01
4.762907561e-01,1.51981e-10,9.99999e-01,9.99999e-01,1.51981e-10,9.99999e-01
4.786722099e-01,2.37533e-10,9.99999e-01,9.99999e-01,2.37533e-10,9.99999e-01
4.810655710e-01,3.67983e-10,9.99999e-01,9.99999e-01,3.67983e-10,9.99999e-01
4.834708988e-01,5.65165e-10,9.99999e-01,9.99999e-01,5.65165e-10,9.99999e-01
4.858882533e-01,8.60682e-10,9.99999e-01,9.99999e-01,8.60682e-10,9.99999e-01
4.883176946e-01,1.29988e-09,9.99999e-01,9.99999e-01,1.29988e-09,9.99999e-01
4.907592831e-01,1.94726e-09,9.99999e-01,9.99999e-01,1.94726e-09,9.99999e-01
4.932130795e-01,2.89388e-09,9.99999e-01,9.99999e-01,2.89388e-09,9.99999e-01
4.956791449e-01,4.26714e-09,9.99999e-01,9.99999e-01,4.26714e-09,9.99999e-01
4.981575406e-01,6.24400e-09,9.99999e-01,9.99999e-01,6.24400e-09,9.99999e-01
5.006483283e-01,9.06823e-09,9.99999e-01,9.99999e-01,9.06823e-09,9.99999e-01
5.031515699e-01,1.30732e-08,9.99999e-01,9.99999e-01,1.30732e-08,9.99999e-01
5.056673278e-01,1.87112e-08,9.99999e-01,9.99999e-01,1.87112e-08,9.99999e-01
5.081956644e-01,2.65918e-08,9.99999e-01,9.99999e-01,2.65918e-08,9.99999e-01
5.107366428e-01,3.75299e-08,9.99999e-01,9.99999e-01,3.75299e-08,9.99999e-01
5.132903260e-01,5.26080e-08,9.99999e-01,9.99999e-01,5.26080e-08,9.99999e-01
5.158567776e-01,7.32536e-08,9.99999e-01,9.99999e-01,7.32536e-08,9.99999e-01
5.184360615e-01,1.01337e-07,9.99999e-01,9.99999e-01,1.01337e-07,9.99999e-01
5.210282418e-01,1.39290e-07,9.99999e-01,9.99999e-01,1.39290e-07,9.99999e-01
5.236333830e-01,1.90259e-07,9.99999e-01,9.99999e-01,1.90259e-07,9.99999e-01
5.262515499e-01,2.58282e-07,9.99999e-01,9.99999e-01,2.58282e-07,9.99999e-01
5.288828077e-01,3.48515e-07,9.99999e-01,9.99999e-01,3.48515e-07,9.99999e-01
5.315272217e-01,4.67497e-07,9.99999e-01,9.99999e-01,4.67497e-07,9.99999e-01
5.341848578e-01,6.23471e-07,9.99999e-01,9.99999e-01,6.23471e-07,9.99999e-01
5.368557821e-01,8.26769e-07,9.99999e-01,9.99999e-01,8.26769e-07,9.99999e-01
5.395400610e-01,1.09026e-06,9.99999e-01,9.99999e-01,1.09026e-06,9.99999e-01
5.422377613e-01,1.42990e-06,9.99999e-01,9.99999e-01,1.42990e-06,9.99999e-01
5.449489501e-01,1.86531e-06,9.99999e-01,9.99999e-01,1.86531e-06,9.99999e-01
5.476736949e-01,2.42057e-06,9.99999e-01,9.99999e-01,2.42057e-06,9.99999e-01
5.504120634e-01,3.12500e-06,9.99999e-01,9.99999e-01,3.12500e-06,9.99999e-01
5.531641237e-01,4.01412e-06,9.99999e-01,9.99999e-01,4.01412e-06,9.99999e-01
5.559299443e-01,5.13077e-06,9.99999e-01,9.99999e-01,5.13077e-06,9.99999e-01
5.587095940e-01,6.52634e-06,9.99999e-01,9.99999e-01,6.52634e-06,9.99999e-01
5.615031420e-01,8.26214e-06,9.99999e-01,9.99999e-01,8.26214e-06,9.99999e-01
5.643106577e-01,1.04110e-05,9.99999e-01,9.99999e-01,1.04110e-05,9.99999e-01
5.671322110e-01,1.30590e-05,9.99999e-01,9.99999e-01,1.30590e-05,9.99999e-01
5.699678720e-01,1.63073e-05,9.99999e-01,9.99999e-01,1.63073e-05,9.99999e-01
5.728177114e-01,2.02745e-05,9.99999e-01,9.99999e-01,2.02745e-05,9.99999e-01
5.756818000e-01,2.50986e-05,9.99999e-01,9.99999e-01,2.50986e-05,9.99999e-01
5.785602090e-01,3.09398e-05,9.99999e-01,9.99999e-01,3.09398e-05,9.99999e-01
5.814530100e-01,3.79831e-05,9.99999e-01,9.99999e-01,3.79831e-05,9.99999e-01
5.843602750e-01,4.64414e-05,9.99999e-01,9.99999e-01,4.64414e-05,9.99999e-01
5.872820764e-01,5.65580e-05,9.99999e-01,9.99999e-01,5.65580e-05,9.99999e-01
5.902184868e-01,6.86109e-05,9.99999e-01,9.99999e-01,6.86109e-05,9.99999e-01
5.931695792e-01,8.29153e-05,9.99999e-01,9.99999e-01,8.29153e-05,9.99999e-01
5.961354271e-01,9.98278e-05,9.99999e-01,9.99999e-01,9.98278e-05,9.99999e-01
5.991161043e-01,1.19750e-04,9.99999e-01,9.99999e-01,1.19750e-04,9.99999e-01
6.021116848e-01,1.43133e-04,9.99999e-01,9.99999e-01,1.43133e-04,9.99999e-01
6.051222432e-01,1.70480e-04,9.99999e-01,9.99999e-01,1.70480e-04,9.99999e-01
6.081478544e-01,2.02352e-04,9.99999e-01,9.99999e-01,2.02352e-04,9.99999e-01
6.111885937e-01,2.39371e-04,9.99999e-01,9.99999e-01,2.39371e-04,9.99999e-01
6.142445367e-01,2.82224e-04,9.99999e-01,9.99999e-01,2.82224e-04,9.99999e-01
6.173157594e-01,3.31668e-04,9.99999e-01,9.99999e-01,3.31668e-04,9.99999e-01
6.204023382e-01,3.88533e-04,9.99999e-01,9.99999e-01,3.88533e-04,9.99999e-01
6.235043498e-01,4.53727e-04,9.99999e-01,9.99999e-01,4.53727e-04,9.99999e-01
6.266218716e-01,5.28240e-04,9.99999e-01,9.99999e-01,5.28240e-04,9.99999e-01
6.297549810e-01,6.13146e-04,9.99999e-01,9.99999e-01,6.13146e-04,9.99999e-01
6.329037559e-01,7.09606e-04,9.99999e-01,9.99999e-01,7.09606e-04,9.99999e-01
6.360682746e-01,8.18875e-04,9.99999e-01,9.99999e-01,8.18875e-04,9.99999e-01
6.392486160e-01,9.42300e-04,9.99999e-01,9.99999e-01,9.42300e-04,9.99999e-01
6.424448591e-01,1.08133e-03,9.99999e-01,9.99999e-01,1.08133e-03,9.99999e-01
6.456570834e-01,1.23749e-03,9.99999e-01,9.99999e-01,1.23749e-03,9.99999e-01
6.488853688e-01,1.41245e-03,9.99999e-01,9.99999e-01,1.41245e-03,9.99999e-01
6.521297956e-01,1.60793e-03,9.99999e-01,9.99999e-01,1.60793e-03,9.99999e-01
6.553904446e-01,1.82579e-03,9.99999e-01,9.99999e-01,1.82579e-03,9.99999e-01
6.586673968e-01,2.06797e-03,9.99999e-01,9.99999e-01,2.06797e-03,9.99999e-01
6.619607338e-01,2.33651e-03,9.99999e-01,9.99999e-01,2.33651e-03,9.99999e-01
6.652705375e-01,2.63358e-03,9.99999e-01,9.99999e-01,2.63358e-03,9.99999e-01
6.685968902e-01,2.96140e-03,9.99999e-01,9.99999e-01,2.96140e-03,9.99999e-01
6.719398746e-01,3.32231e-03,9.99999e-01,9.99999e-01,3.32231e-03,9.99999e-01
6.752995740e-01,3.71876e-03,9.99999e-01,9.99999e-01,3.71876e-03,9.99999e-01
6.786760719e-01,4.15326e-03,9.99999e-01,9.99999e-01,4.15326e-03,9.99999e-01
6.820694522e-01,4.62841e-03,9.99999e-01,9.99999e-01,4.62841e-03,9.99999e-01
6.854797995e-01,5.14689e-03,9.99999e-01,9.99999e-01,5.14689e-03,9.99999e-01
6.889071985e-01,5.71147e-03,9.99999e-01,9.99999e-01,5.71147e-03,9.99999e-01
6.923517345e-01,6.32496e-03,9.99999e-01,9.99999e-01,6.32496e-03,9.99999e-01
6.958134932e-01,6.99024e-03,9.99999e-01,9.99999e-01,6.99024e-03,9.99999e-01
6.992925606e-01,7.71025e-03,9.99999e-01,9.99999e-01,7.71025e-03,9.99999e-01
7.027890234e-01,8.48798e-03,9.99999e-01,9.99999e-01,8.48798e-03,9.99999e-01
7.063029686e-01,9.32643e-03,9.99999e-01,9.99999e-01,9.32643e-03,9.99999e-01
7.098344834e-01,1.02287e-02,9.99999e-01,9.99999e-01,1.02287e-02,9.99999e-01
7.133836558e-01,1.11977e-02,9.99999e-01,9.99999e-01,1.11977e-02,9.99999e-01
7.169505741e-01,1.22367e-02,9.99999e-01,9.99999e-01,1.22367e-02,9.99999e-01
7.205353270e-01,1.33487e-02,9.99999e-01,9.99999e-01,1.33487e-02,9.99999e-01
7.241380036e-01,1.45367e-02,9.99999e-01,9.99999e-01,1.45367e-02,9.99999e-01
7.277586936e-01,1.58038e-02,9.99999e-01,9.99999e-01,1.58038e-02,9.99999e-01
7.313974871e-01,1.71530e-02,9.99999e-01,9.99999e-01,1.71530e-02,9.99999e-01
7.350544745e-01,1.85873e-02,9.99999e-01,9.99999e-01,1.85873e-02,9.99999e-01
7.387297469e-01,2.01096e-02,9.99999e-01,9.99999e-01,2.01096e-02,9.99999e-01
7.424233956e-01,2.17228e-02,9.99999e-01,9.99999e-01,2.17228e-02,9.99999e-01
7.461355126e-01,2.34296e-02,9.99999e-01,9.99999e-01,2.34296e-02,9.99999e-01
7.498661902e-01,2.52328e-02,9.99999e-01,9.99999e-01,2.52328e-02,9.99999e-01
7.536155211e-01,2.71351e-02,9.99999e-01,9.99999e-01,2.71351e-02,9.99999e-01
7.573835987e-01,2.91389e-02,9.99999e-01,9.99999e-01,2.91389e-02,9.99999e-01
7.611705167e-01,3.12467e-02,9.99999e-01,9.99999e-01,3.12467e-02,9.99999e-01
7.649763693e-01,3.34607e-02,9.99999e-01,9.99999e-01,3.34607e-02,9.99999e-01
7.688012511e-01,3.57832e-02,9.99999e-01,9.99999e-01,3.57832e-02,9.99999e-01
7.726452574e-01,3.82162e-02,9.99999e-01,9.99999e-01,3.82162e-02,9.99999e-01
7.765084837e-01,4.07616e-02,9.99999e-01,9.99999e-01,4.07616e-02,9.99999e-01
7.803910261e-01,3.84386e-02,9.99999e-01,8.85247e-01,4.34213e-02,9.99999e-01
7.842929812e-01,2.51756e-02,9.99999e-01,5.44965e-01,4.61967e-02,9.99999e-01
7.882144461e-01,2.58865e-02,9.99999e-01,5.27332e-01,4.90895e-02,9.99999e-01
7.921555184e-01,3.48034e-02,9.99999e-01,6.67999e-01,5.21008e-02,9.99999e-01
7.961162960e-01,4.20332e-02,9.99999e-01,7.61030e-01,5.52319e-02,9.99999e-01
8.000968774e-01,5.04069e-02,9.99999e-01,8.61896e-01,5.84837e-02,9.99999e-01
8.040973618e-01,5.72779e-02,9.99999e-01,9.25971e-01,6.18570e-02,9.99999e-01
8.081178486e-01,6.30728e-02,9.99999e-01,9.65116e-01,6.53525e-02,9.99999e-01
8.121584379e-01,6.82260e-02,9.99999e-01,9.89204e-01,6.89705e-02,9.99999e-01
8.162192301e-01,7.25373e-02,9.99999e-01,9.97604e-01,7.27115e-02,9.99999e-01
8.203003262e-01,7.65729e-02,9.99999e-01,9.99967e-01,7.65754e-02,9.99999e-01
8.244018279e-01,8.05621e-02,9.99999e-01,9.99999e-01,8.05621e-02,9.99999e-01
8.285238370e-01,8.46716e-02,9.99999e-01,9.99999e-01,8.46716e-02,9.99999e-01
8.326664562e-01,8.89032e-02,9.99999e-01,9.99999e-01,8.89032e-02,9.99999e-01
8.368297885e-01,9.32565e-02,9.99999e-01,9.99999e-01,9.32565e-02,9.99999e-01
8.410139374e-01,9.77306e-02,9.99999e-01,9.99999e-01,9.77306e-02,9.99999e-01
8.452190071e-01,1.02325e-01,9.99999e-01,9.99999e-01,1.02325e-01,9.99999e-01
8.494451021e-01,1.07037e-01,9.99999e-01,9.99999e-01,1.07037e-01,9.99999e-01
8.536923276e-01,1.11868e-01,9.99999e-01,9.99999e-01,1.11868e-01,9.99999e-01
8.579607893e-01,1.16814e-01,9.99999e-01,9.99999e-01,1.16814e-01,9.99999e-01
8.622505932e-01,1.21875e-01,9.99999e-01,9.99999e-01,1.21875e-01,9.99999e-01
8.665618462e-01,1.07302e-01,9.99999e-01,8.44576e-01,1.27048e-01,9.99999e-01
8.708946554e-01,3.01313e-02,9.99999e-01,2.27693e-01,1.32333e-01,9.99999e-01
8.752491287e-01,3.93987e-02,9.99999e-01,2.86064e-01,1.37726e-01,9.99999e-01
8.796253743e-01,7.05756e-02,9.99999e-01,4.92754e-01,1.43227e-01,9.99999e-01
8.840235012e-01,1.02066e-01,9.99999e-01,6.85781e-01,1.48831e-01,9.99999e-01
8.884436187e-01,1.33055e-01,9.99999e-01,8.60985e-01,1.54538e-01,9.99999e-01
8.928858368e-01,1.50853e-01,9.99999e-01,9.40803e-01,1.60345e-01,9.99999e-01
8.973502660e-01,1.63814e-01,9.99999e-01,9.85359e-01,1.66248e-01,9.99999e-01
9.018370173e-01,1.71967e-01,9.99999e-01,9.98380e-01,1.72246e-01,9.99999e-01
9.063462024e-01,1.71031e-01,9.99999e-01,9.59041e-01,1.78335e-01,9.99999e-01
9.108779334e-01,1.67590e-01,9.99999e-01,9.08284e-01,1.84513e-01,9.99999e-01
9.154323231e-01,1.86556e-01,9.99999e-01,9.77876e-01,1.90776e-01,9.99999e-01
9.200094847e-01,1.50132e-01,9.99999e-01,7.61617e-01,1.97122e-01,9.99999e-01
9.246095321e-01,1.27593e-01,9.99999e-01,6.26847e-01,2.03548e-01,9.99999e-01
9.292325798e-01,1.46598e-01,9.99999e-01,6.97922e-01,2.10050e-01,9.99999e-01
9.338787427e-01,1.52521e-01,9.99999e-01,7.04078e-01,2.16625e-01,9.99999e-01
9.385481364e-01,1.71976e-01,9.99999e-01,7.70261e-01,2.23269e-01,9.99999e-01
9.432408771e-01,1.95822e-01,9.99999e-01,8.51472e-01,2.29981e-01,9.99999e-01
9.479570815e-01,2.17941e-01,9.99999e-01,9.20533e-01,2.36755e-01,9.99999e-01
9.526968669e-01,2.34089e-01,9.99999e-01,9.60998e-01,2.43590e-01,9.99999e-01
9.574603512e-01,2.46253e-01,9.99999e-01,9.83120e-01,2.50480e-01,9.99999e-01
9.622476530e-01,2.56062e-01,9.99999e-01,9.94708e-01,2.57424e-01,9.99999e-01
9.670588912e-01,2.63999e-01,9.99999e-01,9.98414e-01,2.64418e-01,9.99999e-01
9.718941857e-01,2.71428e-01,9.99999e-01,9.99890e-01,2.71457e-01,9.99999e-01
9.767536566e-01,2.78540e-01,9.99999e-01,9.99999e-01,2.78540e-01,9.99999e-01
9.816374249e-01,2.85662e-01,9.99999e-01,9.99999e-01,2.85662e-01,9.99999e-01
9.865456120e-01,2.92820e-01,9.99999e-01,9.99999e-01,2.92820e-01,9.99999e-01
9.914783401e-01,3.00011e-01,9.99999e-01,9.99999e-01,3.00011e-01,9.99999e-01
9.964357318e-01,3.07230e-01,9.99999e-01,9.99999e-01,3.07230e-01,9.99999e-01
1.001417910e+00,3.14476e-01,9.99999e-01,9.99999e-01,3.14476e-01,9.99999e-01
1.006425000e+00,3.21745e-01,9.99999e-01,9.99999e-01,3.21745e-01,9.99999e-01
1.011457125e+00,3.29033e-01,9.99999e-01,9.99999e-01,3.29033e-01,9.99999e-01
1.016514411e+00,3.36338e-01,9.99999e-01,9.99999e-01,3.36338e-01,9.99999e-01
1.021596983e+00,3.43567e-01,9.99999e-01,9.99742e-01,3.43655e-01,9.99999e-01
1.026704968e+00,3.45163e-01,9.99999e-01,9.83418e-01,3.50983e-01,9.99999e-01
1.031838492e+00,3.14548e-01,9.99999e-01,8.77848e-01,3.58317e-01,9.99999e-01
1.036997685e+00,1.21311e-02,9.99999e-01,3.31764e-02,3.65655e-01,9.99999e-01
1.042182673e+00,2.65204e-04,9.99999e-01,7.11012e-04,3.72994e-01,9.99999e-01
1.047393587e+00,7.66067e-04,9.99999e-01,2.01421e-03,3.80331e-01,9.99999e-01
1.052630555e+00,5.34312e-09,9.99999e-01,1.37829e-08,3.87663e-01,9.99999e-01
1.057893707e+00,2.03649e-08,9.99999e-01,5.15583e-08,3.94988e-01,9.99999e-01
1.063183176e+00,1.98269e-06,9.99999e-01,4.92836e-06,4.02302e-01,9.99999e-01
1.068499092e+00,3.35847e-05,9.99999e-01,8.19933e-05,4.09603e-01,9.99999e-01
1.073841587e+00,9.03035e-04,9.99999e-01,2.16613e-03,4.16889e-01,9.99999e-01
1.079210795e+00,9.27892e-03,9.99999e-01,2.18762e-02,4.24156e-01,9.99999e-01
1.084606849e+00,4.79132e-02,9.99999e-01,1.11064e-01,4.31403e-01,9.99999e-01
1.090029883e+00,1.37954e-01,9.99999e-01,3.14513e-01,4.38627e-01,9.99999e-01
1.095480033e+00,2.51381e-01,9.99999e-01,5.63856e-01,4.45825e-01,9.99999e-01
1.100957433e+00,3.42899e-01,9.99999e-01,7.56958e-01,4.52996e-01,9.99999e-01
1.106462220e+00,4.10029e-01,9.99999e-01,8.91102e-01,4.60137e-01,9.99999e-01
1.111994531e+00,4.47659e-01,9.99999e-01,9.58077e-01,4.67247e-01,9.99999e-01
1.117554504e+00,4.69414e-01,9.99999e-01,9.89652e-01,4.74322e-01,9.99999e-01
1.123142276e+00,4.81036e-01,9.99999e-01,9.99322e-01,4.81362e-01,9.99999e-01
1.128757988e+00,4.88364e-01,9.99999e-01,9.99999e-01,4.88364e-01,9.99999e-01
1.134401778e+00,4.95327e-01,9.99999e-01,9.99999e-01,4.95327e-01,9.99999e-01
1.140073787e+00,5.02248e-01,9.99999e-01,9.99999e-01,5.02248e-01,9.99999e-01
1.145774156e+00,5.09127e-01,9.99999e-01,9.99999e-01,5.09127e-01,9.99999e-01
1.151503026e+00,5.15961e-01,9.99999e-01,9.99999e-01,5.15961e-01,9.99999e-01
1.157260541e+00,5.22749e-01,9.99999e-01,9.99999e-01,5.22749e-01,9.99999e-01
1.163046844e+00,5.29490e-01,9.99999e-01,9.99999e-01,5.29490e-01,9.99999e-01
1.168862078e+00,5.36182e-01,9.99999e-01,9.99999e-01,5.36182e-01,9.99999e-01
1.174706389e+00,5.42824e-01,9.99999e-01,9.99999e-01,5.42824e-01,9.99999e-01
1.180579921e+00,5.49415e-01,9.99999e-01,9.99999e-01,5.49415e-01,9.99999e-01
1.186482820e+00,5.55931e-01,9.99999e-01,9.99960e-01,5.55953e-01,9.99999e-01
1.192415234e+00,5.31356e-01,9.99999e-01,9.44738e-01,5.62437e-01,9.99999e-01
1.198377311e+00,2.79603e-01,9.99999e-01,4.91509e-01,5.68867e-01,9.99999e-01
1.204369197e+00,1.15884e-41,9.99999e-01,2.01452e-41,5.75241e-01,9.99999e-01
1.210391043e+00,1.40752e-171,9.99999e-01,2.42025e-171,5.81558e-01,9.99999e-01
1.216442998e+00,2.39304e-148,9.99999e-01,4.07104e-148,5.87818e-01,9.99999e-01
1.222525213e+00,4.17246e-146,9.99999e-01,7.02410e-146,5.94020e-01,9.99999e-01
1.228637839e+00,1.64061e-112,9.99999e-01,2.73361e-112,6.00163e-01,9.99999e-01
1.234781029e+00,1.26068e-69,9.99999e-01,2.07949e-69,6.06246e-01,9.99999e-01
1.240954934e+00,6.20346e-46,9.99999e-01,1.01319e-45,6.12269e-01,9.99999e-01
1.247159708e+00,1.31238e-21,9.99999e-01,2.12279e-21,6.18231e-01,9.99999e-01
1.253395507e+00,1.01614e-14,9.99999e-01,1.62809e-14,6.24131e-01,9.99999e-01
1.259662485e+00,1.43492e-08,9.99999e-01,2.27776e-08,6.29970e-01,9.99999e-01
1.265960797e+00,5.01360e-05,9.99999e-01,7.88616e-05,6.35746e-01,9.99999e-01
1.272290601e+00,6.35815e-03,9.99999e-01,9.91200e-03,6.41459e-01,9.99999e-01
1.278652054e+00,6.31696e-03,9.99999e-01,9.76179e-03,6.47110e-01,9.99999e-01
1.285045314e+00,1.27963e-06,9.99999e-01,1.96052e-06,6.52697e-01,9.99999e-01
1.291470541e+00,1.13972e-19,9.99999e-01,1.73151e-19,6.58221e-01,9.99999e-01
1.297927893e+00,1.55270e-06,9.99999e-01,2.33952e-06,6.63681e-01,9.99999e-01
1.304417533e+00,1.30650e-04,9.99999e-01,1.95268e-04,6.69077e-01,9.99999e-01
1.310939621e+00,2.77085e-05,9.99999e-01,4.10856e-05,6.74409e-01,9.99999e-01
1.317494319e+00,1.01059e-58,9.99999e-01,1.48687e-58,6.79677e-01,9.99999e-01
1.324081790e+00,1.97954e-26,9.99999e-01,2.89034e-26,6.84880e-01,9.99999e-01
1.330702199e+00,2.38359e-22,9.99999e-01,3.45438e-22,6.90020e-01,9.99999e-01
1.337355710e+00,3.27658e-20,9.99999e-01,4.71384e-20,6.95096e-01,9.99999e-01
1.344042489e+00,2.02177e-20,9.99999e-01,2.88780e-20,7.00107e-01,9.99999e-01
1.350762701e+00,1.11316e-22,9.99999e-01,1.57883e-22,7.05055e-01,9.99999e-01
1.357516515e+00,1.87694e-13,9.99999e-01,2.64380e-13,7.09939e-01,9.99999e-01
1.364304097e+00,5.33200e-10,9.99999e-01,7.45985e-10,7.14759e-01,9.99999e-01
1.371125618e+00,1.68368e-05,9.99999e-01,2.34002e-05,7.19516e-01,9.99999e-01
1.377981246e+00,6.60003e-05,9.99999e-01,9.11341e-05,7.24210e-01,9.99999e-01
1.384871152e+00,3.08543e-03,9.99999e-01,4.23334e-03,7.28840e-01,9.99999e-01
1.391795508e+00,5.00146e-03,9.99999e-01,6.81947e-03,7.33408e-01,9.99999e-01
1.398754485e+00,3.00291e-02,9.99999e-01,4.06946e-02,7.37913e-01,9.99999e-01
1.405748258e+00,7.35297e-02,9.99999e-01,9.90489e-02,7.42357e-01,9.99999e-01
1.412776999e+00,1.70320e-01,9.99999e-01,2.28085e-01,7.46738e-01,9.99999e-01
1.419840884e+00,1.67868e-01,9.99999e-01,2.23509e-01,7.51058e-01,9.99999e-01
1.426940089e+00,4.79913e-03,9.99999e-01,6.35379e-03,7.55317e-01,9.99999e-01
1.434074789e+00,0.00000e+00,9.99999e-01,0.00000e+00,7.59515e-01,9.99999e-01
1.441245163e+00,0.00000e+00,9.99999e-01,0.00000e+00,7.63653e-01,9.99999e-01
1.448451389e+00,0.00000e+00,9.99999e-01,0.00000e+00,7.67731e-01,9.99999e-01
1.455693646e+00,0.00000e+00,9.99999e-01,0.00000e+00,7.71750e-01,9.99999e-01
1.462972114e+00,0.00000e+00,9.99999e-01,0.00000e+00,7.75710e-01,9.99999e-01
1.470286975e+00,4.76933e-285,9.99999e-01,6.11757e-285,7.79611e-01,9.99999e-01
