#,Wave/freq,Total,O2,CO2,Rayleigh,CIA
4.000000000e-01,2.95909e-05,9.99999e-01,9.99999e-01,2.95909e-05,9.99999e-01
4.020000000e-01,3.63668e-05,9.99999e-01,9.99999e-01,3.63668e-05,9.99999e-01
4.040100000e-01,4.45033e-05,9.99999e-01,9.99999e-01,4.45033e-05,9.99999e-01
4.060300500e-01,5.42435e-05,9.99999e-01,9.99999e-01,5.42435e-05,9.99999e-01
4.080602003e-01,6.58574e-05,9.99999e-01,9.99999e-01,6.58574e-05,9.99999e-01
4.101005013e-01,7.96521e-05,9.99999e-01,9.99999e-01,7.96521e-05,9.99999e-01
4.121510038e-01,9.59752e-05,9.99999e-01,9.99999e-01,9.59752e-05,9.99999e-01
4.142117588e-01,1.15218e-04,9.99999e-01,9.99999e-01,1.15218e-04,9.99999e-01
4.162828176e-01,1.37821e-04,9.99999e-01,9.99999e-01,1.37821e-04,9.99999e-01
4.183642317e-01,1.64276e-04,9.99999e-01,9.99999e-01,1.64276e-04,9.99999e-01
4.204560528e-01,1.95131e-04,9.99999e-01,9.99999e-01,1.95131e-04,9.99999e-01
4.225583331e-01,2.30994e-04,9.99999e-01,9.99999e-01,2.30994e-04,9.99999e-01
4.246711247e-01,2.72539e-04,9.99999e-01,9.99999e-01,2.72539e-04,9.99999e-01
4.267944804e-01,3.20507e-04,9.99999e-01,9.99999e-01,3.20507e-04,9.99999e-01
4.289284528e-01,3.75713e-04,9.99999e-01,9.99999e-01,3.75713e-04,9.99999e-01
4.310730950e-01,4.39047e-04,9.99999e-01,9.99999e-01,4.39047e-04,9.99999e-01
4.332284605e-01,5.11482e-04,9.99999e-01,9.99999e-01,5.11482e-04,9.99999e-01
4.353946028e-01,5.94072e-04,9.99999e-01,9.99999e-01,5.94072e-04,9.99999e-01
4.375715758e-01,6.87961e-04,9.99999e-01,9.99999e-01,6.87961e-04,9.99999e-01
4.397594337e-01,7.94382e-04,9.99999e-01,9.99999e-01,7.94382e-04,9.99999e-01
4.419582309e-01,9.14664e-04,9.99999e-01,9.99999e-01,9.14664e-04,9.99999e-01
4.441680220e-01,1.05023e-03,9.99999e-01,9.99999e-01,1.05023e-03,9.99999e-01
4.463888621e-01,1.20260e-03,9.99999e-01,9.99999e-01,1.20260e-03,9.99999e-01
4.486208064e-01,1.37340e-03,9.99999e-01,9.99999e-01,1.37340e-03,9.99999e-01
4.508639105e-01,1.56434e-03,9.99999e-01,9.99999e-01,1.56434e-03,9.99999e-01
4.531182300e-01,1.77726e-03,9.99999e-01,9.99999e-01,1.77726e-03,9.99999e-01
4.553838212e-01,2.01407e-03,9.99999e-01,9.99999e-01,2.01407e-03,9.99999e-01
4.576607403e-01,2.27681e-03,9.99999e-01,9.99999e-01,2.27681e-03,9.99999e-01
4.599490440e-01,2.56759e-03,9.99999e-01,9.99999e-01,2.56759e-03,9.99999e-01
4.622487892e-01,2.88864e-03,9.99999e-01,9.99999e-01,2.88864e-03,9.99999e-01
4.645600332e-01,3.24229e-03,9.99999e-01,9.99999e-01,3.24229e-03,9.99999e-01
4.668828333e-01,3.63093e-03,9.99999e-01,9.99999e-01,3.63093e-03,9.99999e-01
4.692172475e-01,4.05708e-03,9.99999e-01,9.99999e-01,4.05708e-03,9.99999e-01
4.715633337e-01,4.52332e-03,9.99999e-01,9.99999e-01,4.52332e-03,9.99999e-01
4.739211504e-01,5.03232e-03,9.99999e-01,9.99999e-01,5.03232e-03,9.99999e-01
4.762907561e-01,5.58681e-03,9.99999e-01,9.99999e-01,5.58681e-03,9.99999e-01
4.786722099e-01,6.18960e-03,9.99999e-01,9.99999e-01,6.18960e-03,9.99999e-01
4.810655710e-01,6.84357e-03,9.99999e-01,9.99999e-01,6.84357e-03,9.99999e-01
4.834708988e-01,7.55164e-03,9.99999e-01,9.99999e-01,7.55164e-03,9.99999e-01
4.858882533e-01,8.31678e-03,9.99999e-01,9.99999e-01,8.31678e-03,9.99999e-01
4.883176946e-01,9.14200e-03,9.99999e-01,9.99999e-01,9.14200e-03,9.99999e-01
4.907592831e-01,1.00303e-02,9.99999e-01,9.99999e-01,1.00303e-02,9.99999e-01
4.932130795e-01,1.09849e-02,9.99999e-01,9.99999e-01,1.09849e-02,9.99999e-01
4.956791449e-01,1.20086e-02,9.99999e-01,9.99999e-01,1.20086e-02,9.99999e-01
4.981575406e-01,1.31048e-02,9.99999e-01,9.99999e-01,1.31048e-02,9.99999e-01
5.006483283e-01,1.42763e-02,9.99999e-01,9.99999e-01,1.42763e-02,9.99999e-01
5.031515699e-01,1.55262e-02,9.99999e-01,9.99999e-01,1.55262e-02,9.99999e-01
5.056673278e-01,1.68576e-02,9.99999e-01,9.99999e-01,1.68576e-02,9.99999e-01
5.081956644e-01,1.82735e-02,9.99999e-01,9.99999e-01,1.82735e-02,9.99999e-01
5.107366428e-01,1.97767e-02,9.99999e-01,9.99999e-01,1.97767e-02,9.99999e-01
5.132903260e-01,2.13703e-02,9.99999e-01,9.99999e-01,2.13703e-02,9.99999e-01
5.158567776e-01,2.30569e-02,9.99999e-01,9.99999e-01,2.30569e-02,9.99999e-01
5.184360615e-01,2.48393e-02,9.99999e-01,9.99999e-01,2.48393e-02,9.99999e-01
5.210282418e-01,2.67201e-02,9.99999e-01,9.99999e-01,2.67201e-02,9.99999e-01
5.236333830e-01,2.87020e-02,9.99999e-01,9.99999e-01,2.87020e-02,9.99999e-01
5.262515499e-01,3.07874e-02,9.99999e-01,9.99999e-01,3.07874e-02,9.99999e-01
5.288828077e-01,3.29785e-02,9.99999e-01,9.99999e-01,3.29785e-02,9.99999e-01
5.315272217e-01,3.52777e-02,9.99999e-01,9.99999e-01,3.52777e-02,9.99999e-01
5.341848578e-01,3.76869e-02,9.99999e-01,9.99999e-01,3.76869e-02,9.99999e-01
5.368557821e-01,4.02081e-02,9.99999e-01,9.99999e-01,4.02081e-02,9.99999e-01
5.395400610e-01,4.28432e-02,9.99999e-01,9.99999e-01,4.28432e-02,9.99999e-01
5.422377613e-01,4.55938e-02,9.99999e-01,9.99999e-01,4.55938e-02,9.99999e-01
5.449489501e-01,4.84614e-02,9.99999e-01,9.99999e-01,4.84614e-02,9.99999e-01
5.476736949e-01,5.14473e-02,9.99999e-01,9.99999e-01,5.14473e-02,9.99999e-01
5.504120634e-01,5.45527e-02,9.99999e-01,9.99999e-01,5.45527e-02,9.99999e-01
5.531641237e-01,5.77786e-02,9.99999e-01,9.99999e-01,5.77786e-02,9.99999e-01
5.559299443e-01,6.11259e-02,9.99999e-01,9.99999e-01,6.11259e-02,9.99999e-01
5.587095940e-01,6.45952e-02,9.99999e-01,9.99999e-01,6.45952e-02,9.99999e-01
5.615031420e-01,6.81871e-02,9.99999e-01,9.99999e-01,6.81871e-02,9.99999e-01
5.643106577e-01,7.19017e-02,9.99999e-01,9.99999e-01,7.19017e-02,9.99999e-01
5.671322110e-01,7.57393e-02,9.99999e-01,9.99999e-01,7.57393e-02,9.99999e-01
5.699678720e-01,7.96999e-02,9.99999e-01,9.99999e-01,7.96999e-02,9.99999e-01
5.728177114e-01,8.37831e-02,9.99999e-01,9.99999e-01,8.37831e-02,9.99999e-01
5.756818000e-01,8.79887e-02,9.99999e-01,9.99999e-01,8.79887e-02,9.99999e-01
5.785602090e-01,9.23160e-02,9.99999e-01,9.99999e-01,9.23160e-02,9.99999e-01
5.814530100e-01,9.67643e-02,9.99999e-01,9.99999e-01,9.67643e-02,9.99999e-01
5.843602750e-01,1.01333e-01,9.99999e-01,9.99999e-01,1.01333e-01,9.99999e-01
5.872820764e-01,1.06020e-01,9.99999e-01,9.99999e-01,1.06020e-01,9.99999e-01
5.902184868e-01,1.10826e-01,9.99999e-01,9.99999e-01,1.10826e-01,9.99999e-01
5.931695792e-01,1.15747e-01,9.99999e-01,9.99999e-01,1.15747e-01,9.99999e-01
5.961354271e-01,1.20784e-01,9.99999e-01,9.99999e-01,1.20784e-01,9.99999e-01
5.991161043e-01,1.25933e-01,9.99999e-01,9.99999e-01,1.25933e-01,9.99999e-01
6.021116848e-01,1.31194e-01,9.99999e-01,9.99999e-01,1.31194e-01,9.99999e-01
6.051222432e-01,1.36565e-01,9.99999e-01,9.99999e-01,1.36565e-01,9.99999e-01
6.081478544e-01,1.42042e-01,9.99999e-01,9.99999e-01,1.42042e-01,9.99999e-01
6.111885937e-01,1.47625e-01,9.99999e-01,9.99999e-01,1.47625e-01,9.99999e-01
6.142445367e-01,1.53310e-01,9.99999e-01,9.99999e-01,1.53310e-01,9.99999e-01
6.173157594e-01,1.59096e-01,9.99999e-01,9.99999e-01,1.59096e-01,9.99999e-01
6.204023382e-01,1.64978e-01,9.99999e-01,9.99999e-01,1.64978e-01,9.99999e-01
6.235043498e-01,1.70956e-01,9.99999e-01,9.99999e-01,1.70956e-01,9.99999e-01
6.266218716e-01,1.77026e-01,9.99999e-01,9.99999e-01,1.77026e-01,9.99999e-01
6.297549810e-01,1.83185e-01,9.99999e-01,9.99999e-01,1.83185e-01,9.99999e-01
6.329037559e-01,1.89431e-01,9.99999e-01,9.99999e-01,1.89431e-01,9.99999e-01
6.360682746e-01,1.95759e-01,9.99999e-01,9.99999e-01,1.95759e-01,9.99999e-01
6.392486160e-01,2.02168e-01,9.99999e-01,9.99999e-01,2.02168e-01,9.99999e-01
6.424448591e-01,2.08654e-01,9.99999e-01,9.99999e-01,2.08654e-01,9.99999e-01
6.456570834e-01,2.15214e-01,9.99999e-01,9.99999e-01,2.15214e-01,9.99999e-01
6.488853688e-01,2.21844e-01,9.99999e-01,9.99999e-01,2.21844e-01,9.99999e-01
6.521297956e-01,2.28541e-01,9.99999e-01,9.99999e-01,2.28541e-01,9.99999e-01
6.553904446e-01,2.35302e-01,9.99999e-01,9.99999e-01,2.35302e-01,9.99999e-01
6.586673968e-01,2.42124e-01,9.99999e-01,9.99999e-01,2.42124e-01,9.99999e-01
6.619607338e-01,2.49003e-01,9.99999e-01,9.99999e-01,2.49003e-01,9.99999e-01
6.652705375e-01,2.55936e-01,9.99999e-01,9.99999e-01,2.55936e-01,9.99999e-01
6.685968902e-01,2.62919e-01,9.99999e-01,9.99999e-01,2.62919e-01,9.99999e-01
6.719398746e-01,2.69949e-01,9.99999e-01,9.99999e-01,2.69949e-01,9.99999e-01
6.752995740e-01,2.77023e-01,9.99999e-01,9.99999e-01,2.77023e-01,9.99999e-01
6.786760719e-01,2.84137e-01,9.99999e-01,9.99999e-01,2.84137e-01,9.99999e-01
6.820694522e-01,2.91287e-01,9.99999e-01,9.99999e-01,2.91287e-01,9.99999e-01
6.854797995e-01,2.98471e-01,9.99999e-01,9.99999e-01,2.98471e-01,9.99999e-01
6.889071985e-01,3.05685e-01,9.99999e-01,9.99999e-01,3.05685e-01,9.99999e-01
6.923517345e-01,3.12926e-01,9.99999e-01,9.99999e-01,3.12926e-01,9.99999e-01
6.958134932e-01,3.20190e-01,9.99999e-01,9.99999e-01,3.20190e-01,9.99999e-01
6.992925606e-01,3.27474e-01,9.99999e-01,9.99999e-01,3.27474e-01,9.99999e-01
7.027890234e-01,3.34776e-01,9.99999e-01,9.99999e-01,3.34776e-01,9.99999e-01
7.063029686e-01,3.42091e-01,9.99999e-01,9.99999e-01,3.42091e-01,9.99999e-01
7.098344834e-01,3.49416e-01,9.99999e-01,9.99999e-01,3.49416e-01,9.99999e-01
7.133836558e-01,3.56749e-01,9.99999e-01,9.99999e-01,3.56749e-01,9.99999e-01
7.169505741e-01,3.64087e-01,9.99999e-01,9.99999e-01,3.64087e-01,9.99999e-01
7.205353270e-01,3.71426e-01,9.99999e-01,9.99999e-01,3.71426e-01,9.99999e-01
7.241380036e-01,3.78764e-01,9.99999e-01,9.99999e-01,3.78764e-01,9.99999e-01
7.277586936e-01,3.86097e-01,9.99999e-01,9.99999e-01,3.86097e-01,9.99999e-01
7.313974871e-01,3.93424e-01,9.99999e-01,9.99999e-01,3.93424e-01,9.99999e-01
7.350544745e-01,4.00740e-01,9.99999e-01,9.99999e-01,4.00740e-01,9.99999e-01
7.387297469e-01,4.08044e-01,9.99999e-01,9.99999e-01,4.08044e-01,9.99999e-01
7.424233956e-01,4.15333e-01,9.99999e-01,9.99999e-01,4.15333e-01,9.99999e-01
7.461355126e-01,4.22605e-01,9.99999e-01,9.99999e-01,4.22605e-01,9.99999e-01
7.498661902e-01,4.29856e-01,9.99999e-01,9.99999e-01,4.29856e-01,9.99999e-01
7.536155211e-01,4.37085e-01,9.99999e-01,9.99999e-01,4.37085e-01,9.99999e-01
7.573835987e-01,4.44289e-01,9.99999e-01,9.99999e-01,4.44289e-01,9.99999e-01
7.611705167e-01,4.51466e-01,9.99999e-01,9.99999e-01,4.51466e-01,9.99999e-01
7.649763693e-01,4.58614e-01,9.99999e-01,9.99999e-01,4.58614e-01,9.99999e-01
7.688012511e-01,4.65730e-01,9.99999e-01,9.99999e-01,4.65730e-01,9.99999e-01
7.726452574e-01,4.72813e-01,9.99999e-01,9.99999e-01,4.72813e-01,9.99999e-01
7.765084837e-01,4.79861e-01,9.99999e-01,9.99999e-01,4.79861e-01,9.99999e-01
7.803910261e-01,4.70210e-01,9.99999e-01,9.65778e-01,4.86871e-01,9.99999e-01
7.842929812e-01,4.24258e-01,9.99999e-01,8.59096e-01,4.93842e-01,9.99999e-01
7.882144461e-01,4.25489e-01,9.99999e-01,8.49665e-01,5.00773e-01,9.99999e-01
7.921555184e-01,4.61640e-01,9.99999e-01,9.09346e-01,5.07661e-01,9.99999e-01
7.961162960e-01,4.82853e-01,9.99999e-01,9.38481e-01,5.14504e-01,9.99999e-01
8.000968774e-01,5.03660e-01,9.99999e-01,9.66155e-01,5.21303e-01,9.99999e-01
8.040973618e-01,5.18731e-01,9.99999e-01,9.82344e-01,5.28054e-01,9.99999e-01
8.081178486e-01,5.30397e-01,9.99999e-01,9.91848e-01,5.34756e-01,9.99999e-01
8.121584379e-01,5.40046e-01,9.99999e-01,9.97481e-01,5.41409e-01,9.99999e-01
8.162192301e-01,5.47706e-01,9.99999e-01,9.99443e-01,5.48011e-01,9.99999e-01
8.203003262e-01,5.54555e-01,9.99999e-01,9.99991e-01,5.54560e-01,9.99999e-01
8.244018279e-01,5.61056e-01,9.99999e-01,9.99999e-01,5.61056e-01,9.99999e-01
8.285238370e-01,5.67497e-01,9.99999e-01,9.99999e-01,5.67497e-01,9.99999e-01
8.326664562e-01,5.73883e-01,9.99999e-01,9.99999e-01,5.73883e-01,9.99999e-01
8.368297885e-01,5.80213e-01,9.99999e-01,9.99999e-01,5.80213e-01,9.99999e-01
8.410139374e-01,5.86485e-01,9.99999e-01,9.99999e-01,5.86485e-01,9.99999e-01
8.452190071e-01,5.92700e-01,9.99999e-01,9.99999e-01,5.92700e-01,9.99999e-01
8.494451021e-01,5.98855e-01,9.99999e-01,9.99999e-01,5.98855e-01,9.99999e-01
8.536923276e-01,6.04951e-01,9.99999e-01,9.99999e-01,6.04951e-01,9.99999e-01
8.579607893e-01,6.10987e-01,9.99999e-01,9.99999e-01,6.10987e-01,9.99999e-01
8.622505932e-01,6.16962e-01,9.99999e-01,9.99999e-01,6.16962e-01,9.99999e-01
8.665618462e-01,5.75882e-01,9.99999e-01,9.24553e-01,6.22875e-01,9.99999e-01
8.708946554e-01,4.27253e-01,9.99999e-01,6.79552e-01,6.28727e-01,9.99999e-01
8.752491287e-01,4.64941e-01,9.99999e-01,7.32747e-01,6.34517e-01,9.99999e-01
8.796253743e-01,5.39741e-01,9.99999e-01,8.43023e-01,6.40244e-01,9.99999e-01
8.840235012e-01,5.91169e-01,9.99999e-01,9.15253e-01,6.45908e-01,9.99999e-01
8.884436187e-01,6.29188e-01,9.99999e-01,9.65739e-01,6.51508e-01,9.99999e-01
8.928858368e-01,6.47830e-01,9.99999e-01,9.85973e-01,6.57046e-01,9.99999e-01
8.973502660e-01,6.60255e-01,9.99999e-01,9.96582e-01,6.62519e-01,9.99999e-01
9.018370173e-01,6.67677e-01,9.99999e-01,9.99622e-01,6.67929e-01,9.99999e-01
9.063462024e-01,6.66731e-01,9.99999e-01,9.90280e-01,6.73275e-01,9.99999e-01
9.108779334e-01,6.63595e-01,9.99999e-01,9.77950e-01,6.78556e-01,9.99999e-01
9.154323231e-01,6.80215e-01,9.99999e-01,9.94794e-01,6.83774e-01,9.99999e-01
9.200094847e-01,6.38267e-01,9.99999e-01,9.26464e-01,6.88927e-01,9.99999e-01
9.246095321e-01,6.22241e-01,9.99999e-01,8.96578e-01,6.94017e-01,9.99999e-01
9.292325798e-01,6.41583e-01,9.99999e-01,9.17803e-01,6.99042e-01,9.99999e-01
9.338787427e-01,6.48120e-01,9.99999e-01,9.20620e-01,7.04003e-01,9.99999e-01
9.385481364e-01,6.67095e-01,9.99999e-01,9.41027e-01,7.08901e-01,9.99999e-01
9.432408771e-01,6.87685e-01,9.99999e-01,9.63501e-01,7.13734e-01,9.99999e-01
9.479570815e-01,7.04924e-01,9.99999e-01,9.81097e-01,7.18505e-01,9.99999e-01
9.526968669e-01,7.16593e-01,9.99999e-01,9.90847e-01,7.23212e-01,9.99999e-01
9.574603512e-01,7.25001e-01,9.99999e-01,9.96077e-01,7.27856e-01,9.99999e-01
9.622476530e-01,7.31540e-01,9.99999e-01,9.98775e-01,7.32437e-01,9.99999e-01
9.670588912e-01,7.36686e-01,9.99999e-01,9.99632e-01,7.36956e-01,9.99999e-01
9.718941857e-01,7.41393e-01,9.99999e-01,9.99973e-01,7.41412e-01,9.99999e-01
9.767536566e-01,7.45807e-01,9.99999e-01,9.99999e-01,7.45807e-01,9.99999e-01
9.816374249e-01,7.50140e-01,9.99999e-01,9.99999e-01,7.50140e-01,9.99999e-01
9.865456120e-01,7.54412e-01,9.99999e-01,9.99999e-01,7.54412e-01,9.99999e-01
9.914783401e-01,7.58623e-01,9.99999e-01,9.99999e-01,7.58623e-01,9.99999e-01
9.964357318e-01,7.62774e-01,9.99999e-01,9.99999e-01,7.62774e-01,9.99999e-01
1.001417910e+00,7.66865e-01,9.99999e-01,9.99999e-01,7.66865e-01,9.99999e-01
1.006425000e+00,7.70896e-01,9.99999e-01,9.99999e-01,7.70896e-01,9.99999e-01
1.011457125e+00,7.74869e-01,9.99999e-01,9.99999e-01,7.74869e-01,9.99999e-01
1.016514411e+00,7.78782e-01,9.99999e-01,9.99999e-01,7.78782e-01,9.99999e-01
1.021596983e+00,7.82597e-01,9.99999e-01,9.99946e-01,7.82638e-01,9.99999e-01
1.026704968e+00,7.83446e-01,9.99999e-01,9.96198e-01,7.86436e-01,9.99999e-01
1.031838492e+00,7.54355e-01,9.99999e-01,9.54666e-01,7.90177e-01,9.99999e-01
1.036997685e+00,1.20115e-01,9.99999e-01,1.51305e-01,7.93861e-01,9.99999e-01
1.042182673e+00,9.45439e-02,9.99999e-01,1.18552e-01,7.97489e-01,9.99999e-01
1.047393587e+00,1.12088e-01,9.99999e-01,1.39925e-01,8.01061e-01,9.99999e-01
1.052630555e+00,3.06688e-03,9.99999e-01,3.81178e-03,8.04579e-01,9.99999e-01
1.057893707e+00,7.88218e-03,9.99999e-01,9.75465e-03,8.08042e-01,9.99999e-01
1.063183176e+00,2.66418e-02,9.99999e-01,3.28323e-02,8.11451e-01,9.99999e-01
1.068499092e+00,7.55508e-02,9.99999e-01,9.27223e-02,8.14807e-01,9.99999e-01
1.073841587e+00,1.82111e-01,9.99999e-01,2.22599e-01,8.18110e-01,9.99999e-01
1.079210795e+00,3.17215e-01,9.99999e-01,3.86207e-01,8.21360e-01,9.99999e-01
1.084606849e+00,4.88440e-01,9.99999e-01,5.92364e-01,8.24559e-01,9.99999e-01
1.090029883e+00,6.30631e-01,9.99999e-01,7.61900e-01,8.27707e-01,9.99999e-01
1.095480033e+00,7.26655e-01,9.99999e-01,8.74639e-01,8.30804e-01,9.99999e-01
1.100957433e+00,7.81739e-01,9.99999e-01,9.37503e-01,8.33852e-01,9.99999e-01
1.106462220e+00,8.14822e-01,9.99999e-01,9.73677e-01,8.36850e-01,9.99999e-01
1.111994531e+00,8.31538e-01,9.99999e-01,9.90162e-01,8.39799e-01,9.99999e-01
1.117554504e+00,8.40672e-01,9.99999e-01,9.97592e-01,8.42700e-01,9.99999e-01
1.123142276e+00,8.45421e-01,9.99999e-01,9.99841e-01,8.45554e-01,9.99999e-01
1.128757988e+00,8.48360e-01,9.99999e-01,9.99999e-01,8.48360e-01,9.99999e-01
1.134401778e+00,8.51121e-01,9.99999e-01,9.99999e-01,8.51121e-01,9.99999e-01
1.140073787e+00,8.53835e-01,9.99999e-01,9.99999e-01,8.53835e-01,9.99999e-01
1.145774156e+00,8.56504e-01,9.99999e-01,9.99999e-01,8.56504e-01,9.99999e-01
1.151503026e+00,8.59129e-01,9.99999e-01,9.99999e-01,8.59129e-01,9.99999e-01
1.157260541e+00,8.61709e-01,9.99999e-01,9.99999e-01,8.61709e-01,9.99999e-01
1.163046844e+00,8.64246e-01,9.99999e-01,9.99999e-01,8.64246e-01,9.99999e-01
1.168862078e+00,8.66740e-01,9.99999e-01,9.99999e-01,8.66740e-01,9.99999e-01
1.174706389e+00,8.69192e-01,9.99999e-01,9.99999e-01,8.69192e-01,9.99999e-01
1.180579921e+00,8.71603e-01,9.99999e-01,9.99999e-01,8.71603e-01,9.99999e-01
1.186482820e+00,8.73965e-01,9.99999e-01,9.99992e-01,8.73972e-01,9.99999e-01
1.192415234e+00,8.64452e-01,9.99999e-01,9.86479e-01,8.76300e-01,9.99999e-01
1.198377311e+00,4.92913e-01,9.99999e-01,5.61028e-01,8.78589e-01,9.99999e-01
1.204369197e+00,2.71489e-11,9.99999e-01,3.08216e-11,8.80838e-01,9.99999e-01
1.210391043e+00,4.22694e-41,9.99999e-01,4.78675e-41,8.83048e-01,9.99999e-01
1.216442998e+00,9.03325e-36,9.99999e-01,1.02045e-35,8.85220e-01,9.99999e-01
1.222525213e+00,2.95475e-35,9.99999e-01,3.32983e-35,8.87355e-01,9.99999e-01
1.228637839e+00,2.62119e-27,9.99999e-01,2.94697e-27,8.89452e-01,9.99999e-01
1.234781029e+00,1.04255e-17,9.99999e-01,1.16941e-17,8.91512e-01,9.99999e-01
1.240954934e+00,5.88351e-12,9.99999e-01,6.58451e-12,8.93537e-01,9.99999e-01
1.247159708e+00,1.17695e-06,9.99999e-01,1.31426e-06,8.95526e-01,9.99999e-01
1.253395507e+00,2.68661e-04,9.99999e-01,2.99351e-04,8.97480e-01,9.99999e-01
1.259662485e+00,8.56665e-03,9.99999e-01,9.52485e-03,8.99399e-01,9.99999e-01
1.265960797e+00,6.11619e-02,9.99999e-01,6.78607e-02,9.01285e-01,9.99999e-01
1.272290601e+00,2.88875e-01,9.99999e-01,3.19857e-01,9.03137e-01,9.99999e-01
1.278652054e+00,2.46234e-01,9.99999e-01,2.72095e-01,9.04956e-01,9.99999e-01
1.285045314e+00,4.86865e-03,9.99999e-01,5.36938e-03,9.06743e-01,9.99999e-01
1.291470541e+00,1.66695e-05,9.99999e-01,1.83484e-05,9.08498e-01,9.99999e-01
1.297927893e+00,8.43474e-03,9.99999e-01,9.26667e-03,9.10222e-01,9.99999e-01
1.304417533e+00,1.14454e-01,9.99999e-01,1.25510e-01,9.11915e-01,9.99999e-01
1.310939621e+00,2.74720e-02,9.99999e-01,3.00707e-02,9.13577e-01,9.99999e-01
1.317494319e+00,1.35960e-14,9.99999e-01,1.48556e-14,9.15210e-01,9.99999e-01
1.324081790e+00,4.14997e-10,9.99999e-01,4.52651e-10,9.16813e-01,9.99999e-01
1.330702199e+00,5.58953e-06,9.99999e-01,6.08625e-06,9.18387e-01,9.99999e-01
1.337355710e+00,7.40418e-06,9.99999e-01,8.04860e-06,9.19933e-01,9.99999e-01
1.344042489e+00,2.23449e-06,9.99999e-01,2.42497e-06,9.21450e-01,9.99999e-01
1.350762701e+00,3.49390e-06,9.99999e-01,3.78562e-06,9.22940e-01,9.99999e-01
1.357516515e+00,3.14148e-04,9.99999e-01,3.39838e-04,9.24404e-01,9.99999e-01
1.364304097e+00,5.04132e-03,9.99999e-01,5.44513e-03,9.25840e-01,9.99999e-01
1.371125618e+00,6.13473e-02,9.99999e-01,6.61604e-02,9.27250e-01,9.99999e-01
1.377981246e+00,9.97025e-02,9.99999e-01,1.07365e-01,9.28635e-01,9.99999e-01
1.384871152e+00,2.53865e-01,9.99999e-01,2.72974e-01,9.29994e-01,9.99999e-01
1.391795508e+00,2.80641e-01,9.99999e-01,3.01334e-01,9.31328e-01,9.99999e-01
1.398754485e+00,4.44641e-01,9.99999e-01,4.76756e-01,9.32637e-01,9.99999e-01
1.405748258e+00,5.41490e-01,9.99999e-01,5.79801e-01,9.33923e-01,9.99999e-01
1.412776999e+00,6.62756e-01,9.99999e-01,7.08689e-01,9.35185e-01,9.99999e-01
1.419840884e+00,5.95444e-01,9.99999e-01,6.35870e-01,9.36424e-01,9.99999e-01
1.426940089e+00,5.44881e-02,9.99999e-01,5.81120e-02,9.37639e-01,9.99999e-01
1.434074789e+00,0.00000e+00,9.99999e-01,0.00000e+00,9.38833e-01,9.99999e-01
1.441245163e+00,0.00000e+00,9.99999e-01,0.00000e+00,9.40004e-01,9.99999e-01
1.448451389e+00,0.00000e+00,9.99999e-01,0.00000e+00,9.41153e-01,9.99999e-01
1.455693646e+00,0.00000e+00,9.99999e-01,0.00000e+00,9.42281e-01,9.99999e-01
1.462972114e+00,6.02883e-160,9.99999e-01,6.39060e-160,9.43389e-01,9.99999e-01
1.470286975e+00,3.87522e-67,9.99999e-01,4.10304e-67,9.44475e-01,9.99999e-01
