#,Wave/freq,Total,O2,CO2,Rayleigh,CIA
4.000000000e-01,7.48404e-05,9.99999e-01,9.99999e-01,7.48404e-05,9.99999e-01
4.020000000e-01,9.03060e-05,9.99999e-01,9.99999e-01,9.03060e-05,9.99999e-01
4.040100000e-01,1.08543e-04,9.99999e-01,9.99999e-01,1.08543e-04,9.99999e-01
4.060300500e-01,1.29989e-04,9.99999e-01,9.99999e-01,1.29989e-04,9.99999e-01
4.080602003e-01,1.55120e-04,9.99999e-01,9.99999e-01,1.55120e-04,9.99999e-01
4.101005013e-01,1.84464e-04,9.99999e-01,9.99999e-01,1.84464e-04,9.99999e-01
4.121510038e-01,2.18610e-04,9.99999e-01,9.99999e-01,2.18610e-04,9.99999e-01
4.142117588e-01,2.58208e-04,9.99999e-01,9.99999e-01,2.58208e-04,9.99999e-01
4.162828176e-01,3.03978e-04,9.99999e-01,9.99999e-01,3.03978e-04,9.99999e-01
4.183642317e-01,3.56710e-04,9.99999e-01,9.99999e-01,3.56710e-04,9.99999e-01
4.204560528e-01,4.17268e-04,9.99999e-01,9.99999e-01,4.17268e-04,9.99999e-01
4.225583331e-01,4.86598e-04,9.99999e-01,9.99999e-01,4.86598e-04,9.99999e-01
4.246711247e-01,5.65727e-04,9.99999e-01,9.99999e-01,5.65727e-04,9.99999e-01
4.267944804e-01,6.55769e-04,9.99999e-01,9.99999e-01,6.55769e-04,9.99999e-01
4.289284528e-01,7.57928e-04,9.99999e-01,9.99999e-01,7.57928e-04,9.99999e-01
4.310730950e-01,8.73500e-04,9.99999e-01,9.99999e-01,8.73500e-04,9.99999e-01
4.332284605e-01,1.00388e-03,9.99999e-01,9.99999e-01,1.00388e-03,9.99999e-01
4.353946028e-01,1.15055e-03,9.99999e-01,9.99999e-01,1.15055e-03,9.99999e-01
4.375715758e-01,1.31510e-03,9.99999e-01,9.99999e-01,1.31510e-03,9.99999e-01
4.397594337e-01,1.49923e-03,9.99999e-01,9.99999e-01,1.49923e-03,9.99999e-01
4.419582309e-01,1.70471e-03,9.99999e-01,9.99999e-01,1.70471e-03,9.99999e-01
4.441680220e-01,1.93345e-03,9.99999e-01,9.99999e-01,1.93345e-03,9.99999e-01
4.463888621e-01,2.18743e-03,9.99999e-01,9.99999e-01,2.18743e-03,9.99999e-01
4.486208064e-01,2.46875e-03,9.99999e-01,9.99999e-01,2.46875e-03,9.99999e-01
4.508639105e-01,2.77960e-03,9.99999e-01,9.99999e-01,2.77960e-03,9.99999e-01
4.531182300e-01,3.12226e-03,9.99999e-01,9.99999e-01,3.12226e-03,9.99999e-01
4.553838212e-01,3.49913e-03,9.99999e-01,9.99999e-01,3.49913e-03,9.99999e-01
4.576607403e-01,3.91267e-03,9.99999e-01,9.99999e-01,3.91267e-03,9.99999e-01
4.599490440e-01,4.36543e-03,9.99999e-01,9.99999e-01,4.36543e-03,9.99999e-01
4.622487892e-01,4.86007e-03,9.99999e-01,9.99999e-01,4.86007e-03,9.99999e-01
4.645600332e-01,5.39930e-03,9.99999e-01,9.99999e-01,5.39930e-03,9.99999e-01
4.668828333e-01,5.98590e-03,9.99999e-01,9.99999e-01,5.98590e-03,9.99999e-01
4.692172475e-01,6.62272e-03,9.99999e-01,9.99999e-01,6.62272e-03,9.99999e-01
4.715633337e-01,7.31268e-03,9.99999e-01,9.99999e-01,7.31268e-03,9.99999e-01
4.739211504e-01,8.05872e-03,9.99999e-01,9.99999e-01,8.05872e-03,9.99999e-01
4.762907561e-01,8.86385e-03,9.99999e-01,9.99999e-01,8.86385e-03,9.99999e-01
4.786722099e-01,9.73110e-03,9.99999e-01,9.99999e-01,9.73110e-03,9.99999e-01
4.810655710e-01,1.06635e-02,9.99999e-01,9.99999e-01,1.06635e-02,9.99999e-01
4.834708988e-01,1.16642e-02,9.99999e-01,9.99999e-01,1.16642e-02,9.99999e-01
4.858882533e-01,1.27362e-02,9.99999e-01,9.99999e-01,1.27362e-02,9.99999e-01
4.883176946e-01,1.38826e-02,9.99999e-01,9.99999e-01,1.38826e-02,9.99999e-01
4.907592831e-01,1.51064e-02,9.99999e-01,9.99999e-01,1.51064e-02,9.99999e-01
4.932130795e-01,1.64107e-02,9.99999e-01,9.99999e-01,1.64107e-02,9.99999e-01
4.956791449e-01,1.77984e-02,9.99999e-01,9.99999e-01,1.77984e-02,9.99999e-01
4.981575406e-01,1.92726e-02,9.99999e-01,9.99999e-01,1.92726e-02,9.99999e-01
5.006483283e-01,2.08362e-02,9.99999e-01,9.99999e-01,2.08362e-02,9.99999e-01
5.031515699e-01,2.24919e-02,9.99999e-01,9.99999e-01,2.24919e-02,9.99999e-01
5.056673278e-01,2.42425e-02,9.99999e-01,9.99999e-01,2.42425e-02,9.99999e-01
5.081956644e-01,2.60907e-02,9.99999e-01,9.99999e-01,2.60907e-02,9.99999e-01
5.107366428e-01,2.80391e-02,9.99999e-01,9.99999e-01,2.80391e-02,9.99999e-01
5.132903260e-01,3.00901e-02,9.99999e-01,9.99999e-01,3.00901e-02,9.99999e-01
5.158567776e-01,3.22463e-02,9.99999e-01,9.99999e-01,3.22463e-02,9.99999e-01
5.184360615e-01,3.45096e-02,9.99999e-01,9.99999e-01,3.45096e-02,9.99999e-01
5.210282418e-01,3.68824e-02,9.99999e-01,9.99999e-01,3.68824e-02,9.99999e-01
5.236333830e-01,3.93667e-02,9.99999e-01,9.99999e-01,3.93667e-02,9.99999e-01
5.262515499e-01,4.19641e-02,9.99999e-01,9.99999e-01,4.19641e-02,9.99999e-01
5.288828077e-01,4.46766e-02,9.99999e-01,9.99999e-01,4.46766e-02,9.99999e-01
5.315272217e-01,4.75055e-02,9.99999e-01,9.99999e-01,4.75055e-02,9.99999e-01
5.341848578e-01,5.04524e-02,9.99999e-01,9.99999e-01,5.04524e-02,9.99999e-01
5.368557821e-01,5.35184e-02,9.99999e-01,9.99999e-01,5.35184e-02,9.99999e-01
5.395400610e-01,5.67046e-02,9.99999e-01,9.99999e-01,5.67046e-02,9.99999e-01
5.422377613e-01,6.00119e-02,9.99999e-01,9.99999e-01,6.00119e-02,9.99999e-01
5.449489501e-01,6.34410e-02,9.99999e-01,9.99999e-01,6.34410e-02,9.99999e-01
5.476736949e-01,6.69925e-02,9.99999e-01,9.99999e-01,6.69925e-02,9.99999e-01
5.504120634e-01,7.06668e-02,9.99999e-01,9.99999e-01,7.06668e-02,9.99999e-01
5.531641237e-01,7.44639e-02,9.99999e-01,9.99999e-01,7.44639e-02,9.99999e-01
5.559299443e-01,7.83841e-02,9.99999e-01,9.99999e-01,7.83841e-02,9.99999e-01
5.587095940e-01,8.24270e-02,9.99999e-01,9.99999e-01,8.24270e-02,9.99999e-01
5.615031420e-01,8.65924e-02,9.99999e-01,9.99999e-01,8.65924e-02,9.99999e-01
5.643106577e-01,9.08798e-02,9.99999e-01,9.99999e-01,9.08798e-02,9.99999e-01
5.671322110e-01,9.52884e-02,9.99999e-01,9.99999e-01,9.52884e-02,9.99999e-01
5.699678720e-01,9.98175e-02,9.99999e-01,9.99999e-01,9.98175e-02,9.99999e-01
5.728177114e-01,1.04466e-01,9.99999e-01,9.99999e-01,1.04466e-01,9.99999e-01
5.756818000e-01,1.09233e-01,9.99999e-01,9.99999e-01,1.09233e-01,9.99999e-01
5.785602090e-01,1.14116e-01,9.99999e-01,9.99999e-01,1.14116e-01,9.99999e-01
5.814530100e-01,1.19115e-01,9.99999e-01,9.99999e-01,1.19115e-01,9.99999e-01
5.843602750e-01,1.24228e-01,9.99999e-01,9.99999e-01,1.24228e-01,9.99999e-01
5.872820764e-01,1.29452e-01,9.99999e-01,9.99999e-01,1.29452e-01,9.99999e-01
5.902184868e-01,1.34787e-01,9.99999e-01,9.99999e-01,1.34787e-01,9.99999e-01
5.931695792e-01,1.40230e-01,9.99999e-01,9.99999e-01,1.40230e-01,9.99999e-01
5.961354271e-01,1.45778e-01,9.99999e-01,9.99999e-01,1.45778e-01,9.99999e-01
5.991161043e-01,1.51430e-01,9.99999e-01,9.99999e-01,1.51430e-01,9.99999e-01
6.021116848e-01,1.57182e-01,9.99999e-01,9.99999e-01,1.57182e-01,9.99999e-01
6.051222432e-01,1.63034e-01,9.99999e-01,9.99999e-01,1.63034e-01,9.99999e-01
6.081478544e-01,1.68980e-01,9.99999e-01,9.99999e-01,1.68980e-01,9.99999e-01
6.111885937e-01,1.75020e-01,9.99999e-01,9.99999e-01,1.75020e-01,9.99999e-01
6.142445367e-01,1.81150e-01,9.99999e-01,9.99999e-01,1.81150e-01,9.99999e-01
6.173157594e-01,1.87368e-01,9.99999e-01,9.99999e-01,1.87368e-01,9.99999e-01
6.204023382e-01,1.93669e-01,9.99999e-01,9.99999e-01,1.93669e-01,9.99999e-01
6.235043498e-01,2.00052e-01,9.99999e-01,9.99999e-01,2.00052e-01,9.99999e-01
6.266218716e-01,2.06513e-01,9.99999e-01,9.99999e-01,2.06513e-01,9.99999e-01
6.297549810e-01,2.13049e-01,9.99999e-01,9.99999e-01,2.13049e-01,9.99999e-01
6.329037559e-01,2.19656e-01,9.99999e-01,9.99999e-01,2.19656e-01,9.99999e-01
6.360682746e-01,2.26332e-01,9.99999e-01,9.99999e-01,2.26332e-01,9.99999e-01
6.392486160e-01,2.33072e-01,9.99999e-01,9.99999e-01,2.33072e-01,9.99999e-01
6.424448591e-01,2.39875e-01,9.99999e-01,9.99999e-01,2.39875e-01,9.99999e-01
6.456570834e-01,2.46735e-01,9.99999e-01,9.99999e-01,2.46735e-01,9.99999e-01
6.488853688e-01,2.53651e-01,9.99999e-01,9.99999e-01,2.53651e-01,9.99999e-01
6.521297956e-01,2.60618e-01,9.99999e-01,9.99999e-01,2.60618e-01,9.99999e-01
6.553904446e-01,2.67633e-01,9.99999e-01,9.99999e-01,2.67633e-01,9.99999e-01
6.586673968e-01,2.74693e-01,9.99999e-01,9.99999e-01,2.74693e-01,9.99999e-01
6.619607338e-01,2.81794e-01,9.99999e-01,9.99999e-01,2.81794e-01,9.99999e-01
6.652705375e-01,2.88932e-01,9.99999e-01,9.99999e-01,2.88932e-01,9.99999e-01
6.685968902e-01,2.96106e-01,9.99999e-01,9.99999e-01,2.96106e-01,9.99999e-01
6.719398746e-01,3.03310e-01,9.99999e-01,9.99999e-01,3.03310e-01,9.99999e-01
6.752995740e-01,3.10543e-01,9.99999e-01,9.99999e-01,3.10543e-01,9.99999e-01
6.786760719e-01,3.17799e-01,9.99999e-01,9.99999e-01,3.17799e-01,9.99999e-01
6.820694522e-01,3.25077e-01,9.99999e-01,9.99999e-01,3.25077e-01,9.99999e-01
6.854797995e-01,3.32373e-01,9.99999e-01,9.99999e-01,3.32373e-01,9.99999e-01
6.889071985e-01,3.39684e-01,9.99999e-01,9.99999e-01,3.39684e-01,9.99999e-01
6.923517345e-01,3.47006e-01,9.99999e-01,9.99999e-01,3.47006e-01,9.99999e-01
6.958134932e-01,3.54337e-01,9.99999e-01,9.99999e-01,3.54337e-01,9.99999e-01
6.992925606e-01,3.61674e-01,9.99999e-01,9.99999e-01,3.61674e-01,9.99999e-01
7.027890234e-01,3.69013e-01,9.99999e-01,9.99999e-01,3.69013e-01,9.99999e-01
7.063029686e-01,3.76351e-01,9.99999e-01,9.99999e-01,3.76351e-01,9.99999e-01
7.098344834e-01,3.83687e-01,9.99999e-01,9.99999e-01,3.83687e-01,9.99999e-01
7.133836558e-01,3.91016e-01,9.99999e-01,9.99999e-01,3.91016e-01,9.99999e-01
7.169505741e-01,3.98336e-01,9.99999e-01,9.99999e-01,3.98336e-01,9.99999e-01
7.205353270e-01,4.05644e-01,9.99999e-01,9.99999e-01,4.05644e-01,9.99999e-01
7.241380036e-01,4.12938e-01,9.99999e-01,9.99999e-01,4.12938e-01,9.99999e-01
7.277586936e-01,4.20216e-01,9.99999e-01,9.99999e-01,4.20216e-01,9.99999e-01
7.313974871e-01,4.27474e-01,9.99999e-01,9.99999e-01,4.27474e-01,9.99999e-01
7.350544745e-01,4.34711e-01,9.99999e-01,9.99999e-01,4.34711e-01,9.99999e-01
7.387297469e-01,4.41923e-01,9.99999e-01,9.99999e-01,4.41923e-01,9.99999e-01
7.424233956e-01,4.49109e-01,9.99999e-01,9.99999e-01,4.49109e-01,9.99999e-01
7.461355126e-01,4.56267e-01,9.99999e-01,9.99999e-01,4.56267e-01,9.99999e-01
7.498661902e-01,4.63394e-01,9.99999e-01,9.99999e-01,4.63394e-01,9.99999e-01
7.536155211e-01,4.70488e-01,9.99999e-01,9.99999e-01,4.70488e-01,9.99999e-01
7.573835987e-01,4.77547e-01,9.99999e-01,9.99999e-01,4.77547e-01,9.99999e-01
7.611705167e-01,4.84570e-01,9.99999e-01,9.99999e-01,4.84570e-01,9.99999e-01
7.649763693e-01,4.91554e-01,9.99999e-01,9.99999e-01,4.91554e-01,9.99999e-01
7.688012511e-01,4.98499e-01,9.99999e-01,9.99999e-01,4.98499e-01,9.99999e-01
7.726452574e-01,5.05401e-01,9.99999e-01,9.99999e-01,5.05401e-01,9.99999e-01
7.765084837e-01,5.12259e-01,9.99999e-01,9.99999e-01,5.12259e-01,9.99999e-01
7.803910261e-01,5.03073e-01,9.99999e-01,9.69176e-01,5.19072e-01,9.99999e-01
7.842929812e-01,4.57539e-01,9.99999e-01,8.70111e-01,5.25839e-01,9.99999e-01
7.882144461e-01,4.58917e-01,9.99999e-01,8.61722e-01,5.32558e-01,9.99999e-01
7.921555184e-01,4.94517e-01,9.99999e-01,9.17084e-01,5.39227e-01,9.99999e-01
7.961162960e-01,5.15070e-01,9.99999e-01,9.43617e-01,5.45846e-01,9.99999e-01
8.000968774e-01,5.35318e-01,9.99999e-01,9.69054e-01,5.52412e-01,9.99999e-01
8.040973618e-01,5.49891e-01,9.99999e-01,9.83834e-01,5.58926e-01,9.99999e-01
8.081178486e-01,5.61177e-01,9.99999e-01,9.92556e-01,5.65385e-01,9.99999e-01
8.121584379e-01,5.70470e-01,9.99999e-01,9.97690e-01,5.71790e-01,9.99999e-01
8.162192301e-01,5.77843e-01,9.99999e-01,9.99489e-01,5.78138e-01,9.99999e-01
8.203003262e-01,5.84425e-01,9.99999e-01,9.99991e-01,5.84429e-01,9.99999e-01
8.244018279e-01,5.90663e-01,9.99999e-01,9.99999e-01,5.90663e-01,9.99999e-01
8.285238370e-01,5.96838e-01,9.99999e-01,9.99999e-01,5.96838e-01,9.99999e-01
8.326664562e-01,6.02953e-01,9.99999e-01,9.99999e-01,6.02953e-01,9.99999e-01
8.368297885e-01,6.09009e-01,9.99999e-01,9.99999e-01,6.09009e-01,9.99999e-01
8.410139374e-01,6.15004e-01,9.99999e-01,9.99999e-01,6.15004e-01,9.99999e-01
8.452190071e-01,6.20938e-01,9.99999e-01,9.99999e-01,6.20938e-01,9.99999e-01
8.494451021e-01,6.26810e-01,9.99999e-01,9.99999e-01,6.26810e-01,9.99999e-01
8.536923276e-01,6.32620e-01,9.99999e-01,9.99999e-01,6.32620e-01,9.99999e-01
8.579607893e-01,6.38368e-01,9.99999e-01,9.99999e-01,6.38368e-01,9.99999e-01
8.622505932e-01,6.44052e-01,9.99999e-01,9.99999e-01,6.44052e-01,9.99999e-01
8.665618462e-01,6.04167e-01,9.99999e-01,9.29954e-01,6.49674e-01,9.99999e-01
8.708946554e-01,4.60009e-01,9.99999e-01,7.02054e-01,6.55232e-01,9.99999e-01
8.752491287e-01,4.96998e-01,9.99999e-01,7.52199e-01,6.60727e-01,9.99999e-01
8.796253743e-01,5.69814e-01,9.99999e-01,8.55374e-01,6.66157e-01,9.99999e-01
8.840235012e-01,6.19325e-01,9.99999e-01,9.22267e-01,6.71524e-01,9.99999e-01
8.884436187e-01,6.55572e-01,9.99999e-01,9.68595e-01,6.76827e-01,9.99999e-01
8.928858368e-01,6.73316e-01,9.99999e-01,9.87171e-01,6.82065e-01,9.99999e-01
8.973502660e-01,6.85086e-01,9.99999e-01,9.96865e-01,6.87240e-01,9.99999e-01
9.018370173e-01,6.92111e-01,9.99999e-01,9.99653e-01,6.92350e-01,9.99999e-01
9.063462024e-01,6.91273e-01,9.99999e-01,9.91219e-01,6.97397e-01,9.99999e-01
9.108779334e-01,6.88221e-01,9.99999e-01,9.79842e-01,7.02379e-01,9.99999e-01
9.154323231e-01,7.03918e-01,9.99999e-01,9.95221e-01,7.07297e-01,9.99999e-01
9.200094847e-01,6.64294e-01,9.99999e-01,9.32797e-01,7.12152e-01,9.99999e-01
9.246095321e-01,6.48924e-01,9.99999e-01,9.05126e-01,7.16943e-01,9.99999e-01
9.292325798e-01,6.67546e-01,9.99999e-01,9.25000e-01,7.21671e-01,9.99999e-01
9.338787427e-01,6.73499e-01,9.99999e-01,9.27254e-01,7.26336e-01,9.99999e-01
9.385481364e-01,6.91498e-01,9.99999e-01,9.46041e-01,7.30938e-01,9.99999e-01
9.432408771e-01,7.10911e-01,9.99999e-01,9.66598e-01,7.35477e-01,9.99999e-01
9.479570815e-01,7.27180e-01,9.99999e-01,9.82736e-01,7.39954e-01,9.99999e-01
9.526968669e-01,7.38143e-01,9.99999e-01,9.91635e-01,7.44369e-01,9.99999e-01
9.574603512e-01,7.46038e-01,9.99999e-01,9.96414e-01,7.48722e-01,9.99999e-01
9.622476530e-01,7.52171e-01,9.99999e-01,9.98880e-01,7.53014e-01,9.99999e-01
9.670588912e-01,7.56991e-01,9.99999e-01,9.99664e-01,7.57245e-01,9.99999e-01
9.718941857e-01,7.61398e-01,9.99999e-01,9.99975e-01,7.61416e-01,9.99999e-01
9.767536566e-01,7.65526e-01,9.99999e-01,9.99999e-01,7.65526e-01,9.99999e-01
9.816374249e-01,7.69577e-01,9.99999e-01,9.99999e-01,7.69577e-01,9.99999e-01
9.865456120e-01,7.73569e-01,9.99999e-01,9.99999e-01,7.73569e-01,9.99999e-01
9.914783401e-01,7.77502e-01,9.99999e-01,9.99999e-01,7.77502e-01,9.99999e-01
9.964357318e-01,7.81376e-01,9.99999e-01,9.99999e-01,7.81376e-01,9.99999e-01
1.001417910e+00,7.85193e-01,9.99999e-01,9.99999e-01,7.85193e-01,9.99999e-01
1.006425000e+00,7.88953e-01,9.99999e-01,9.99999e-01,7.88953e-01,9.99999e-01
1.011457125e+00,7.92656e-01,9.99999e-01,9.99999e-01,7.92656e-01,9.99999e-01
1.016514411e+00,7.96302e-01,9.99999e-01,9.99999e-01,7.96302e-01,9.99999e-01
1.021596983e+00,7.99857e-01,9.99999e-01,9.99954e-01,7.99893e-01,9.99999e-01
1.026704968e+00,8.00678e-01,9.99999e-01,9.96575e-01,8.03428e-01,9.99999e-01
1.031838492e+00,7.73905e-01,9.99999e-01,9.59097e-01,8.06909e-01,9.99999e-01
1.036997685e+00,1.34329e-01,9.99999e-01,1.65770e-01,8.10336e-01,9.99999e-01
1.042182673e+00,1.14537e-01,9.99999e-01,1.40759e-01,8.13709e-01,9.99999e-01
1.047393587e+00,1.31123e-01,9.99999e-01,1.60487e-01,8.17029e-01,9.99999e-01
1.052630555e+00,4.70676e-03,9.99999e-01,5.73787e-03,8.20297e-01,9.99999e-01
1.057893707e+00,1.14690e-02,9.99999e-01,1.39269e-02,8.23513e-01,9.99999e-01
1.063183176e+00,3.55978e-02,9.99999e-01,4.30612e-02,8.26678e-01,9.99999e-01
1.068499092e+00,9.43922e-02,9.99999e-01,1.13754e-01,8.29791e-01,9.99999e-01
1.073841587e+00,2.10712e-01,9.99999e-01,2.52999e-01,8.32855e-01,9.99999e-01
1.079210795e+00,3.50206e-01,9.99999e-01,4.18972e-01,8.35869e-01,9.99999e-01
1.084606849e+00,5.19839e-01,9.99999e-01,6.19715e-01,8.38835e-01,9.99999e-01
1.090029883e+00,6.56710e-01,9.99999e-01,7.80170e-01,8.41752e-01,9.99999e-01
1.095480033e+00,7.47359e-01,9.99999e-01,8.84845e-01,8.44621e-01,9.99999e-01
1.100957433e+00,7.98956e-01,9.99999e-01,9.42783e-01,8.47443e-01,9.99999e-01
1.106462220e+00,8.29749e-01,9.99999e-01,9.75924e-01,8.50218e-01,9.99999e-01
1.111994531e+00,8.45279e-01,9.99999e-01,9.91009e-01,8.52947e-01,9.99999e-01
1.117554504e+00,8.53746e-01,9.99999e-01,9.97795e-01,8.55631e-01,9.99999e-01
1.123142276e+00,8.58146e-01,9.99999e-01,9.99854e-01,8.58271e-01,9.99999e-01
1.128757988e+00,8.60865e-01,9.99999e-01,9.99999e-01,8.60866e-01,9.99999e-01
1.134401778e+00,8.63417e-01,9.99999e-01,9.99999e-01,8.63417e-01,9.99999e-01
1.140073787e+00,8.65925e-01,9.99999e-01,9.99999e-01,8.65925e-01,9.99999e-01
1.145774156e+00,8.68391e-01,9.99999e-01,9.99999e-01,8.68391e-01,9.99999e-01
1.151503026e+00,8.70815e-01,9.99999e-01,9.99999e-01,8.70815e-01,9.99999e-01
1.157260541e+00,8.73197e-01,9.99999e-01,9.99999e-01,8.73197e-01,9.99999e-01
1.163046844e+00,8.75539e-01,9.99999e-01,9.99999e-01,8.75539e-01,9.99999e-01
1.168862078e+00,8.77841e-01,9.99999e-01,9.99999e-01,8.77841e-01,9.99999e-01
1.174706389e+00,8.80103e-01,9.99999e-01,9.99999e-01,8.80103e-01,9.99999e-01
1.180579921e+00,8.82326e-01,9.99999e-01,9.99999e-01,8.82326e-01,9.99999e-01
1.186482820e+00,8.84505e-01,9.99999e-01,9.99993e-01,8.84510e-01,9.99999e-01
1.192415234e+00,8.75861e-01,9.99999e-01,9.87823e-01,8.86657e-01,9.99999e-01
1.198377311e+00,5.01275e-01,9.99999e-01,5.64012e-01,8.88766e-01,9.99999e-01
1.204369197e+00,1.73497e-10,9.99999e-01,1.94757e-10,8.90839e-01,9.99999e-01
1.210391043e+00,1.22068e-37,9.99999e-01,1.36714e-37,8.92875e-01,9.99999e-01
1.216442998e+00,8.74395e-33,9.99999e-01,9.77112e-33,8.94876e-01,9.99999e-01
1.222525213e+00,2.57534e-32,9.99999e-01,2.87156e-32,8.96841e-01,9.99999e-01
1.228637839e+00,5.04539e-25,9.99999e-01,5.61364e-25,8.98772e-01,9.99999e-01
1.234781029e+00,2.48458e-16,9.99999e-01,2.75860e-16,9.00669e-01,9.99999e-01
1.240954934e+00,4.74398e-11,9.99999e-01,5.25630e-11,9.02532e-01,9.99999e-01
1.247159708e+00,3.05650e-06,9.99999e-01,3.37973e-06,9.04362e-01,9.99999e-01
1.253395507e+00,5.22251e-04,9.99999e-01,5.76334e-04,9.06159e-01,9.99999e-01
1.259662485e+00,1.26357e-02,9.99999e-01,1.39171e-02,9.07925e-01,9.99999e-01
1.265960797e+00,7.63015e-02,9.99999e-01,8.38792e-02,9.09659e-01,9.99999e-01
1.272290601e+00,3.21155e-01,9.99999e-01,3.52390e-01,9.11362e-01,9.99999e-01
1.278652054e+00,2.76252e-01,9.99999e-01,3.02564e-01,9.13034e-01,9.99999e-01
1.285045314e+00,8.64819e-03,9.99999e-01,9.45491e-03,9.14676e-01,9.99999e-01
1.291470541e+00,4.14876e-05,9.99999e-01,4.52778e-05,9.16289e-01,9.99999e-01
1.297927893e+00,6.07477e-03,9.99999e-01,6.61831e-03,9.17873e-01,9.99999e-01
1.304417533e+00,1.37888e-01,9.99999e-01,1.49971e-01,9.19428e-01,9.99999e-01
1.310939621e+00,3.42356e-02,9.99999e-01,3.71740e-02,9.20954e-01,9.99999e-01
1.317494319e+00,2.06306e-13,9.99999e-01,2.23649e-13,9.22454e-01,9.99999e-01
1.324081790e+00,2.32062e-09,9.99999e-01,2.51170e-09,9.23925e-01,9.99999e-01
1.330702199e+00,1.56213e-05,9.99999e-01,1.68811e-05,9.25371e-01,9.99999e-01
1.337355710e+00,1.82448e-05,9.99999e-01,1.96860e-05,9.26789e-01,9.99999e-01
1.344042489e+00,5.48483e-06,9.99999e-01,5.90921e-06,9.28182e-01,9.99999e-01
1.350762701e+00,9.91443e-06,9.99999e-01,1.06658e-05,9.29550e-01,9.99999e-01
1.357516515e+00,5.88560e-04,9.99999e-01,6.32253e-04,9.30892e-01,9.99999e-01
1.364304097e+00,7.91025e-03,9.99999e-01,8.48548e-03,9.32210e-01,9.99999e-01
1.371125618e+00,7.72237e-02,9.99999e-01,8.27245e-02,9.33503e-01,9.99999e-01
1.377981246e+00,1.21963e-01,9.99999e-01,1.30473e-01,9.34773e-01,9.99999e-01
1.384871152e+00,2.86101e-01,9.99999e-01,3.05657e-01,9.36019e-01,9.99999e-01
1.391795508e+00,3.13414e-01,9.99999e-01,3.34400e-01,9.37242e-01,9.99999e-01
1.398754485e+00,4.77484e-01,9.99999e-01,5.08804e-01,9.38443e-01,9.99999e-01
1.405748258e+00,5.71174e-01,9.99999e-01,6.07876e-01,9.39621e-01,9.99999e-01
1.412776999e+00,6.86959e-01,9.99999e-01,7.30203e-01,9.40778e-01,9.99999e-01
1.419840884e+00,6.21264e-01,9.99999e-01,6.59577e-01,9.41913e-01,9.99999e-01
1.426940089e+00,6.08350e-02,9.99999e-01,6.45102e-02,9.43027e-01,9.99999e-01
1.434074789e+00,0.00000e+00,9.99999e-01,0.00000e+00,9.44120e-01,9.99999e-01
1.441245163e+00,0.00000e+00,9.99999e-01,0.00000e+00,9.45193e-01,9.99999e-01
1.448451389e+00,0.00000e+00,9.99999e-01,0.00000e+00,9.46246e-01,9.99999e-01
1.455693646e+00,6.40734e-301,9.99999e-01,6.76394e-301,9.47279e-01,9.99999e-01
1.462972114e+00,6.71587e-146,9.99999e-01,7.08205e-146,9.48293e-01,9.99999e-01
1.470286975e+00,2.33502e-61,9.99999e-01,2.45975e-61,9.49288e-01,9.99999e-01
