#,Wave/freq,Total,O2,CO2,Rayleigh,CIA
4.000000000e-01,2.83874e-10,9.99999e-01,9.99999e-01,2.83874e-10,9.99999e-01
4.020000000e-01,4.38422e-10,9.99999e-01,9.99999e-01,4.38422e-10,9.99999e-01
4.040100000e-01,6.71024e-10,9.99999e-01,9.99999e-01,6.71024e-10,9.99999e-01
4.060300500e-01,1.01843e-09,9.99999e-01,9.99999e-01,1.01843e-09,9.99999e-01
4.080602003e-01,1.53302e-09,9.99999e-01,9.99999e-01,1.53302e-09,9.99999e-01
4.101005013e-01,2.28905e-09,9.99999e-01,9.99999e-01,2.28905e-09,9.99999e-01
4.121510038e-01,3.39097e-09,9.99999e-01,9.99999e-01,3.39097e-09,9.99999e-01
4.142117588e-01,4.98449e-09,9.99999e-01,9.99999e-01,4.98449e-09,9.99999e-01
4.162828176e-01,7.27132e-09,9.99999e-01,9.99999e-01,7.27132e-09,9.99999e-01
4.183642317e-01,1.05285e-08,9.99999e-01,9.99999e-01,1.05285e-08,9.99999e-01
4.204560528e-01,1.51337e-08,9.99999e-01,9.99999e-01,1.51337e-08,9.99999e-01
4.225583331e-01,2.15978e-08,9.99999e-01,9.99999e-01,2.15978e-08,9.99999e-01
4.246711247e-01,3.06073e-08,9.99999e-01,9.99999e-01,3.06073e-08,9.99999e-01
4.267944804e-01,4.30772e-08,9.99999e-01,9.99999e-01,4.30772e-08,9.99999e-01
4.289284528e-01,6.02199e-08,9.99999e-01,9.99999e-01,6.02199e-08,9.99999e-01
4.310730950e-01,8.36292e-08,9.99999e-01,9.99999e-01,8.36292e-08,9.99999e-01
4.332284605e-01,1.15388e-07,9.99999e-01,9.99999e-01,1.15388e-07,9.99999e-01
4.353946028e-01,1.58197e-07,9.99999e-01,9.99999e-01,1.58197e-07,9.99999e-01
4.375715758e-01,2.15542e-07,9.99999e-01,9.99999e-01,2.15542e-07,9.99999e-01
4.397594337e-01,2.91884e-07,9.99999e-01,9.99999e-01,2.91884e-07,9.99999e-01
4.419582309e-01,3.92906e-07,9.99999e-01,9.99999e-01,3.92906e-07,9.99999e-01
4.441680220e-01,5.25796e-07,9.99999e-01,9.99999e-01,5.25796e-07,9.99999e-01
4.463888621e-01,6.99595e-07,9.99999e-01,9.99999e-01,6.99595e-07,9.99999e-01
4.486208064e-01,9.25606e-07,9.99999e-01,9.99999e-01,9.25606e-07,9.99999e-01
4.508639105e-01,1.21788e-06,9.99999e-01,9.99999e-01,1.21788e-06,9.99999e-01
4.531182300e-01,1.59378e-06,9.99999e-01,9.99999e-01,1.59378e-06,9.99999e-01
4.553838212e-01,2.07465e-06,9.99999e-01,9.99999e-01,2.07465e-06,9.99999e-01
4.576607403e-01,2.68658e-06,9.99999e-01,9.99999e-01,2.68658e-06,9.99999e-01
4.599490440e-01,3.46128e-06,9.99999e-01,9.99999e-01,3.46128e-06,9.99999e-01
4.622487892e-01,4.43711e-06,9.99999e-01,9.99999e-01,4.43711e-06,9.99999e-01
4.645600332e-01,5.66021e-06,9.99999e-01,9.99999e-01,5.66021e-06,9.99999e-01
4.668828333e-01,7.18584e-06,9.99999e-01,9.99999e-01,7.18584e-06,9.99999e-01
4.692172475e-01,9.07977e-06,9.99999e-01,9.99999e-01,9.07977e-06,9.99999e-01
4.715633337e-01,1.14200e-05,9.99999e-01,9.99999e-01,1.14200e-05,9.99999e-01
4.739211504e-01,1.42984e-05,9.99999e-01,9.99999e-01,1.42984e-05,9.99999e-01
4.762907561e-01,1.78231e-05,9.99999e-01,9.99999e-01,1.78231e-05,9.99999e-01
4.786722099e-01,2.21202e-05,9.99999e-01,9.99999e-01,2.21202e-05,9.99999e-01
4.810655710e-01,2.73363e-05,9.99999e-01,9.99999e-01,2.73363e-05,9.99999e-01
4.834708988e-01,3.36416e-05,9.99999e-01,9.99999e-01,3.36416e-05,9.99999e-01
4.858882533e-01,4.12317e-05,9.99999e-01,9.99999e-01,4.12317e-05,9.99999e-01
4.883176946e-01,5.03317e-05,9.99999e-01,9.99999e-01,5.03317e-05,9.99999e-01
4.907592831e-01,6.11985e-05,9.99999e-01,9.99999e-01,6.11985e-05,9.99999e-01
4.932130795e-01,7.41247e-05,9.99999e-01,9.99999e-01,7.41247e-05,9.99999e-01
4.956791449e-01,8.94420e-05,9.99999e-01,9.99999e-01,8.94420e-05,9.99999e-01
4.981575406e-01,1.07525e-04,9.99999e-01,9.99999e-01,1.07525e-04,9.99999e-01
5.006483283e-01,1.28794e-04,9.99999e-01,9.99999e-01,1.28794e-04,9.99999e-01
5.031515699e-01,1.53722e-04,9.99999e-01,9.99999e-01,1.53722e-04,9.99999e-01
5.056673278e-01,1.82834e-04,9.99999e-01,9.99999e-01,1.82834e-04,9.99999e-01
5.081956644e-01,2.16716e-04,9.99999e-01,9.99999e-01,2.16716e-04,9.99999e-01
5.107366428e-01,2.56015e-04,9.99999e-01,9.99999e-01,2.56015e-04,9.99999e-01
5.132903260e-01,3.01447e-04,9.99999e-01,9.99999e-01,3.01447e-04,9.99999e-01
5.158567776e-01,3.53798e-04,9.99999e-01,9.99999e-01,3.53798e-04,9.99999e-01
5.184360615e-01,4.13929e-04,9.99999e-01,9.99999e-01,4.13929e-04,9.99999e-01
5.210282418e-01,4.82781e-04,9.99999e-01,9.99999e-01,4.82781e-04,9.99999e-01
5.236333830e-01,5.61377e-04,9.99999e-01,9.99999e-01,5.61377e-04,9.99999e-01
5.262515499e-01,6.50825e-04,9.99999e-01,9.99999e-01,6.50825e-04,9.99999e-01
5.288828077e-01,7.52327e-04,9.99999e-01,9.99999e-01,7.52327e-04,9.99999e-01
5.315272217e-01,8.67172e-04,9.99999e-01,9.99999e-01,8.67172e-04,9.99999e-01
5.341848578e-01,9.96748e-04,9.99999e-01,9.99999e-01,9.96748e-04,9.99999e-01
5.368557821e-01,1.14254e-03,9.99999e-01,9.99999e-01,1.14254e-03,9.99999e-01
5.395400610e-01,1.30613e-03,9.99999e-01,9.99999e-01,1.30613e-03,9.99999e-01
5.422377613e-01,1.48919e-03,9.99999e-01,9.99999e-01,1.48919e-03,9.99999e-01
5.449489501e-01,1.69353e-03,9.99999e-01,9.99999e-01,1.69353e-03,9.99999e-01
5.476736949e-01,1.92102e-03,9.99999e-01,9.99999e-01,1.92102e-03,9.99999e-01
5.504120634e-01,2.17364e-03,9.99999e-01,9.99999e-01,2.17364e-03,9.99999e-01
5.531641237e-01,2.45349e-03,9.99999e-01,9.99999e-01,2.45349e-03,9.99999e-01
5.559299443e-01,2.76276e-03,9.99999e-01,9.99999e-01,2.76276e-03,9.99999e-01
5.587095940e-01,3.10372e-03,9.99999e-01,9.99999e-01,3.10372e-03,9.99999e-01
5.615031420e-01,3.47876e-03,9.99999e-01,9.99999e-01,3.47876e-03,9.99999e-01
5.643106577e-01,3.89034e-03,9.99999e-01,9.99999e-01,3.89034e-03,9.99999e-01
5.671322110e-01,4.34101e-03,9.99999e-01,9.99999e-01,4.34101e-03,9.99999e-01
5.699678720e-01,4.83342e-03,9.99999e-01,9.99999e-01,4.83342e-03,9.99999e-01
5.728177114e-01,5.37027e-03,9.99999e-01,9.99999e-01,5.37027e-03,9.99999e-01
5.756818000e-01,5.95435e-03,9.99999e-01,9.99999e-01,5.95435e-03,9.99999e-01
5.785602090e-01,6.58851e-03,9.99999e-01,9.99999e-01,6.58851e-03,9.99999e-01
5.814530100e-01,7.27564e-03,9.99999e-01,9.99999e-01,7.27564e-03,9.99999e-01
5.843602750e-01,8.01871e-03,9.99999e-01,9.99999e-01,8.01871e-03,9.99999e-01
5.872820764e-01,8.82071e-03,9.99999e-01,9.99999e-01,8.82071e-03,9.99999e-01
5.902184868e-01,9.68468e-03,9.99999e-01,9.99999e-01,9.68468e-03,9.99999e-01
5.931695792e-01,1.06137e-02,9.99999e-01,9.99999e-01,1.06137e-02,9.99999e-01
5.961354271e-01,1.16107e-02,9.99999e-01,9.99999e-01,1.16107e-02,9.99999e-01
5.991161043e-01,1.26789e-02,9.99999e-01,9.99999e-01,1.26789e-02,9.99999e-01
6.021116848e-01,1.38214e-02,9.99999e-01,9.99999e-01,1.38214e-02,9.99999e-01
6.051222432e-01,1.50411e-02,9.99999e-01,9.99999e-01,1.50411e-02,9.99999e-01
6.081478544e-01,1.63412e-02,9.99999e-01,9.99999e-01,1.63412e-02,9.99999e-01
6.111885937e-01,1.77246e-02,9.99999e-01,9.99999e-01,1.77246e-02,9.99999e-01
6.142445367e-01,1.91942e-02,9.99999e-01,9.99999e-01,1.91942e-02,9.99999e-01
6.173157594e-01,2.07531e-02,9.99999e-01,9.99999e-01,2.07531e-02,9.99999e-01
6.204023382e-01,2.24039e-02,9.99999e-01,9.99999e-01,2.24039e-02,9.99999e-01
6.235043498e-01,2.41496e-02,9.99999e-01,9.99999e-01,2.41496e-02,9.99999e-01
6.266218716e-01,2.59927e-02,9.99999e-01,9.99999e-01,2.59927e-02,9.99999e-01
6.297549810e-01,2.79358e-02,9.99999e-01,9.99999e-01,2.79358e-02,9.99999e-01
6.329037559e-01,2.99815e-02,9.99999e-01,9.99999e-01,2.99815e-02,9.99999e-01
6.360682746e-01,3.21321e-02,9.99999e-01,9.99999e-01,3.21321e-02,9.99999e-01
6.392486160e-01,3.43899e-02,9.99999e-01,9.99999e-01,3.43899e-02,9.99999e-01
6.424448591e-01,3.67570e-02,9.99999e-01,9.99999e-01,3.67570e-02,9.99999e-01
6.456570834e-01,3.92354e-02,9.99999e-01,9.99999e-01,3.92354e-02,9.99999e-01
6.488853688e-01,4.18270e-02,9.99999e-01,9.99999e-01,4.18270e-02,9.99999e-01
6.521297956e-01,4.45334e-02,9.99999e-01,9.99999e-01,4.45334e-02,9.99999e-01
6.553904446e-01,4.73563e-02,9.99999e-01,9.99999e-01,4.73563e-02,9.99999e-01
6.586673968e-01,5.02971e-02,9.99999e-01,9.99999e-01,5.02971e-02,9.99999e-01
6.619607338e-01,5.33569e-02,9.99999e-01,9.99999e-01,5.33569e-02,9.99999e-01
6.652705375e-01,5.65368e-02,9.99999e-01,9.99999e-01,5.65368e-02,9.99999e-01
6.685968902e-01,5.98378e-02,9.99999e-01,9.99999e-01,5.98378e-02,9.99999e-01
6.719398746e-01,6.32607e-02,9.99999e-01,9.99999e-01,6.32607e-02,9.99999e-01
6.752995740e-01,6.68058e-02,9.99999e-01,9.99999e-01,6.68058e-02,9.99999e-01
6.786760719e-01,7.04737e-02,9.99999e-01,9.99999e-01,7.04737e-02,9.99999e-01
6.820694522e-01,7.42645e-02,9.99999e-01,9.99999e-01,7.42645e-02,9.99999e-01
6.854797995e-01,7.81783e-02,9.99999e-01,9.99999e-01,7.81783e-02,9.99999e-01
6.889071985e-01,8.22149e-02,9.99999e-01,9.99999e-01,8.22149e-02,9.99999e-01
6.923517345e-01,8.63740e-02,9.99999e-01,9.99999e-01,8.63740e-02,9.99999e-01
6.958134932e-01,9.06551e-02,9.99999e-01,9.99999e-01,9.06551e-02,9.99999e-01
6.992925606e-01,9.50574e-02,9.99999e-01,9.99999e-01,9.50574e-02,9.99999e-01
7.027890234e-01,9.95803e-02,9.99999e-01,9.99999e-01,9.95803e-02,9.99999e-01
7.063029686e-01,1.04223e-01,9.99999e-01,9.99999e-01,1.04223e-01,9.99999e-01
7.098344834e-01,1.08983e-01,9.99999e-01,9.99999e-01,1.08983e-01,9.99999e-01
7.133836558e-01,1.13861e-01,9.99999e-01,9.99999e-01,1.13861e-01,9.99999e-01
7.169505741e-01,1.18854e-01,9.99999e-01,9.99999e-01,1.18854e-01,9.99999e-01
7.205353270e-01,1.23961e-01,9.99999e-01,9.99999e-01,1.23961e-01,9.99999e-01
7.241380036e-01,1.29180e-01,9.99999e-01,9.99999e-01,1.29180e-01,9.99999e-01
7.277586936e-01,1.34509e-01,9.99999e-01,9.99999e-01,1.34509e-01,9.99999e-01
7.313974871e-01,1.39946e-01,9.99999e-01,9.99999e-01,1.39946e-01,9.99999e-01
7.350544745e-01,1.45488e-01,9.99999e-01,9.99999e-01,1.45488e-01,9.99999e-01
7.387297469e-01,1.51135e-01,9.99999e-01,9.99999e-01,1.51135e-01,9.99999e-01
7.424233956e-01,1.56882e-01,9.99999e-01,9.99999e-01,1.56882e-01,9.99999e-01
7.461355126e-01,1.62729e-01,9.99999e-01,9.99999e-01,1.62729e-01,9.99999e-01
7.498661902e-01,1.68671e-01,9.99999e-01,9.99999e-01,1.68671e-01,9.99999e-01
7.536155211e-01,1.74706e-01,9.99999e-01,9.99999e-01,1.74706e-01,9.99999e-01
7.573835987e-01,1.80831e-01,9.99999e-01,9.99999e-01,1.80831e-01,9.99999e-01
7.611705167e-01,1.87044e-01,9.99999e-01,9.99999e-01,1.87044e-01,9.99999e-01
7.649763693e-01,1.93342e-01,9.99999e-01,9.99999e-01,1.93342e-01,9.99999e-01
7.688012511e-01,1.99720e-01,9.99999e-01,9.99999e-01,1.99720e-01,9.99999e-01
7.726452574e-01,2.06177e-01,9.99999e-01,9.99999e-01,2.06177e-01,9.99999e-01
7.765084837e-01,2.12709e-01,9.99999e-01,9.99999e-01,2.12709e-01,9.99999e-01
7.803910261e-01,2.04997e-01,9.99999e-01,9.34726e-01,2.19313e-01,9.99999e-01
7.842929812e-01,1.65788e-01,9.99999e-01,7.33625e-01,2.25985e-01,9.99999e-01
7.882144461e-01,1.67270e-01,9.99999e-01,7.18755e-01,2.32722e-01,9.99999e-01
7.921555184e-01,1.96396e-01,9.99999e-01,8.19951e-01,2.39521e-01,9.99999e-01
7.961162960e-01,2.15649e-01,9.99999e-01,8.75272e-01,2.46379e-01,9.99999e-01
8.000968774e-01,2.35615e-01,9.99999e-01,9.30211e-01,2.53292e-01,9.99999e-01
8.040973618e-01,2.50695e-01,9.99999e-01,9.63262e-01,2.60256e-01,9.99999e-01
8.081178486e-01,2.62704e-01,9.99999e-01,9.82921e-01,2.67269e-01,9.99999e-01
8.121584379e-01,2.72878e-01,9.99999e-01,9.94720e-01,2.74326e-01,9.99999e-01
8.162192301e-01,2.81097e-01,9.99999e-01,9.98831e-01,2.81425e-01,9.99999e-01
8.203003262e-01,2.88558e-01,9.99999e-01,9.99983e-01,2.88562e-01,9.99999e-01
8.244018279e-01,2.95734e-01,9.99999e-01,9.99999e-01,2.95734e-01,9.99999e-01
8.285238370e-01,3.02937e-01,9.99999e-01,9.99999e-01,3.02937e-01,9.99999e-01
8.326664562e-01,3.10168e-01,9.99999e-01,9.99999e-01,3.10168e-01,9.99999e-01
8.368297885e-01,3.17423e-01,9.99999e-01,9.99999e-01,3.17423e-01,9.99999e-01
8.410139374e-01,3.24700e-01,9.99999e-01,9.99999e-01,3.24700e-01,9.99999e-01
8.452190071e-01,3.31996e-01,9.99999e-01,9.99999e-01,3.31996e-01,9.99999e-01
8.494451021e-01,3.39306e-01,9.99999e-01,9.99999e-01,3.39306e-01,9.99999e-01
8.536923276e-01,3.46627e-01,9.99999e-01,9.99999e-01,3.46627e-01,9.99999e-01
8.579607893e-01,3.53958e-01,9.99999e-01,9.99999e-01,3.53958e-01,9.99999e-01
8.622505932e-01,3.61294e-01,9.99999e-01,9.99999e-01,3.61294e-01,9.99999e-01
8.665618462e-01,3.27117e-01,9.99999e-01,8.87378e-01,3.68633e-01,9.99999e-01
8.708946554e-01,1.73550e-01,9.99999e-01,4.61604e-01,3.75972e-01,9.99999e-01
8.752491287e-01,2.03346e-01,9.99999e-01,5.30504e-01,3.83307e-01,9.99999e-01
8.796253743e-01,2.74293e-01,9.99999e-01,7.02169e-01,3.90637e-01,9.99999e-01
8.840235012e-01,3.30663e-01,9.99999e-01,8.30899e-01,3.97957e-01,9.99999e-01
8.884436187e-01,3.76686e-01,9.99999e-01,9.29477e-01,4.05267e-01,9.99999e-01
8.928858368e-01,4.00495e-01,9.99999e-01,9.70751e-01,4.12562e-01,9.99999e-01
8.973502660e-01,4.16833e-01,9.99999e-01,9.92838e-01,4.19840e-01,9.99999e-01
9.018370173e-01,4.26762e-01,9.99999e-01,9.99209e-01,4.27099e-01,9.99999e-01
9.063462024e-01,4.25538e-01,9.99999e-01,9.79740e-01,4.34337e-01,9.99999e-01
9.108779334e-01,4.21344e-01,9.99999e-01,9.54237e-01,4.41551e-01,9.99999e-01
9.154323231e-01,4.43856e-01,9.99999e-01,9.89118e-01,4.48738e-01,9.99999e-01
9.200094847e-01,3.92398e-01,9.99999e-01,8.60715e-01,4.55897e-01,9.99999e-01
9.246095321e-01,3.68384e-01,9.99999e-01,7.95600e-01,4.63026e-01,9.99999e-01
9.292325798e-01,3.93345e-01,9.99999e-01,8.36686e-01,4.70122e-01,9.99999e-01
9.338787427e-01,4.01509e-01,9.99999e-01,8.41413e-01,4.77183e-01,9.99999e-01
9.385481364e-01,4.26249e-01,9.99999e-01,8.80301e-01,4.84208e-01,9.99999e-01
9.432408771e-01,4.54261e-01,9.99999e-01,9.24808e-01,4.91194e-01,9.99999e-01
9.479570815e-01,4.78528e-01,9.99999e-01,9.60628e-01,4.98140e-01,9.99999e-01
9.526968669e-01,4.95374e-01,9.99999e-01,9.80850e-01,5.05045e-01,9.99999e-01
9.574603512e-01,5.07691e-01,9.99999e-01,9.91766e-01,5.11905e-01,9.99999e-01
9.622476530e-01,5.17386e-01,9.99999e-01,9.97426e-01,5.18721e-01,9.99999e-01
9.670588912e-01,5.25085e-01,9.99999e-01,9.99228e-01,5.25490e-01,9.99999e-01
9.718941857e-01,5.32183e-01,9.99999e-01,9.99945e-01,5.32211e-01,9.99999e-01
9.767536566e-01,5.38883e-01,9.99999e-01,9.99999e-01,5.38883e-01,9.99999e-01
9.816374249e-01,5.45505e-01,9.99999e-01,9.99999e-01,5.45505e-01,9.99999e-01
9.865456120e-01,5.52074e-01,9.99999e-01,9.99999e-01,5.52074e-01,9.99999e-01
9.914783401e-01,5.58590e-01,9.99999e-01,9.99999e-01,5.58590e-01,9.99999e-01
9.964357318e-01,5.65053e-01,9.99999e-01,9.99999e-01,5.65053e-01,9.99999e-01
1.001417910e+00,5.71460e-01,9.99999e-01,9.99999e-01,5.71460e-01,9.99999e-01
1.006425000e+00,5.77811e-01,9.99999e-01,9.99999e-01,5.77811e-01,9.99999e-01
1.011457125e+00,5.84105e-01,9.99999e-01,9.99999e-01,5.84105e-01,9.99999e-01
1.016514411e+00,5.90342e-01,9.99999e-01,9.99999e-01,5.90342e-01,9.99999e-01
1.021596983e+00,5.96450e-01,9.99999e-01,9.99882e-01,5.96520e-01,9.99999e-01
1.026704968e+00,5.97808e-01,9.99999e-01,9.91984e-01,6.02638e-01,9.99999e-01
1.031838492e+00,5.62700e-01,9.99999e-01,9.24433e-01,6.08697e-01,9.99999e-01
1.036997685e+00,4.62811e-02,9.99999e-01,7.52910e-02,6.14695e-01,9.99999e-01
1.042182673e+00,1.00565e-02,9.99999e-01,1.62036e-02,6.20632e-01,9.99999e-01
1.047393587e+00,1.93527e-02,9.99999e-01,3.08899e-02,6.26508e-01,9.99999e-01
1.052630555e+00,2.54245e-05,9.99999e-01,4.02082e-05,6.32321e-01,9.99999e-01
1.057893707e+00,9.11288e-05,9.99999e-01,1.42819e-04,6.38072e-01,9.99999e-01
1.063183176e+00,8.77550e-04,9.99999e-01,1.36316e-03,6.43760e-01,9.99999e-01
1.068499092e+00,5.19004e-03,9.99999e-01,7.99223e-03,6.49385e-01,9.99999e-01
1.073841587e+00,3.01199e-02,9.99999e-01,4.59883e-02,6.54946e-01,9.99999e-01
1.079210795e+00,9.44735e-02,9.99999e-01,1.43045e-01,6.60444e-01,9.99999e-01
1.084606849e+00,2.24175e-01,9.99999e-01,3.36660e-01,6.65878e-01,9.99999e-01
1.090029883e+00,3.80178e-01,9.99999e-01,5.66374e-01,6.71248e-01,9.99999e-01
1.095480033e+00,5.11054e-01,9.99999e-01,7.55377e-01,6.76554e-01,9.99999e-01
1.100957433e+00,5.95353e-01,9.99999e-01,8.73212e-01,6.81796e-01,9.99999e-01
1.106462220e+00,6.49514e-01,9.99999e-01,9.45470e-01,6.86974e-01,9.99999e-01
1.111994531e+00,6.77843e-01,9.99999e-01,9.79417e-01,6.92087e-01,9.99999e-01
1.117554504e+00,6.93616e-01,9.99999e-01,9.94949e-01,6.97137e-01,9.99999e-01
1.123142276e+00,7.01890e-01,9.99999e-01,9.99668e-01,7.02123e-01,9.99999e-01
1.128757988e+00,7.07044e-01,9.99999e-01,9.99999e-01,7.07044e-01,9.99999e-01
1.134401778e+00,7.11903e-01,9.99999e-01,9.99999e-01,7.11903e-01,9.99999e-01
1.140073787e+00,7.16697e-01,9.99999e-01,9.99999e-01,7.16697e-01,9.99999e-01
1.145774156e+00,7.21428e-01,9.99999e-01,9.99999e-01,7.21428e-01,9.99999e-01
1.151503026e+00,7.26096e-01,9.99999e-01,9.99999e-01,7.26096e-01,9.99999e-01
1.157260541e+00,7.30701e-01,9.99999e-01,9.99999e-01,7.30701e-01,9.99999e-01
1.163046844e+00,7.35244e-01,9.99999e-01,9.99999e-01,7.35244e-01,9.99999e-01
1.168862078e+00,7.39724e-01,9.99999e-01,9.99999e-01,7.39724e-01,9.99999e-01
1.174706389e+00,7.44142e-01,9.99999e-01,9.99999e-01,7.44142e-01,9.99999e-01
1.180579921e+00,7.48498e-01,9.99999e-01,9.99999e-01,7.48498e-01,9.99999e-01
1.186482820e+00,7.52781e-01,9.99999e-01,9.99983e-01,7.52794e-01,9.99999e-01
1.192415234e+00,7.35923e-01,9.99999e-01,9.72121e-01,7.57028e-01,9.99999e-01
1.198377311e+00,4.08134e-01,9.99999e-01,5.36170e-01,7.61202e-01,9.99999e-01
1.204369197e+00,2.59766e-21,9.99999e-01,3.39423e-21,7.65315e-01,9.99999e-01
1.210391043e+00,3.80401e-84,9.99999e-01,4.94432e-84,7.69369e-01,9.99999e-01
1.216442998e+00,6.54215e-73,9.99999e-01,8.45934e-73,7.73364e-01,9.99999e-01
1.222525213e+00,7.94088e-72,9.99999e-01,1.02160e-71,7.77300e-01,9.99999e-01
1.228637839e+00,1.60062e-55,9.99999e-01,2.04898e-55,7.81177e-01,9.99999e-01
1.234781029e+00,7.76216e-35,9.99999e-01,9.88813e-35,7.84997e-01,9.99999e-01
1.240954934e+00,3.04520e-23,9.99999e-01,3.86074e-23,7.88760e-01,9.99999e-01
1.247159708e+00,1.30046e-11,9.99999e-01,1.64103e-11,7.92465e-01,9.99999e-01
1.253395507e+00,8.12021e-08,9.99999e-01,1.01998e-07,7.96115e-01,9.99999e-01
1.259662485e+00,8.15286e-05,9.99999e-01,1.01948e-04,7.99708e-01,9.99999e-01
1.265960797e+00,4.58702e-03,9.99999e-01,5.71059e-03,8.03247e-01,9.99999e-01
1.272290601e+00,7.84157e-02,9.99999e-01,9.72017e-02,8.06731e-01,9.99999e-01
1.278652054e+00,6.76515e-02,9.99999e-01,8.35038e-02,8.10160e-01,9.99999e-01
1.285045314e+00,2.60762e-04,9.99999e-01,3.20529e-04,8.13536e-01,9.99999e-01
1.291470541e+00,2.65132e-10,9.99999e-01,3.24575e-10,8.16859e-01,9.99999e-01
1.297927893e+00,3.24455e-04,9.99999e-01,3.95614e-04,8.20129e-01,9.99999e-01
1.304417533e+00,1.14021e-02,9.99999e-01,1.38484e-02,8.23348e-01,9.99999e-01
1.310939621e+00,2.67304e-03,9.99999e-01,3.23411e-03,8.26515e-01,9.99999e-01
1.317494319e+00,5.28136e-29,9.99999e-01,6.36590e-29,8.29632e-01,9.99999e-01
1.324081790e+00,2.84517e-19,9.99999e-01,3.41680e-19,8.32698e-01,9.99999e-01
1.330702199e+00,1.88669e-11,9.99999e-01,2.25757e-11,8.35715e-01,9.99999e-01
1.337355710e+00,1.14136e-10,9.99999e-01,1.36090e-10,8.38683e-01,9.99999e-01
1.344042489e+00,4.88880e-11,9.99999e-01,5.80892e-11,8.41602e-01,9.99999e-01
1.350762701e+00,1.02009e-11,9.99999e-01,1.20795e-11,8.44474e-01,9.99999e-01
1.357516515e+00,1.92682e-07,9.99999e-01,2.27407e-07,8.47298e-01,9.99999e-01
1.364304097e+00,2.06266e-05,9.99999e-01,2.42644e-05,8.50076e-01,9.99999e-01
1.371125618e+00,3.70306e-03,9.99999e-01,4.34220e-03,8.52807e-01,9.99999e-01
1.377981246e+00,8.28698e-03,9.99999e-01,9.68677e-03,8.55494e-01,9.99999e-01
1.384871152e+00,5.76207e-02,9.99999e-01,6.71464e-02,8.58135e-01,9.99999e-01
1.391795508e+00,7.12123e-02,9.99999e-01,8.27345e-02,8.60732e-01,9.99999e-01
1.398754485e+00,1.81979e-01,9.99999e-01,2.10798e-01,8.63286e-01,9.99999e-01
1.405748258e+00,2.77455e-01,9.99999e-01,3.20462e-01,8.65796e-01,9.99999e-01
1.412776999e+00,4.21696e-01,9.99999e-01,4.85677e-01,8.68264e-01,9.99999e-01
1.419840884e+00,3.81064e-01,9.99999e-01,4.37656e-01,8.70690e-01,9.99999e-01
1.426940089e+00,1.89252e-02,9.99999e-01,2.16765e-02,8.73075e-01,9.99999e-01
1.434074789e+00,0.00000e+00,9.99999e-01,0.00000e+00,8.75419e-01,9.99999e-01
1.441245163e+00,0.00000e+00,9.99999e-01,0.00000e+00,8.77723e-01,9.99999e-01
1.448451389e+00,0.00000e+00,9.99999e-01,0.00000e+00,8.79987e-01,9.99999e-01
1.455693646e+00,0.00000e+00,9.99999e-01,0.00000e+00,8.82212e-01,9.99999e-01
1.462972114e+00,0.00000e+00,9.99999e-01,0.00000e+00,8.84398e-01,9.99999e-01
1.470286975e+00,4.99543e-139,9.99999e-01,5.63470e-139,8.86547e-01,9.99999e-01
