#,Wave/freq,Total,O2,CO2,Rayleigh,CIA
4.000000000e-01,2.19347e-02,9.99999e-01,9.99999e-01,2.19347e-02,9.99999e-01
4.020000000e-01,2.36555e-02,9.99999e-01,9.99999e-01,2.36555e-02,9.99999e-01
4.040100000e-01,2.54713e-02,9.99999e-01,9.99999e-01,2.54713e-02,9.99999e-01
4.060300500e-01,2.73864e-02,9.99999e-01,9.99999e-01,2.73864e-02,9.99999e-01
4.080602003e-01,2.94034e-02,9.99999e-01,9.99999e-01,2.94034e-02,9.99999e-01
4.101005013e-01,3.15247e-02,9.99999e-01,9.99999e-01,3.15247e-02,9.99999e-01
4.121510038e-01,3.37525e-02,9.99999e-01,9.99999e-01,3.37525e-02,9.99999e-01
4.142117588e-01,3.60891e-02,9.99999e-01,9.99999e-01,3.60891e-02,9.99999e-01
4.162828176e-01,3.85364e-02,9.99999e-01,9.99999e-01,3.85364e-02,9.99999e-01
4.183642317e-01,4.10964e-02,9.99999e-01,9.99999e-01,4.10964e-02,9.99999e-01
4.204560528e-01,4.37708e-02,9.99999e-01,9.99999e-01,4.37708e-02,9.99999e-01
4.225583331e-01,4.65612e-02,9.99999e-01,9.99999e-01,4.65612e-02,9.99999e-01
4.246711247e-01,4.94691e-02,9.99999e-01,9.99999e-01,4.94691e-02,9.99999e-01
4.267944804e-01,5.24958e-02,9.99999e-01,9.99999e-01,5.24958e-02,9.99999e-01
4.289284528e-01,5.56423e-02,9.99999e-01,9.99999e-01,5.56423e-02,9.99999e-01
4.310730950e-01,5.89097e-02,9.99999e-01,9.99999e-01,5.89097e-02,9.99999e-01
4.332284605e-01,6.22986e-02,9.99999e-01,9.99999e-01,6.22986e-02,9.99999e-01
4.353946028e-01,6.58098e-02,9.99999e-01,9.99999e-01,6.58098e-02,9.99999e-01
4.375715758e-01,6.94436e-02,9.99999e-01,9.99999e-01,6.94436e-02,9.99999e-01
4.397594337e-01,7.32003e-02,9.99999e-01,9.99999e-01,7.32003e-02,9.99999e-01
4.419582309e-01,7.70799e-02,9.99999e-01,9.99999e-01,7.70799e-02,9.99999e-01
4.441680220e-01,8.10825e-02,9.99999e-01,9.99999e-01,8.10825e-02,9.99999e-01
4.463888621e-01,8.52076e-02,9.99999e-01,9.99999e-01,8.52076e-02,9.99999e-01
4.486208064e-01,8.94549e-02,9.99999e-01,9.99999e-01,8.94549e-02,9.99999e-01
4.508639105e-01,9.38237e-02,9.99999e-01,9.99999e-01,9.38237e-02,9.99999e-01
4.531182300e-01,9.83132e-02,9.99999e-01,9.99999e-01,9.83132e-02,9.99999e-01
4.553838212e-01,1.02922e-01,9.99999e-01,9.99999e-01,1.02922e-01,9.99999e-01
4.576607403e-01,1.07650e-01,9.99999e-01,9.99999e-01,1.07650e-01,9.99999e-01
4.599490440e-01,1.12496e-01,9.99999e-01,9.99999e-01,1.12496e-01,9.99999e-01
4.622487892e-01,1.17457e-01,9.99999e-01,9.99999e-01,1.17457e-01,9.99999e-01
4.645600332e-01,1.22532e-01,9.99999e-01,9.99999e-01,1.22532e-01,9.99999e-01
4.668828333e-01,1.27720e-01,9.99999e-01,9.99999e-01,1.27720e-01,9.99999e-01
4.692172475e-01,1.33019e-01,9.99999e-01,9.99999e-01,1.33019e-01,9.99999e-01
4.715633337e-01,1.38426e-01,9.99999e-01,9.99999e-01,1.38426e-01,9.99999e-01
4.739211504e-01,1.43940e-01,9.99999e-01,9.99999e-01,1.43940e-01,9.99999e-01
4.762907561e-01,1.49558e-01,9.99999e-01,9.99999e-01,1.49558e-01,9.99999e-01
4.786722099e-01,1.55278e-01,9.99999e-01,9.99999e-01,1.55278e-01,9.99999e-01
4.810655710e-01,1.61097e-01,9.99999e-01,9.99999e-01,1.61097e-01,9.99999e-01
4.834708988e-01,1.67012e-01,9.99999e-01,9.99999e-01,1.67012e-01,9.99999e-01
4.858882533e-01,1.73022e-01,9.99999e-01,9.99999e-01,1.73022e-01,9.99999e-01
4.883176946e-01,1.79123e-01,9.99999e-01,9.99999e-01,1.79123e-01,9.99999e-01
4.907592831e-01,1.85312e-01,9.99999e-01,9.99999e-01,1.85312e-01,9.99999e-01
4.932130795e-01,1.91586e-01,9.99999e-01,9.99999e-01,1.91586e-01,9.99999e-01
4.956791449e-01,1.97942e-01,9.99999e-01,9.99999e-01,1.97942e-01,9.99999e-01
4.981575406e-01,2.04378e-01,9.99999e-01,9.99999e-01,2.04378e-01,9.99999e-01
5.006483283e-01,2.10889e-01,9.99999e-01,9.99999e-01,2.10889e-01,9.99999e-01
5.031515699e-01,2.17473e-01,9.99999e-01,9.99999e-01,2.17473e-01,9.99999e-01
5.056673278e-01,2.24127e-01,9.99999e-01,9.99999e-01,2.24127e-01,9.99999e-01
5.081956644e-01,2.30846e-01,9.99999e-01,9.99999e-01,2.30846e-01,9.99999e-01
5.107366428e-01,2.37629e-01,9.99999e-01,9.99999e-01,2.37629e-01,9.99999e-01
5.132903260e-01,2.44470e-01,9.99999e-01,9.99999e-01,2.44470e-01,9.99999e-01
5.158567776e-01,2.51368e-01,9.99999e-01,9.99999e-01,2.51368e-01,9.99999e-01
5.184360615e-01,2.58319e-01,9.99999e-01,9.99999e-01,2.58319e-01,9.99999e-01
5.210282418e-01,2.65318e-01,9.99999e-01,9.99999e-01,2.65318e-01,9.99999e-01
5.236333830e-01,2.72364e-01,9.99999e-01,9.99999e-01,2.72364e-01,9.99999e-01
5.262515499e-01,2.79451e-01,9.99999e-01,9.99999e-01,2.79451e-01,9.99999e-01
5.288828077e-01,2.86578e-01,9.99999e-01,9.99999e-01,2.86578e-01,9.99999e-01
5.315272217e-01,2.93741e-01,9.99999e-01,9.99999e-01,2.93741e-01,9.99999e-01
5.341848578e-01,3.00935e-01,9.99999e-01,9.99999e-01,3.00935e-01,9.99999e-01
5.368557821e-01,3.08159e-01,9.99999e-01,9.99999e-01,3.08159e-01,9.99999e-01
5.395400610e-01,3.15408e-01,9.99999e-01,9.99999e-01,3.15408e-01,9.99999e-01
5.422377613e-01,3.22679e-01,9.99999e-01,9.99999e-01,3.22679e-01,9.99999e-01
5.449489501e-01,3.29970e-01,9.99999e-01,9.99999e-01,3.29970e-01,9.99999e-01
5.476736949e-01,3.37276e-01,9.99999e-01,9.99999e-01,3.37276e-01,9.99999e-01
5.504120634e-01,3.44595e-01,9.99999e-01,9.99999e-01,3.44595e-01,9.99999e-01
5.531641237e-01,3.51923e-01,9.99999e-01,9.99999e-01,3.51923e-01,9.99999e-01
5.559299443e-01,3.59258e-01,9.99999e-01,9.99999e-01,3.59258e-01,9.99999e-01
5.587095940e-01,3.66597e-01,9.99999e-01,9.99999e-01,3.66597e-01,9.99999e-01
5.615031420e-01,3.73936e-01,9.99999e-01,9.99999e-01,3.73936e-01,9.99999e-01
5.643106577e-01,3.81272e-01,9.99999e-01,9.99999e-01,3.81272e-01,9.99999e-01
5.671322110e-01,3.88604e-01,9.99999e-01,9.99999e-01,3.88604e-01,9.99999e-01
5.699678720e-01,3.95927e-01,9.99999e-01,9.99999e-01,3.95927e-01,9.99999e-01
5.728177114e-01,4.03240e-01,9.99999e-01,9.99999e-01,4.03240e-01,9.99999e-01
5.756818000e-01,4.10539e-01,9.99999e-01,9.99999e-01,4.10539e-01,9.99999e-01
5.785602090e-01,4.17822e-01,9.99999e-01,9.99999e-01,4.17822e-01,9.99999e-01
5.814530100e-01,4.25087e-01,9.99999e-01,9.99999e-01,4.25087e-01,9.99999e-01
5.843602750e-01,4.32331e-01,9.99999e-01,9.99999e-01,4.32331e-01,9.99999e-01
5.872820764e-01,4.39552e-01,9.99999e-01,9.99999e-01,4.39552e-01,9.99999e-01
5.902184868e-01,4.46747e-01,9.99999e-01,9.99999e-01,4.46747e-01,9.99999e-01
5.931695792e-01,4.53914e-01,9.99999e-01,9.99999e-01,4.53914e-01,9.99999e-01
5.961354271e-01,4.61051e-01,9.99999e-01,9.99999e-01,4.61051e-01,9.99999e-01
5.991161043e-01,4.68156e-01,9.99999e-01,9.99999e-01,4.68156e-01,9.99999e-01
6.021116848e-01,4.75227e-01,9.99999e-01,9.99999e-01,4.75227e-01,9.99999e-01
6.051222432e-01,4.82262e-01,9.99999e-01,9.99999e-01,4.82262e-01,9.99999e-01
6.081478544e-01,4.89260e-01,9.99999e-01,9.99999e-01,4.89260e-01,9.99999e-01
6.111885937e-01,4.96217e-01,9.99999e-01,9.99999e-01,4.96217e-01,9.99999e-01
6.142445367e-01,5.03133e-01,9.99999e-01,9.99999e-01,5.03133e-01,9.99999e-01
6.173157594e-01,5.10006e-01,9.99999e-01,9.99999e-01,5.10006e-01,9.99999e-01
6.204023382e-01,5.16834e-01,9.99999e-01,9.99999e-01,5.16834e-01,9.99999e-01
6.235043498e-01,5.23617e-01,9.99999e-01,9.99999e-01,5.23617e-01,9.99999e-01
6.266218716e-01,5.30351e-01,9.99999e-01,9.99999e-01,5.30351e-01,9.99999e-01
6.297549810e-01,5.37037e-01,9.99999e-01,9.99999e-01,5.37037e-01,9.99999e-01
6.329037559e-01,5.43672e-01,9.99999e-01,9.99999e-01,5.43672e-01,9.99999e-01
6.360682746e-01,5.50256e-01,9.99999e-01,9.99999e-01,5.50256e-01,9.99999e-01
6.392486160e-01,5.56788e-01,9.99999e-01,9.99999e-01,5.56788e-01,9.99999e-01
6.424448591e-01,5.63265e-01,9.99999e-01,9.99999e-01,5.63265e-01,9.99999e-01
6.456570834e-01,5.69688e-01,9.99999e-01,9.99999e-01,5.69688e-01,9.99999e-01
6.488853688e-01,5.76054e-01,9.99999e-01,9.99999e-01,5.76054e-01,9.99999e-01
6.521297956e-01,5.82365e-01,9.99999e-01,9.99999e-01,5.82365e-01,9.99999e-01
6.553904446e-01,5.88617e-01,9.99999e-01,9.99999e-01,5.88617e-01,9.99999e-01
6.586673968e-01,5.94811e-01,9.99999e-01,9.99999e-01,5.94811e-01,9.99999e-01
6.619607338e-01,6.00947e-01,9.99999e-01,9.99999e-01,6.00947e-01,9.99999e-01
6.652705375e-01,6.07022e-01,9.99999e-01,9.99999e-01,6.07022e-01,9.99999e-01
6.685968902e-01,6.13037e-01,9.99999e-01,9.99999e-01,6.13037e-01,9.99999e-01
6.719398746e-01,6.18991e-01,9.99999e-01,9.99999e-01,6.18991e-01,9.99999e-01
6.752995740e-01,6.24883e-01,9.99999e-01,9.99999e-01,6.24883e-01,9.99999e-01
6.786760719e-01,6.30714e-01,9.99999e-01,9.99999e-01,6.30714e-01,9.99999e-01
6.820694522e-01,6.36482e-01,9.99999e-01,9.99999e-01,6.36482e-01,9.99999e-01
6.854797995e-01,6.42188e-01,9.99999e-01,9.99999e-01,6.42188e-01,9.99999e-01
6.889071985e-01,6.47830e-01,9.99999e-01,9.99999e-01,6.47830e-01,9.99999e-01
6.923517345e-01,6.53409e-01,9.99999e-01,9.99999e-01,6.53409e-01,9.99999e-01
6.958134932e-01,6.58925e-01,9.99999e-01,9.99999e-01,6.58925e-01,9.99999e-01
6.992925606e-01,6.64376e-01,9.99999e-01,9.99999e-01,6.64376e-01,9.99999e-01
7.027890234e-01,6.69764e-01,9.99999e-01,9.99999e-01,6.69764e-01,9.99999e-01
7.063029686e-01,6.75088e-01,9.99999e-01,9.99999e-01,6.75088e-01,9.99999e-01
7.098344834e-01,6.80348e-01,9.99999e-01,9.99999e-01,6.80348e-01,9.99999e-01
7.133836558e-01,6.85543e-01,9.99999e-01,9.99999e-01,6.85543e-01,9.99999e-01
7.169505741e-01,6.90675e-01,9.99999e-01,9.99999e-01,6.90675e-01,9.99999e-01
7.205353270e-01,6.95742e-01,9.99999e-01,9.99999e-01,6.95742e-01,9.99999e-01
7.241380036e-01,7.00746e-01,9.99999e-01,9.99999e-01,7.00746e-01,9.99999e-01
7.277586936e-01,7.05685e-01,9.99999e-01,9.99999e-01,7.05685e-01,9.99999e-01
7.313974871e-01,7.10561e-01,9.99999e-01,9.99999e-01,7.10561e-01,9.99999e-01
7.350544745e-01,7.15373e-01,9.99999e-01,9.99999e-01,7.15373e-01,9.99999e-01
7.387297469e-01,7.20122e-01,9.99999e-01,9.99999e-01,7.20122e-01,9.99999e-01
7.424233956e-01,7.24807e-01,9.99999e-01,9.99999e-01,7.24807e-01,9.99999e-01
7.461355126e-01,7.29430e-01,9.99999e-01,9.99999e-01,7.29430e-01,9.99999e-01
7.498661902e-01,7.33989e-01,9.99999e-01,9.99999e-01,7.33989e-01,9.99999e-01
7.536155211e-01,7.38487e-01,9.99999e-01,9.99999e-01,7.38487e-01,9.99999e-01
7.573835987e-01,7.42922e-01,9.99999e-01,9.99999e-01,7.42922e-01,9.99999e-01
7.611705167e-01,7.47296e-01,9.99999e-01,9.99999e-01,7.47296e-01,9.99999e-01
7.649763693e-01,7.51608e-01,9.99999e-01,9.99999e-01,7.51608e-01,9.99999e-01
7.688012511e-01,7.55859e-01,9.99999e-01,9.99999e-01,7.55859e-01,9.99999e-01
7.726452574e-01,7.60049e-01,9.99999e-01,9.99999e-01,7.60049e-01,9.99999e-01
7.765084837e-01,7.64180e-01,9.99999e-01,9.99999e-01,7.64180e-01,9.99999e-01
7.803910261e-01,7.57987e-01,9.99999e-01,9.86640e-01,7.68250e-01,9.99999e-01
7.842929812e-01,7.29576e-01,9.99999e-01,9.44726e-01,7.72261e-01,9.99999e-01
7.882144461e-01,7.30149e-01,9.99999e-01,9.40654e-01,7.76214e-01,9.99999e-01
7.921555184e-01,7.53281e-01,9.99999e-01,9.65611e-01,7.80107e-01,9.99999e-01
7.961162960e-01,7.65867e-01,9.99999e-01,9.76941e-01,7.83943e-01,9.99999e-01
8.000968774e-01,7.77830e-01,9.99999e-01,9.87442e-01,7.87721e-01,9.99999e-01
8.040973618e-01,7.86284e-01,9.99999e-01,9.93481e-01,7.91443e-01,9.99999e-01
8.081178486e-01,7.92725e-01,9.99999e-01,9.97003e-01,7.95108e-01,9.99999e-01
8.121584379e-01,7.97978e-01,9.99999e-01,9.99074e-01,7.98717e-01,9.99999e-01
8.162192301e-01,8.02107e-01,9.99999e-01,9.99795e-01,8.02270e-01,9.99999e-01
8.203003262e-01,8.05767e-01,9.99999e-01,9.99996e-01,8.05769e-01,9.99999e-01
8.244018279e-01,8.09214e-01,9.99999e-01,9.99999e-01,8.09214e-01,9.99999e-01
8.285238370e-01,8.12605e-01,9.99999e-01,9.99999e-01,8.12605e-01,9.99999e-01
8.326664562e-01,8.15942e-01,9.99999e-01,9.99999e-01,8.15942e-01,9.99999e-01
8.368297885e-01,8.19227e-01,9.99999e-01,9.99999e-01,8.19227e-01,9.99999e-01
8.410139374e-01,8.22460e-01,9.99999e-01,9.99999e-01,8.22460e-01,9.99999e-01
8.452190071e-01,8.25641e-01,9.99999e-01,9.99999e-01,8.25641e-01,9.99999e-01
8.494451021e-01,8.28772e-01,9.99999e-01,9.99999e-01,8.28772e-01,9.99999e-01
8.536923276e-01,8.31852e-01,9.99999e-01,9.99999e-01,8.31852e-01,9.99999e-01
8.579607893e-01,8.34883e-01,9.99999e-01,9.99999e-01,8.34883e-01,9.99999e-01
8.622505932e-01,8.37864e-01,9.99999e-01,9.99999e-01,8.37864e-01,9.99999e-01
8.665618462e-01,8.09552e-01,9.99999e-01,9.62839e-01,8.40797e-01,9.99999e-01
8.708946554e-01,7.28104e-01,9.99999e-01,8.63007e-01,8.43681e-01,9.99999e-01
8.752491287e-01,7.53268e-01,9.99999e-01,8.89841e-01,8.46519e-01,9.99999e-01
8.796253743e-01,7.97258e-01,9.99999e-01,9.38712e-01,8.49310e-01,9.99999e-01
8.840235012e-01,8.24736e-01,9.99999e-01,9.67938e-01,8.52054e-01,9.99999e-01
8.884436187e-01,8.43874e-01,9.99999e-01,9.87272e-01,8.54753e-01,9.99999e-01
8.928858368e-01,8.52974e-01,9.99999e-01,9.94829e-01,8.57407e-01,9.99999e-01
8.973502660e-01,8.58935e-01,9.99999e-01,9.98742e-01,8.60016e-01,9.99999e-01
9.018370173e-01,8.62462e-01,9.99999e-01,9.99861e-01,8.62582e-01,9.99999e-01
9.063462024e-01,8.62007e-01,9.99999e-01,9.96419e-01,8.65104e-01,9.99999e-01
9.108779334e-01,8.60512e-01,9.99999e-01,9.91848e-01,8.67584e-01,9.99999e-01
9.154323231e-01,8.68354e-01,9.99999e-01,9.98082e-01,8.70021e-01,9.99999e-01
9.200094847e-01,8.47328e-01,9.99999e-01,9.71240e-01,8.72417e-01,9.99999e-01
9.246095321e-01,8.40348e-01,9.99999e-01,9.60646e-01,8.74773e-01,9.99999e-01
9.292325798e-01,8.49739e-01,9.99999e-01,9.68818e-01,8.77087e-01,9.99999e-01
9.338787427e-01,8.52965e-01,9.99999e-01,9.69980e-01,8.79362e-01,9.99999e-01
9.385481364e-01,8.62129e-01,9.99999e-01,9.77915e-01,8.81598e-01,9.99999e-01
9.432408771e-01,8.71820e-01,9.99999e-01,9.86449e-01,8.83795e-01,9.99999e-01
9.479570815e-01,8.79777e-01,9.99999e-01,9.93027e-01,8.85954e-01,9.99999e-01
9.526968669e-01,8.85085e-01,9.99999e-01,9.96631e-01,8.88076e-01,9.99999e-01
9.574603512e-01,8.88878e-01,9.99999e-01,9.98559e-01,8.90161e-01,9.99999e-01
9.622476530e-01,8.91808e-01,9.99999e-01,9.99550e-01,8.92209e-01,9.99999e-01
9.670588912e-01,8.94101e-01,9.99999e-01,9.99864e-01,8.94221e-01,9.99999e-01
9.718941857e-01,8.96189e-01,9.99999e-01,9.99990e-01,8.96198e-01,9.99999e-01
9.767536566e-01,8.98140e-01,9.99999e-01,9.99999e-01,8.98140e-01,9.99999e-01
9.816374249e-01,9.00048e-01,9.99999e-01,9.99999e-01,9.00048e-01,9.99999e-01
9.865456120e-01,9.01922e-01,9.99999e-01,9.99999e-01,9.01922e-01,9.99999e-01
9.914783401e-01,9.03763e-01,9.99999e-01,9.99999e-01,9.03763e-01,9.99999e-01
9.964357318e-01,9.05571e-01,9.99999e-01,9.99999e-01,9.05571e-01,9.99999e-01
1.001417910e+00,9.07347e-01,9.99999e-01,9.99999e-01,9.07347e-01,9.99999e-01
1.006425000e+00,9.09091e-01,9.99999e-01,9.99999e-01,9.09091e-01,9.99999e-01
1.011457125e+00,9.10804e-01,9.99999e-01,9.99999e-01,9.10804e-01,9.99999e-01
1.016514411e+00,9.12487e-01,9.99999e-01,9.99999e-01,9.12487e-01,9.99999e-01
1.021596983e+00,9.14122e-01,9.99999e-01,9.99980e-01,9.14139e-01,9.99999e-01
1.026704968e+00,9.14488e-01,9.99999e-01,9.98608e-01,9.15761e-01,9.99999e-01
1.031838492e+00,8.97029e-01,9.99999e-01,9.77842e-01,9.17354e-01,9.99999e-01
1.036997685e+00,3.24110e-01,9.99999e-01,3.52707e-01,9.18919e-01,9.99999e-01
1.042182673e+00,4.01904e-01,9.99999e-01,4.36635e-01,9.20455e-01,9.99999e-01
1.047393587e+00,3.57935e-01,9.99999e-01,3.88231e-01,9.21963e-01,9.99999e-01
1.052630555e+00,8.15157e-02,9.99999e-01,8.82735e-02,9.23444e-01,9.99999e-01
1.057893707e+00,1.40578e-01,9.99999e-01,1.51992e-01,9.24898e-01,9.99999e-01
1.063183176e+00,2.38336e-01,9.99999e-01,2.57292e-01,9.26325e-01,9.99999e-01
1.068499092e+00,3.78804e-01,9.99999e-01,4.08314e-01,9.27726e-01,9.99999e-01
1.073841587e+00,5.28335e-01,9.99999e-01,5.68650e-01,9.29102e-01,9.99999e-01
1.079210795e+00,6.52175e-01,9.99999e-01,7.00921e-01,9.30453e-01,9.99999e-01
1.084606849e+00,7.67839e-01,9.99999e-01,8.24056e-01,9.31778e-01,9.99999e-01
1.090029883e+00,8.44197e-01,9.99999e-01,9.04742e-01,9.33080e-01,9.99999e-01
1.095480033e+00,8.89449e-01,9.99999e-01,9.51935e-01,9.34357e-01,9.99999e-01
1.100957433e+00,9.13709e-01,9.99999e-01,9.76589e-01,9.35611e-01,9.99999e-01
1.106462220e+00,9.27716e-01,9.99999e-01,9.90258e-01,9.36842e-01,9.99999e-01
1.111994531e+00,9.34655e-01,9.99999e-01,9.96379e-01,9.38050e-01,9.99999e-01
1.117554504e+00,9.38405e-01,9.99999e-01,9.99115e-01,9.39236e-01,9.99999e-01
1.123142276e+00,9.40345e-01,9.99999e-01,9.99941e-01,9.40399e-01,9.99999e-01
1.128757988e+00,9.41541e-01,9.99999e-01,9.99999e-01,9.41541e-01,9.99999e-01
1.134401778e+00,9.42662e-01,9.99999e-01,9.99999e-01,9.42662e-01,9.99999e-01
1.140073787e+00,9.43762e-01,9.99999e-01,9.99999e-01,9.43762e-01,9.99999e-01
1.145774156e+00,9.44842e-01,9.99999e-01,9.99999e-01,9.44842e-01,9.99999e-01
1.151503026e+00,9.45902e-01,9.99999e-01,9.99999e-01,9.45902e-01,9.99999e-01
1.157260541e+00,9.46941e-01,9.99999e-01,9.99999e-01,9.46941e-01,9.99999e-01
1.163046844e+00,9.47961e-01,9.99999e-01,9.99999e-01,9.47961e-01,9.99999e-01
1.168862078e+00,9.48963e-01,9.99999e-01,9.99999e-01,9.48963e-01,9.99999e-01
1.174706389e+00,9.49945e-01,9.99999e-01,9.99999e-01,9.49945e-01,9.99999e-01
1.180579921e+00,9.50909e-01,9.99999e-01,9.99999e-01,9.50909e-01,9.99999e-01
1.186482820e+00,9.51853e-01,9.99999e-01,9.99996e-01,9.51855e-01,9.99999e-01
1.192415234e+00,9.48009e-01,9.99999e-01,9.94988e-01,9.52783e-01,9.99999e-01
1.198377311e+00,5.73006e-01,9.99999e-01,6.00827e-01,9.53694e-01,9.99999e-01
1.204369197e+00,1.48658e-05,9.99999e-01,1.55730e-05,9.54587e-01,9.99999e-01
1.210391043e+00,1.76441e-16,9.99999e-01,1.84665e-16,9.55464e-01,9.99999e-01
1.216442998e+00,1.66068e-14,9.99999e-01,1.73653e-14,9.56324e-01,9.99999e-01
1.222525213e+00,2.84420e-14,9.99999e-01,2.97147e-14,9.57168e-01,9.99999e-01
1.228637839e+00,6.27700e-11,9.99999e-01,6.55221e-11,9.57996e-01,9.99999e-01
1.234781029e+00,7.68179e-08,9.99999e-01,8.01180e-08,9.58809e-01,9.99999e-01
1.240954934e+00,2.46977e-05,9.99999e-01,2.57373e-05,9.59606e-01,9.99999e-01
1.247159708e+00,2.61479e-03,9.99999e-01,2.72264e-03,9.60387e-01,9.99999e-01
1.253395507e+00,3.89462e-02,9.99999e-01,4.05202e-02,9.61154e-01,9.99999e-01
1.259662485e+00,1.57351e-01,9.99999e-01,1.63582e-01,9.61907e-01,9.99999e-01
1.265960797e+00,3.37550e-01,9.99999e-01,3.50648e-01,9.62645e-01,9.99999e-01
1.272290601e+00,6.28820e-01,9.99999e-01,6.52729e-01,9.63369e-01,9.99999e-01
1.278652054e+00,5.66580e-01,9.99999e-01,5.87690e-01,9.64080e-01,9.99999e-01
1.285045314e+00,5.16760e-02,9.99999e-01,5.35626e-02,9.64776e-01,9.99999e-01
1.291470541e+00,1.34624e-02,9.99999e-01,1.39441e-02,9.65460e-01,9.99999e-01
1.297927893e+00,8.12388e-02,9.99999e-01,8.40867e-02,9.66131e-01,9.99999e-01
1.304417533e+00,4.46911e-01,9.99999e-01,4.62263e-01,9.66788e-01,9.99999e-01
1.310939621e+00,1.36426e-01,9.99999e-01,1.41019e-01,9.67433e-01,9.99999e-01
1.317494319e+00,4.65173e-06,9.99999e-01,4.80518e-06,9.68066e-01,9.99999e-01
1.324081790e+00,1.27717e-04,9.99999e-01,1.31845e-04,9.68687e-01,9.99999e-01
1.330702199e+00,9.57978e-03,9.99999e-01,9.88322e-03,9.69296e-01,9.99999e-01
1.337355710e+00,6.34220e-03,9.99999e-01,6.53906e-03,9.69893e-01,9.99999e-01
1.344042489e+00,2.62255e-03,9.99999e-01,2.70232e-03,9.70479e-01,9.99999e-01
1.350762701e+00,7.92042e-03,9.99999e-01,8.15651e-03,9.71054e-01,9.99999e-01
1.357516515e+00,4.00719e-02,9.99999e-01,4.12425e-02,9.71617e-01,9.99999e-01
1.364304097e+00,1.37059e-01,9.99999e-01,1.40983e-01,9.72170e-01,9.99999e-01
1.371125618e+00,3.43700e-01,9.99999e-01,3.53341e-01,9.72712e-01,9.99999e-01
1.377981246e+00,4.26958e-01,9.99999e-01,4.38696e-01,9.73244e-01,9.99999e-01
1.384871152e+00,6.02672e-01,9.99999e-01,6.18908e-01,9.73765e-01,9.99999e-01
1.391795508e+00,6.25698e-01,9.99999e-01,6.42217e-01,9.74277e-01,9.99999e-01
1.398754485e+00,7.42748e-01,9.99999e-01,7.61965e-01,9.74778e-01,9.99999e-01
1.405748258e+00,7.97810e-01,9.99999e-01,8.18039e-01,9.75270e-01,9.99999e-01
1.412776999e+00,8.59795e-01,9.99999e-01,8.81160e-01,9.75753e-01,9.99999e-01
1.419840884e+00,8.07298e-01,9.99999e-01,8.26958e-01,9.76226e-01,9.99999e-01
1.426940089e+00,1.18522e-01,9.99999e-01,1.21350e-01,9.76690e-01,9.99999e-01
1.434074789e+00,6.43987e-225,9.99999e-01,6.59049e-225,9.77145e-01,9.99999e-01
1.441245163e+00,0.00000e+00,9.99999e-01,0.00000e+00,9.77591e-01,9.99999e-01
1.448451389e+00,1.34311e-272,9.99999e-01,1.37329e-272,9.78029e-01,9.99999e-01
1.455693646e+00,2.40197e-122,9.99999e-01,2.45485e-122,9.78458e-01,9.99999e-01
1.462972114e+00,5.19391e-60,9.99999e-01,5.30597e-60,9.78879e-01,9.99999e-01
1.470286975e+00,5.22342e-26,9.99999e-01,5.33387e-26,9.79292e-01,9.99999e-01
