#,Wave/freq,Total,O2,CO2,Rayleigh,CIA
4.000000000e-01,2.29935e-03,9.99999e-01,9.99999e-01,2.29935e-03,9.99999e-01
4.020000000e-01,2.59282e-03,9.99999e-01,9.99999e-01,2.59282e-03,9.99999e-01
4.040100000e-01,2.91647e-03,9.99999e-01,9.99999e-01,2.91647e-03,9.99999e-01
4.060300500e-01,3.27290e-03,9.99999e-01,9.99999e-01,3.27290e-03,9.99999e-01
4.080602003e-01,3.66453e-03,9.99999e-01,9.99999e-01,3.66453e-03,9.99999e-01
4.101005013e-01,4.09388e-03,9.99999e-01,9.99999e-01,4.09388e-03,9.99999e-01
4.121510038e-01,4.56354e-03,9.99999e-01,9.99999e-01,4.56354e-03,9.99999e-01
4.142117588e-01,5.07617e-03,9.99999e-01,9.99999e-01,5.07617e-03,9.99999e-01
4.162828176e-01,5.63453e-03,9.99999e-01,9.99999e-01,5.63453e-03,9.99999e-01
4.183642317e-01,6.24142e-03,9.99999e-01,9.99999e-01,6.24142e-03,9.99999e-01
4.204560528e-01,6.89973e-03,9.99999e-01,9.99999e-01,6.89973e-03,9.99999e-01
4.225583331e-01,7.61238e-03,9.99999e-01,9.99999e-01,7.61238e-03,9.99999e-01
4.246711247e-01,8.38235e-03,9.99999e-01,9.99999e-01,8.38235e-03,9.99999e-01
4.267944804e-01,9.21265e-03,9.99999e-01,9.99999e-01,9.21265e-03,9.99999e-01
4.289284528e-01,1.01063e-02,9.99999e-01,9.99999e-01,1.01063e-02,9.99999e-01
4.310730950e-01,1.10664e-02,9.99999e-01,9.99999e-01,1.10664e-02,9.99999e-01
4.332284605e-01,1.20960e-02,9.99999e-01,9.99999e-01,1.20960e-02,9.99999e-01
4.353946028e-01,1.31982e-02,9.99999e-01,9.99999e-01,1.31982e-02,9.99999e-01
4.375715758e-01,1.43761e-02,9.99999e-01,9.99999e-01,1.43761e-02,9.99999e-01
4.397594337e-01,1.56326e-02,9.99999e-01,9.99999e-01,1.56326e-02,9.99999e-01
4.419582309e-01,1.69708e-02,9.99999e-01,9.99999e-01,1.69708e-02,9.99999e-01
4.441680220e-01,1.83938e-02,9.99999e-01,9.99999e-01,1.83938e-02,9.99999e-01
4.463888621e-01,1.99044e-02,9.99999e-01,9.99999e-01,1.99044e-02,9.99999e-01
4.486208064e-01,2.15054e-02,9.99999e-01,9.99999e-01,2.15054e-02,9.99999e-01
4.508639105e-01,2.31998e-02,9.99999e-01,9.99999e-01,2.31998e-02,9.99999e-01
4.531182300e-01,2.49902e-02,9.99999e-01,9.99999e-01,2.49902e-02,9.99999e-01
4.553838212e-01,2.68793e-02,9.99999e-01,9.99999e-01,2.68793e-02,9.99999e-01
4.576607403e-01,2.88696e-02,9.99999e-01,9.99999e-01,2.88696e-02,9.99999e-01
4.599490440e-01,3.09636e-02,9.99999e-01,9.99999e-01,3.09636e-02,9.99999e-01
4.622487892e-01,3.31635e-02,9.99999e-01,9.99999e-01,3.31635e-02,9.99999e-01
4.645600332e-01,3.54716e-02,9.99999e-01,9.99999e-01,3.54716e-02,9.99999e-01
4.668828333e-01,3.78900e-02,9.99999e-01,9.99999e-01,3.78900e-02,9.99999e-01
4.692172475e-01,4.04205e-02,9.99999e-01,9.99999e-01,4.04205e-02,9.99999e-01
4.715633337e-01,4.30651e-02,9.99999e-01,9.99999e-01,4.30651e-02,9.99999e-01
4.739211504e-01,4.58252e-02,9.99999e-01,9.99999e-01,4.58252e-02,9.99999e-01
4.762907561e-01,4.87025e-02,9.99999e-01,9.99999e-01,4.87025e-02,9.99999e-01
4.786722099e-01,5.16982e-02,9.99999e-01,9.99999e-01,5.16982e-02,9.99999e-01
4.810655710e-01,5.48135e-02,9.99999e-01,9.99999e-01,5.48135e-02,9.99999e-01
4.834708988e-01,5.80494e-02,9.99999e-01,9.99999e-01,5.80494e-02,9.99999e-01
4.858882533e-01,6.14067e-02,9.99999e-01,9.99999e-01,6.14067e-02,9.99999e-01
4.883176946e-01,6.48860e-02,9.99999e-01,9.99999e-01,6.48860e-02,9.99999e-01
4.907592831e-01,6.84879e-02,9.99999e-01,9.99999e-01,6.84879e-02,9.99999e-01
4.932130795e-01,7.22127e-02,9.99999e-01,9.99999e-01,7.22127e-02,9.99999e-01
4.956791449e-01,7.60604e-02,9.99999e-01,9.99999e-01,7.60604e-02,9.99999e-01
4.981575406e-01,8.00311e-02,9.99999e-01,9.99999e-01,8.00311e-02,9.99999e-01
5.006483283e-01,8.41244e-02,9.99999e-01,9.99999e-01,8.41244e-02,9.99999e-01
5.031515699e-01,8.83400e-02,9.99999e-01,9.99999e-01,8.83400e-02,9.99999e-01
5.056673278e-01,9.26773e-02,9.99999e-01,9.99999e-01,9.26773e-02,9.99999e-01
5.081956644e-01,9.71356e-02,9.99999e-01,9.99999e-01,9.71356e-02,9.99999e-01
5.107366428e-01,1.01714e-01,9.99999e-01,9.99999e-01,1.01714e-01,9.99999e-01
5.132903260e-01,1.06411e-01,9.99999e-01,9.99999e-01,1.06411e-01,9.99999e-01
5.158567776e-01,1.11226e-01,9.99999e-01,9.99999e-01,1.11226e-01,9.99999e-01
5.184360615e-01,1.16157e-01,9.99999e-01,9.99999e-01,1.16157e-01,9.99999e-01
5.210282418e-01,1.21203e-01,9.99999e-01,9.99999e-01,1.21203e-01,9.99999e-01
5.236333830e-01,1.26362e-01,9.99999e-01,9.99999e-01,1.26362e-01,9.99999e-01
5.262515499e-01,1.31632e-01,9.99999e-01,9.99999e-01,1.31632e-01,9.99999e-01
5.288828077e-01,1.37011e-01,9.99999e-01,9.99999e-01,1.37011e-01,9.99999e-01
5.315272217e-01,1.42498e-01,9.99999e-01,9.99999e-01,1.42498e-01,9.99999e-01
5.341848578e-01,1.48089e-01,9.99999e-01,9.99999e-01,1.48089e-01,9.99999e-01
5.368557821e-01,1.53782e-01,9.99999e-01,9.99999e-01,1.53782e-01,9.99999e-01
5.395400610e-01,1.59576e-01,9.99999e-01,9.99999e-01,1.59576e-01,9.99999e-01
5.422377613e-01,1.65467e-01,9.99999e-01,9.99999e-01,1.65467e-01,9.99999e-01
5.449489501e-01,1.71452e-01,9.99999e-01,9.99999e-01,1.71452e-01,9.99999e-01
5.476736949e-01,1.77529e-01,9.99999e-01,9.99999e-01,1.77529e-01,9.99999e-01
5.504120634e-01,1.83696e-01,9.99999e-01,9.99999e-01,1.83696e-01,9.99999e-01
5.531641237e-01,1.89948e-01,9.99999e-01,9.99999e-01,1.89948e-01,9.99999e-01
5.559299443e-01,1.96283e-01,9.99999e-01,9.99999e-01,1.96283e-01,9.99999e-01
5.587095940e-01,2.02699e-01,9.99999e-01,9.99999e-01,2.02699e-01,9.99999e-01
5.615031420e-01,2.09191e-01,9.99999e-01,9.99999e-01,2.09191e-01,9.99999e-01
5.643106577e-01,2.15756e-01,9.99999e-01,9.99999e-01,2.15756e-01,9.99999e-01
5.671322110e-01,2.22392e-01,9.99999e-01,9.99999e-01,2.22392e-01,9.99999e-01
5.699678720e-01,2.29095e-01,9.99999e-01,9.99999e-01,2.29095e-01,9.99999e-01
5.728177114e-01,2.35861e-01,9.99999e-01,9.99999e-01,2.35861e-01,9.99999e-01
5.756818000e-01,2.42688e-01,9.99999e-01,9.99999e-01,2.42688e-01,9.99999e-01
5.785602090e-01,2.49571e-01,9.99999e-01,9.99999e-01,2.49571e-01,9.99999e-01
5.814530100e-01,2.56509e-01,9.99999e-01,9.99999e-01,2.56509e-01,9.99999e-01
5.843602750e-01,2.63496e-01,9.99999e-01,9.99999e-01,2.63496e-01,9.99999e-01
5.872820764e-01,2.70529e-01,9.99999e-01,9.99999e-01,2.70529e-01,9.99999e-01
5.902184868e-01,2.77607e-01,9.99999e-01,9.99999e-01,2.77607e-01,9.99999e-01
5.931695792e-01,2.84724e-01,9.99999e-01,9.99999e-01,2.84724e-01,9.99999e-01
5.961354271e-01,2.91877e-01,9.99999e-01,9.99999e-01,2.91877e-01,9.99999e-01
5.991161043e-01,2.99064e-01,9.99999e-01,9.99999e-01,2.99064e-01,9.99999e-01
6.021116848e-01,3.06280e-01,9.99999e-01,9.99999e-01,3.06280e-01,9.99999e-01
6.051222432e-01,3.13523e-01,9.99999e-01,9.99999e-01,3.13523e-01,9.99999e-01
6.081478544e-01,3.20789e-01,9.99999e-01,9.99999e-01,3.20789e-01,9.99999e-01
6.111885937e-01,3.28074e-01,9.99999e-01,9.99999e-01,3.28074e-01,9.99999e-01
6.142445367e-01,3.35377e-01,9.99999e-01,9.99999e-01,3.35377e-01,9.99999e-01
6.173157594e-01,3.42693e-01,9.99999e-01,9.99999e-01,3.42693e-01,9.99999e-01
6.204023382e-01,3.50019e-01,9.99999e-01,9.99999e-01,3.50019e-01,9.99999e-01
6.235043498e-01,3.57353e-01,9.99999e-01,9.99999e-01,3.57353e-01,9.99999e-01
6.266218716e-01,3.64690e-01,9.99999e-01,9.99999e-01,3.64690e-01,9.99999e-01
6.297549810e-01,3.72030e-01,9.99999e-01,9.99999e-01,3.72030e-01,9.99999e-01
6.329037559e-01,3.79367e-01,9.99999e-01,9.99999e-01,3.79367e-01,9.99999e-01
6.360682746e-01,3.86700e-01,9.99999e-01,9.99999e-01,3.86700e-01,9.99999e-01
6.392486160e-01,3.94026e-01,9.99999e-01,9.99999e-01,3.94026e-01,9.99999e-01
6.424448591e-01,4.01341e-01,9.99999e-01,9.99999e-01,4.01341e-01,9.99999e-01
6.456570834e-01,4.08644e-01,9.99999e-01,9.99999e-01,4.08644e-01,9.99999e-01
6.488853688e-01,4.15932e-01,9.99999e-01,9.99999e-01,4.15932e-01,9.99999e-01
6.521297956e-01,4.23202e-01,9.99999e-01,9.99999e-01,4.23202e-01,9.99999e-01
6.553904446e-01,4.30452e-01,9.99999e-01,9.99999e-01,4.30452e-01,9.99999e-01
6.586673968e-01,4.37678e-01,9.99999e-01,9.99999e-01,4.37678e-01,9.99999e-01
6.619607338e-01,4.44880e-01,9.99999e-01,9.99999e-01,4.44880e-01,9.99999e-01
6.652705375e-01,4.52055e-01,9.99999e-01,9.99999e-01,4.52055e-01,9.99999e-01
6.685968902e-01,4.59200e-01,9.99999e-01,9.99999e-01,4.59200e-01,9.99999e-01
6.719398746e-01,4.66314e-01,9.99999e-01,9.99999e-01,4.66314e-01,9.99999e-01
6.752995740e-01,4.73394e-01,9.99999e-01,9.99999e-01,4.73394e-01,9.99999e-01
6.786760719e-01,4.80439e-01,9.99999e-01,9.99999e-01,4.80439e-01,9.99999e-01
6.820694522e-01,4.87446e-01,9.99999e-01,9.99999e-01,4.87446e-01,9.99999e-01
6.854797995e-01,4.94414e-01,9.99999e-01,9.99999e-01,4.94414e-01,9.99999e-01
6.889071985e-01,5.01341e-01,9.99999e-01,9.99999e-01,5.01341e-01,9.99999e-01
6.923517345e-01,5.08225e-01,9.99999e-01,9.99999e-01,5.08225e-01,9.99999e-01
6.958134932e-01,5.15065e-01,9.99999e-01,9.99999e-01,5.15065e-01,9.99999e-01
6.992925606e-01,5.21860e-01,9.99999e-01,9.99999e-01,5.21860e-01,9.99999e-01
7.027890234e-01,5.28607e-01,9.99999e-01,9.99999e-01,5.28607e-01,9.99999e-01
7.063029686e-01,5.35305e-01,9.99999e-01,9.99999e-01,5.35305e-01,9.99999e-01
7.098344834e-01,5.41954e-01,9.99999e-01,9.99999e-01,5.41954e-01,9.99999e-01
7.133836558e-01,5.48551e-01,9.99999e-01,9.99999e-01,5.48551e-01,9.99999e-01
7.169505741e-01,5.55096e-01,9.99999e-01,9.99999e-01,5.55096e-01,9.99999e-01
7.205353270e-01,5.61588e-01,9.99999e-01,9.99999e-01,5.61588e-01,9.99999e-01
7.241380036e-01,5.68025e-01,9.99999e-01,9.99999e-01,5.68025e-01,9.99999e-01
7.277586936e-01,5.74406e-01,9.99999e-01,9.99999e-01,5.74406e-01,9.99999e-01
7.313974871e-01,5.80731e-01,9.99999e-01,9.99999e-01,5.80731e-01,9.99999e-01
7.350544745e-01,5.86999e-01,9.99999e-01,9.99999e-01,5.86999e-01,9.99999e-01
7.387297469e-01,5.93208e-01,9.99999e-01,9.99999e-01,5.93208e-01,9.99999e-01
7.424233956e-01,5.99359e-01,9.99999e-01,9.99999e-01,5.99359e-01,9.99999e-01
7.461355126e-01,6.05450e-01,9.99999e-01,9.99999e-01,6.05450e-01,9.99999e-01
7.498661902e-01,6.11480e-01,9.99999e-01,9.99999e-01,6.11480e-01,9.99999e-01
7.536155211e-01,6.17450e-01,9.99999e-01,9.99999e-01,6.17450e-01,9.99999e-01
7.573835987e-01,6.23359e-01,9.99999e-01,9.99999e-01,6.23359e-01,9.99999e-01
7.611705167e-01,6.29206e-01,9.99999e-01,9.99999e-01,6.29206e-01,9.99999e-01
7.649763693e-01,6.34990e-01,9.99999e-01,9.99999e-01,6.34990e-01,9.99999e-01
7.688012511e-01,6.40712e-01,9.99999e-01,9.99999e-01,6.40712e-01,9.99999e-01
7.726452574e-01,6.46371e-01,9.99999e-01,9.99999e-01,6.46371e-01,9.99999e-01
7.765084837e-01,6.51966e-01,9.99999e-01,9.99999e-01,6.51966e-01,9.99999e-01
7.803910261e-01,6.43171e-01,9.99999e-01,9.78208e-01,6.57498e-01,9.99999e-01
7.842929812e-01,6.06415e-01,9.99999e-01,9.14698e-01,6.62967e-01,9.99999e-01
7.882144461e-01,6.06821e-01,9.99999e-01,9.07910e-01,6.68371e-01,9.99999e-01
7.921555184e-01,6.37225e-01,9.99999e-01,9.45842e-01,6.73711e-01,9.99999e-01
7.961162960e-01,6.54450e-01,9.99999e-01,9.63860e-01,6.78988e-01,9.99999e-01
8.000968774e-01,6.70654e-01,9.99999e-01,9.80201e-01,6.84200e-01,9.99999e-01
8.040973618e-01,6.82283e-01,9.99999e-01,9.89750e-01,6.89348e-01,9.99999e-01
8.081178486e-01,6.91141e-01,9.99999e-01,9.95260e-01,6.94432e-01,9.99999e-01
8.121584379e-01,6.98441e-01,9.99999e-01,9.98553e-01,6.99452e-01,9.99999e-01
8.162192301e-01,7.04183e-01,9.99999e-01,9.99679e-01,7.04408e-01,9.99999e-01
8.203003262e-01,7.09298e-01,9.99999e-01,9.99995e-01,7.09301e-01,9.99999e-01
8.244018279e-01,7.14129e-01,9.99999e-01,9.99999e-01,7.14129e-01,9.99999e-01
8.285238370e-01,7.18894e-01,9.99999e-01,9.99999e-01,7.18894e-01,9.99999e-01
8.326664562e-01,7.23596e-01,9.99999e-01,9.99999e-01,7.23596e-01,9.99999e-01
8.368297885e-01,7.28235e-01,9.99999e-01,9.99999e-01,7.28235e-01,9.99999e-01
8.410139374e-01,7.32811e-01,9.99999e-01,9.99999e-01,7.32811e-01,9.99999e-01
8.452190071e-01,7.37325e-01,9.99999e-01,9.99999e-01,7.37325e-01,9.99999e-01
8.494451021e-01,7.41776e-01,9.99999e-01,9.99999e-01,7.41776e-01,9.99999e-01
8.536923276e-01,7.46166e-01,9.99999e-01,9.99999e-01,7.46166e-01,9.99999e-01
8.579607893e-01,7.50494e-01,9.99999e-01,9.99999e-01,7.50494e-01,9.99999e-01
8.622505932e-01,7.54761e-01,9.99999e-01,9.99999e-01,7.54761e-01,9.99999e-01
8.665618462e-01,7.17253e-01,9.99999e-01,9.45037e-01,7.58967e-01,9.99999e-01
8.708946554e-01,6.05903e-01,9.99999e-01,7.93988e-01,7.63113e-01,9.99999e-01
8.752491287e-01,6.38855e-01,9.99999e-01,8.32710e-01,7.67199e-01,9.99999e-01
8.796253743e-01,6.98120e-01,9.99999e-01,9.05208e-01,7.71225e-01,9.99999e-01
8.840235012e-01,7.36332e-01,9.99999e-01,9.49869e-01,7.75193e-01,9.99999e-01
8.884436187e-01,7.63567e-01,9.99999e-01,9.80060e-01,7.79102e-01,9.99999e-01
8.928858368e-01,7.76584e-01,9.99999e-01,9.91865e-01,7.82952e-01,9.99999e-01
8.973502660e-01,7.85198e-01,9.99999e-01,9.98032e-01,7.86746e-01,9.99999e-01
9.018370173e-01,7.90311e-01,9.99999e-01,9.99783e-01,7.90482e-01,9.99999e-01
9.063462024e-01,7.89549e-01,9.99999e-01,9.94191e-01,7.94161e-01,9.99999e-01
9.108779334e-01,7.87530e-01,9.99999e-01,9.87145e-01,7.97785e-01,9.99999e-01
9.154323231e-01,7.98958e-01,9.99999e-01,9.97011e-01,8.01353e-01,9.99999e-01
9.200094847e-01,7.68369e-01,9.99999e-01,9.54653e-01,8.04866e-01,9.99999e-01
9.246095321e-01,7.58591e-01,9.99999e-01,9.38473e-01,8.08324e-01,9.99999e-01
9.292325798e-01,7.71637e-01,9.99999e-01,9.50608e-01,8.11729e-01,9.99999e-01
9.338787427e-01,7.76735e-01,9.99999e-01,9.52954e-01,8.15080e-01,9.99999e-01
9.385481364e-01,7.89938e-01,9.99999e-01,9.65246e-01,8.18379e-01,9.99999e-01
9.432408771e-01,8.04100e-01,9.99999e-01,9.78669e-01,8.21625e-01,9.99999e-01
9.479570815e-01,8.15728e-01,9.99999e-01,9.88976e-01,8.24820e-01,9.99999e-01
9.526968669e-01,8.23563e-01,9.99999e-01,9.94683e-01,8.27964e-01,9.99999e-01
9.574603512e-01,8.29168e-01,9.99999e-01,9.97726e-01,8.31057e-01,9.99999e-01
9.622476530e-01,8.33510e-01,9.99999e-01,9.99291e-01,8.34100e-01,9.99999e-01
9.670588912e-01,8.36917e-01,9.99999e-01,9.99787e-01,8.37094e-01,9.99999e-01
9.718941857e-01,8.40027e-01,9.99999e-01,9.99985e-01,8.40040e-01,9.99999e-01
9.767536566e-01,8.42937e-01,9.99999e-01,9.99999e-01,8.42937e-01,9.99999e-01
9.816374249e-01,8.45786e-01,9.99999e-01,9.99999e-01,8.45786e-01,9.99999e-01
9.865456120e-01,8.48589e-01,9.99999e-01,9.99999e-01,8.48589e-01,9.99999e-01
9.914783401e-01,8.51346e-01,9.99999e-01,9.99999e-01,8.51346e-01,9.99999e-01
9.964357318e-01,8.54056e-01,9.99999e-01,9.99999e-01,8.54056e-01,9.99999e-01
1.001417910e+00,8.56722e-01,9.99999e-01,9.99999e-01,8.56722e-01,9.99999e-01
1.006425000e+00,8.59343e-01,9.99999e-01,9.99999e-01,8.59343e-01,9.99999e-01
1.011457125e+00,8.61919e-01,9.99999e-01,9.99999e-01,8.61919e-01,9.99999e-01
1.016514411e+00,8.64453e-01,9.99999e-01,9.99999e-01,8.64453e-01,9.99999e-01
1.021596983e+00,8.66913e-01,9.99999e-01,9.99964e-01,8.66944e-01,9.99999e-01
1.026704968e+00,8.67416e-01,9.99999e-01,9.97726e-01,8.69392e-01,9.99999e-01
1.031838492e+00,8.42220e-01,9.99999e-01,9.66070e-01,8.71799e-01,9.99999e-01
1.036997685e+00,2.12347e-01,9.99999e-01,2.42914e-01,8.74165e-01,9.99999e-01
1.042182673e+00,2.42475e-01,9.99999e-01,2.76643e-01,8.76490e-01,9.99999e-01
1.047393587e+00,2.31721e-01,9.99999e-01,2.63686e-01,8.78775e-01,9.99999e-01
1.052630555e+00,2.46000e-02,9.99999e-01,2.79221e-02,8.81021e-01,9.99999e-01
1.057893707e+00,5.04672e-02,9.99999e-01,5.71394e-02,8.83228e-01,9.99999e-01
1.063183176e+00,1.09987e-01,9.99999e-01,1.24223e-01,8.85397e-01,9.99999e-01
1.068499092e+00,2.16480e-01,9.99999e-01,2.43913e-01,8.87529e-01,9.99999e-01
1.073841587e+00,3.66889e-01,9.99999e-01,4.12409e-01,8.89623e-01,9.99999e-01
1.079210795e+00,5.09442e-01,9.99999e-01,5.71328e-01,8.91680e-01,9.99999e-01
1.084606849e+00,6.58516e-01,9.99999e-01,7.36840e-01,8.93702e-01,9.99999e-01
1.090029883e+00,7.64454e-01,9.99999e-01,8.53482e-01,8.95688e-01,9.99999e-01
1.095480033e+00,8.30418e-01,9.99999e-01,9.25112e-01,8.97639e-01,9.99999e-01
1.100957433e+00,8.66459e-01,9.99999e-01,9.63207e-01,8.99556e-01,9.99999e-01
1.106462220e+00,8.87608e-01,9.99999e-01,9.84656e-01,9.01439e-01,9.99999e-01
1.111994531e+00,8.98127e-01,9.99999e-01,9.94286e-01,9.03288e-01,9.99999e-01
1.117554504e+00,9.03848e-01,9.99999e-01,9.98611e-01,9.05105e-01,9.99999e-01
1.123142276e+00,9.06807e-01,9.99999e-01,9.99909e-01,9.06889e-01,9.99999e-01
1.128757988e+00,9.08641e-01,9.99999e-01,9.99999e-01,9.08641e-01,9.99999e-01
1.134401778e+00,9.10362e-01,9.99999e-01,9.99999e-01,9.10362e-01,9.99999e-01
1.140073787e+00,9.12053e-01,9.99999e-01,9.99999e-01,9.12053e-01,9.99999e-01
1.145774156e+00,9.13713e-01,9.99999e-01,9.99999e-01,9.13713e-01,9.99999e-01
1.151503026e+00,9.15343e-01,9.99999e-01,9.99999e-01,9.15343e-01,9.99999e-01
1.157260541e+00,9.16943e-01,9.99999e-01,9.99999e-01,9.16943e-01,9.99999e-01
1.163046844e+00,9.18515e-01,9.99999e-01,9.99999e-01,9.18515e-01,9.99999e-01
1.168862078e+00,9.20059e-01,9.99999e-01,9.99999e-01,9.20059e-01,9.99999e-01
1.174706389e+00,9.21574e-01,9.99999e-01,9.99999e-01,9.21574e-01,9.99999e-01
1.180579921e+00,9.23062e-01,9.99999e-01,9.99999e-01,9.23062e-01,9.99999e-01
1.186482820e+00,9.24518e-01,9.99999e-01,9.99993e-01,9.24523e-01,9.99999e-01
1.192415234e+00,9.18363e-01,9.99999e-01,9.91798e-01,9.25957e-01,9.99999e-01
1.198377311e+00,5.33975e-01,9.99999e-01,5.75798e-01,9.27365e-01,9.99999e-01
1.204369197e+00,1.61399e-07,9.99999e-01,1.73781e-07,9.28747e-01,9.99999e-01
1.210391043e+00,6.89849e-25,9.99999e-01,7.41689e-25,9.30104e-01,9.99999e-01
1.216442998e+00,8.82662e-22,9.99999e-01,9.47634e-22,9.31436e-01,9.99999e-01
1.222525213e+00,1.79084e-21,9.99999e-01,1.91996e-21,9.32744e-01,9.99999e-01
1.228637839e+00,1.43972e-16,9.99999e-01,1.54141e-16,9.34028e-01,9.99999e-01
1.234781029e+00,2.99930e-11,9.99999e-01,3.20681e-11,9.35288e-01,9.99999e-01
1.240954934e+00,1.30542e-07,9.99999e-01,1.39390e-07,9.36524e-01,9.99999e-01
1.247159708e+00,1.39677e-04,9.99999e-01,1.48950e-04,9.37738e-01,9.99999e-01
1.253395507e+00,6.81647e-03,9.99999e-01,7.25982e-03,9.38930e-01,9.99999e-01
1.259662485e+00,5.68991e-02,9.99999e-01,6.05245e-02,9.40099e-01,9.99999e-01
1.265960797e+00,1.85831e-01,9.99999e-01,1.97430e-01,9.41247e-01,9.99999e-01
1.272290601e+00,4.81935e-01,9.99999e-01,5.11405e-01,9.42373e-01,9.99999e-01
1.278652054e+00,4.17225e-01,9.99999e-01,4.42219e-01,9.43479e-01,9.99999e-01
1.285045314e+00,1.85232e-02,9.99999e-01,1.96103e-02,9.44564e-01,9.99999e-01
1.291470541e+00,1.29111e-03,9.99999e-01,1.36534e-03,9.45628e-01,9.99999e-01
1.297927893e+00,4.27698e-02,9.99999e-01,4.51790e-02,9.46673e-01,9.99999e-01
1.304417533e+00,2.79972e-01,9.99999e-01,2.95423e-01,9.47698e-01,9.99999e-01
1.310939621e+00,4.99714e-02,9.99999e-01,5.26732e-02,9.48704e-01,9.99999e-01
1.317494319e+00,4.83347e-09,9.99999e-01,5.08951e-09,9.49692e-01,9.99999e-01
1.324081790e+00,1.93973e-05,9.99999e-01,2.04040e-05,9.50660e-01,9.99999e-01
1.330702199e+00,7.22811e-04,9.99999e-01,7.59565e-04,9.51611e-01,9.99999e-01
1.337355710e+00,8.72284e-04,9.99999e-01,9.15741e-04,9.52544e-01,9.99999e-01
1.344042489e+00,1.00819e-04,9.99999e-01,1.05740e-04,9.53459e-01,9.99999e-01
1.350762701e+00,5.37381e-04,9.99999e-01,5.63082e-04,9.54357e-01,9.99999e-01
1.357516515e+00,7.21706e-03,9.99999e-01,7.55524e-03,9.55238e-01,9.99999e-01
1.364304097e+00,4.39986e-02,9.99999e-01,4.60186e-02,9.56102e-01,9.99999e-01
1.371125618e+00,1.89736e-01,9.99999e-01,1.98272e-01,9.56951e-01,9.99999e-01
1.377981246e+00,2.59753e-01,9.99999e-01,2.71202e-01,9.57783e-01,9.99999e-01
1.384871152e+00,4.48924e-01,9.99999e-01,4.68312e-01,9.58599e-01,9.99999e-01
1.391795508e+00,4.76243e-01,9.99999e-01,4.96396e-01,9.59400e-01,9.99999e-01
1.398754485e+00,6.23991e-01,9.99999e-01,6.49864e-01,9.60186e-01,9.99999e-01
1.405748258e+00,6.99555e-01,9.99999e-01,7.27977e-01,9.60957e-01,9.99999e-01
1.412776999e+00,7.87321e-01,9.99999e-01,8.18664e-01,9.61713e-01,9.99999e-01
1.419840884e+00,7.18705e-01,9.99999e-01,7.46741e-01,9.62455e-01,9.99999e-01
1.426940089e+00,8.82580e-02,9.99999e-01,9.16316e-02,9.63182e-01,9.99999e-01
1.434074789e+00,0.00000e+00,9.99999e-01,0.00000e+00,9.63896e-01,9.99999e-01
1.441245163e+00,0.00000e+00,9.99999e-01,0.00000e+00,9.64597e-01,9.99999e-01
1.448451389e+00,0.00000e+00,9.99999e-01,0.00000e+00,9.65284e-01,9.99999e-01
1.455693646e+00,2.65702e-193,9.99999e-01,2.75066e-193,9.65958e-01,9.99999e-01
1.462972114e+00,3.86530e-94,9.99999e-01,3.99878e-94,9.66619e-01,9.99999e-01
1.470286975e+00,4.65367e-40,9.99999e-01,4.81114e-40,9.67267e-01,9.99999e-01
