#,Wave/freq,Total,O2,CO2,Rayleigh,CIA
4.000000000e-01,1.82083e-05,9.99999e-01,9.99999e-01,1.82083e-05,9.99999e-01
4.020000000e-01,2.25937e-05,9.99999e-01,9.99999e-01,2.25937e-05,9.99999e-01
4.040100000e-01,2.79099e-05,9.99999e-01,9.99999e-01,2.79099e-05,9.99999e-01
4.060300500e-01,3.43333e-05,9.99999e-01,9.99999e-01,3.43333e-05,9.99999e-01
4.080602003e-01,4.20626e-05,9.99999e-01,9.99999e-01,4.20626e-05,9.99999e-01
4.101005013e-01,5.13257e-05,9.99999e-01,9.99999e-01,5.13257e-05,9.99999e-01
4.121510038e-01,6.23830e-05,9.99999e-01,9.99999e-01,6.23830e-05,9.99999e-01
4.142117588e-01,7.55308e-05,9.99999e-01,9.99999e-01,7.55308e-05,9.99999e-01
4.162828176e-01,9.11048e-05,9.99999e-01,9.99999e-01,9.11048e-05,9.99999e-01
4.183642317e-01,1.09484e-04,9.99999e-01,9.99999e-01,1.09484e-04,9.99999e-01
4.204560528e-01,1.31094e-04,9.99999e-01,9.99999e-01,1.31094e-04,9.99999e-01
4.225583331e-01,1.56412e-04,9.99999e-01,9.99999e-01,1.56412e-04,9.99999e-01
4.246711247e-01,1.85970e-04,9.99999e-01,9.99999e-01,1.85970e-04,9.99999e-01
4.267944804e-01,2.20359e-04,9.99999e-01,9.99999e-01,2.20359e-04,9.99999e-01
4.289284528e-01,2.60233e-04,9.99999e-01,9.99999e-01,2.60233e-04,9.99999e-01
4.310730950e-01,3.06315e-04,9.99999e-01,9.99999e-01,3.06315e-04,9.99999e-01
4.332284605e-01,3.59398e-04,9.99999e-01,9.99999e-01,3.59398e-04,9.99999e-01
4.353946028e-01,4.20350e-04,9.99999e-01,9.99999e-01,4.20350e-04,9.99999e-01
4.375715758e-01,4.90121e-04,9.99999e-01,9.99999e-01,4.90121e-04,9.99999e-01
4.397594337e-01,5.69742e-04,9.99999e-01,9.99999e-01,5.69742e-04,9.99999e-01
4.419582309e-01,6.60331e-04,9.99999e-01,9.99999e-01,6.60331e-04,9.99999e-01
4.441680220e-01,7.63096e-04,9.99999e-01,9.99999e-01,7.63096e-04,9.99999e-01
4.463888621e-01,8.79338e-04,9.99999e-01,9.99999e-01,8.79338e-04,9.99999e-01
4.486208064e-01,1.01045e-03,9.99999e-01,9.99999e-01,1.01045e-03,9.99999e-01
4.508639105e-01,1.15794e-03,9.99999e-01,9.99999e-01,1.15794e-03,9.99999e-01
4.531182300e-01,1.32338e-03,9.99999e-01,9.99999e-01,1.32338e-03,9.99999e-01
4.553838212e-01,1.50847e-03,9.99999e-01,9.99999e-01,1.50847e-03,9.99999e-01
4.576607403e-01,1.71502e-03,9.99999e-01,9.99999e-01,1.71502e-03,9.99999e-01
4.599490440e-01,1.94491e-03,9.99999e-01,9.99999e-01,1.94491e-03,9.99999e-01
4.622487892e-01,2.20014e-03,9.99999e-01,9.99999e-01,2.20014e-03,9.99999e-01
4.645600332e-01,2.48281e-03,9.99999e-01,9.99999e-01,2.48281e-03,9.99999e-01
4.668828333e-01,2.79511e-03,9.99999e-01,9.99999e-01,2.79511e-03,9.99999e-01
4.692172475e-01,3.13935e-03,9.99999e-01,9.99999e-01,3.13935e-03,9.99999e-01
4.715633337e-01,3.51789e-03,9.99999e-01,9.99999e-01,3.51789e-03,9.99999e-01
4.739211504e-01,3.93323e-03,9.99999e-01,9.99999e-01,3.93323e-03,9.99999e-01
4.762907561e-01,4.38793e-03,9.99999e-01,9.99999e-01,4.38793e-03,9.99999e-01
4.786722099e-01,4.88462e-03,9.99999e-01,9.99999e-01,4.88462e-03,9.99999e-01
4.810655710e-01,5.42603e-03,9.99999e-01,9.99999e-01,5.42603e-03,9.99999e-01
4.834708988e-01,6.01494e-03,9.99999e-01,9.99999e-01,6.01494e-03,9.99999e-01
4.858882533e-01,6.65422e-03,9.99999e-01,9.99999e-01,6.65422e-03,9.99999e-01
4.883176946e-01,7.34677e-03,9.99999e-01,9.99999e-01,7.34677e-03,9.99999e-01
4.907592831e-01,8.09555e-03,9.99999e-01,9.99999e-01,8.09555e-03,9.99999e-01
4.932130795e-01,8.90356e-03,9.99999e-01,9.99999e-01,8.90356e-03,9.99999e-01
4.956791449e-01,9.77383e-03,9.99999e-01,9.99999e-01,9.77383e-03,9.99999e-01
4.981575406e-01,1.07094e-02,9.99999e-01,9.99999e-01,1.07094e-02,9.99999e-01
5.006483283e-01,1.17134e-02,9.99999e-01,9.99999e-01,1.17134e-02,9.99999e-01
5.031515699e-01,1.27888e-02,9.99999e-01,9.99999e-01,1.27888e-02,9.99999e-01
5.056673278e-01,1.39388e-02,9.99999e-01,9.99999e-01,1.39388e-02,9.99999e-01
5.081956644e-01,1.51664e-02,9.99999e-01,9.99999e-01,1.51664e-02,9.99999e-01
5.107366428e-01,1.64746e-02,9.99999e-01,9.99999e-01,1.64746e-02,9.99999e-01
5.132903260e-01,1.78664e-02,9.99999e-01,9.99999e-01,1.78664e-02,9.99999e-01
5.158567776e-01,1.93448e-02,9.99999e-01,9.99999e-01,1.93448e-02,9.99999e-01
5.184360615e-01,2.09126e-02,9.99999e-01,9.99999e-01,2.09126e-02,9.99999e-01
5.210282418e-01,2.25727e-02,9.99999e-01,9.99999e-01,2.25727e-02,9.99999e-01
5.236333830e-01,2.43279e-02,9.99999e-01,9.99999e-01,2.43279e-02,9.99999e-01
5.262515499e-01,2.61808e-02,9.99999e-01,9.99999e-01,2.61808e-02,9.99999e-01
5.288828077e-01,2.81340e-02,9.99999e-01,9.99999e-01,2.81340e-02,9.99999e-01
5.315272217e-01,3.01900e-02,9.99999e-01,9.99999e-01,3.01900e-02,9.99999e-01
5.341848578e-01,3.23512e-02,9.99999e-01,9.99999e-01,3.23512e-02,9.99999e-01
5.368557821e-01,3.46197e-02,9.99999e-01,9.99999e-01,3.46197e-02,9.99999e-01
5.395400610e-01,3.69977e-02,9.99999e-01,9.99999e-01,3.69977e-02,9.99999e-01
5.422377613e-01,3.94873e-02,9.99999e-01,9.99999e-01,3.94873e-02,9.99999e-01
5.449489501e-01,4.20902e-02,9.99999e-01,9.99999e-01,4.20902e-02,9.99999e-01
5.476736949e-01,4.48081e-02,9.99999e-01,9.99999e-01,4.48081e-02,9.99999e-01
5.504120634e-01,4.76426e-02,9.99999e-01,9.99999e-01,4.76426e-02,9.99999e-01
5.531641237e-01,5.05951e-02,9.99999e-01,9.99999e-01,5.05951e-02,9.99999e-01
5.559299443e-01,5.36668e-02,9.99999e-01,9.99999e-01,5.36668e-02,9.99999e-01
5.587095940e-01,5.68587e-02,9.99999e-01,9.99999e-01,5.68587e-02,9.99999e-01
5.615031420e-01,6.01718e-02,9.99999e-01,9.99999e-01,6.01718e-02,9.99999e-01
5.643106577e-01,6.36067e-02,9.99999e-01,9.99999e-01,6.36067e-02,9.99999e-01
5.671322110e-01,6.71640e-02,9.99999e-01,9.99999e-01,6.71640e-02,9.99999e-01
5.699678720e-01,7.08441e-02,9.99999e-01,9.99999e-01,7.08441e-02,9.99999e-01
5.728177114e-01,7.46471e-02,9.99999e-01,9.99999e-01,7.46471e-02,9.99999e-01
5.756818000e-01,7.85730e-02,9.99999e-01,9.99999e-01,7.85730e-02,9.99999e-01
5.785602090e-01,8.26218e-02,9.99999e-01,9.99999e-01,8.26218e-02,9.99999e-01
5.814530100e-01,8.67930e-02,9.99999e-01,9.99999e-01,8.67930e-02,9.99999e-01
5.843602750e-01,9.10861e-02,9.99999e-01,9.99999e-01,9.10861e-02,9.99999e-01
5.872820764e-01,9.55005e-02,9.99999e-01,9.99999e-01,9.55005e-02,9.99999e-01
5.902184868e-01,1.00035e-01,9.99999e-01,9.99999e-01,1.00035e-01,9.99999e-01
5.931695792e-01,1.04689e-01,9.99999e-01,9.99999e-01,1.04689e-01,9.99999e-01
5.961354271e-01,1.09462e-01,9.99999e-01,9.99999e-01,1.09462e-01,9.99999e-01
5.991161043e-01,1.14351e-01,9.99999e-01,9.99999e-01,1.14351e-01,9.99999e-01
6.021116848e-01,1.19355e-01,9.99999e-01,9.99999e-01,1.19355e-01,9.99999e-01
6.051222432e-01,1.24473e-01,9.99999e-01,9.99999e-01,1.24473e-01,9.99999e-01
6.081478544e-01,1.29703e-01,9.99999e-01,9.99999e-01,1.29703e-01,9.99999e-01
6.111885937e-01,1.35043e-01,9.99999e-01,9.99999e-01,1.35043e-01,9.99999e-01
6.142445367e-01,1.40490e-01,9.99999e-01,9.99999e-01,1.40490e-01,9.99999e-01
6.173157594e-01,1.46044e-01,9.99999e-01,9.99999e-01,1.46044e-01,9.99999e-01
6.204023382e-01,1.51700e-01,9.99999e-01,9.99999e-01,1.51700e-01,9.99999e-01
6.235043498e-01,1.57458e-01,9.99999e-01,9.99999e-01,1.57458e-01,9.99999e-01
6.266218716e-01,1.63313e-01,9.99999e-01,9.99999e-01,1.63313e-01,9.99999e-01
6.297549810e-01,1.69265e-01,9.99999e-01,9.99999e-01,1.69265e-01,9.99999e-01
6.329037559e-01,1.75309e-01,9.99999e-01,9.99999e-01,1.75309e-01,9.99999e-01
6.360682746e-01,1.81443e-01,9.99999e-01,9.99999e-01,1.81443e-01,9.99999e-01
6.392486160e-01,1.87665e-01,9.99999e-01,9.99999e-01,1.87665e-01,9.99999e-01
6.424448591e-01,1.93970e-01,9.99999e-01,9.99999e-01,1.93970e-01,9.99999e-01
6.456570834e-01,2.00357e-01,9.99999e-01,9.99999e-01,2.00357e-01,9.99999e-01
6.488853688e-01,2.06821e-01,9.99999e-01,9.99999e-01,2.06821e-01,9.99999e-01
6.521297956e-01,2.13361e-01,9.99999e-01,9.99999e-01,2.13361e-01,9.99999e-01
6.553904446e-01,2.19971e-01,9.99999e-01,9.99999e-01,2.19971e-01,9.99999e-01
6.586673968e-01,2.26650e-01,9.99999e-01,9.99999e-01,2.26650e-01,9.99999e-01
6.619607338e-01,2.33394e-01,9.99999e-01,9.99999e-01,2.33394e-01,9.99999e-01
6.652705375e-01,2.40199e-01,9.99999e-01,9.99999e-01,2.40199e-01,9.99999e-01
6.685968902e-01,2.47062e-01,9.99999e-01,9.99999e-01,2.47062e-01,9.99999e-01
6.719398746e-01,2.53980e-01,9.99999e-01,9.99999e-01,2.53980e-01,9.99999e-01
6.752995740e-01,2.60949e-01,9.99999e-01,9.99999e-01,2.60949e-01,9.99999e-01
6.786760719e-01,2.67967e-01,9.99999e-01,9.99999e-01,2.67967e-01,9.99999e-01
6.820694522e-01,2.75028e-01,9.99999e-01,9.99999e-01,2.75028e-01,9.99999e-01
6.854797995e-01,2.82131e-01,9.99999e-01,9.99999e-01,2.82131e-01,9.99999e-01
6.889071985e-01,2.89272e-01,9.99999e-01,9.99999e-01,2.89272e-01,9.99999e-01
6.923517345e-01,2.96447e-01,9.99999e-01,9.99999e-01,2.96447e-01,9.99999e-01
6.958134932e-01,3.03653e-01,9.99999e-01,9.99999e-01,3.03653e-01,9.99999e-01
6.992925606e-01,3.10886e-01,9.99999e-01,9.99999e-01,3.10886e-01,9.99999e-01
7.027890234e-01,3.18144e-01,9.99999e-01,9.99999e-01,3.18144e-01,9.99999e-01
7.063029686e-01,3.25423e-01,9.99999e-01,9.99999e-01,3.25423e-01,9.99999e-01
7.098344834e-01,3.32720e-01,9.99999e-01,9.99999e-01,3.32720e-01,9.99999e-01
7.133836558e-01,3.40031e-01,9.99999e-01,9.99999e-01,3.40031e-01,9.99999e-01
7.169505741e-01,3.47354e-01,9.99999e-01,9.99999e-01,3.47354e-01,9.99999e-01
7.205353270e-01,3.54685e-01,9.99999e-01,9.99999e-01,3.54685e-01,9.99999e-01
7.241380036e-01,3.62022e-01,9.99999e-01,9.99999e-01,3.62022e-01,9.99999e-01
7.277586936e-01,3.69361e-01,9.99999e-01,9.99999e-01,3.69361e-01,9.99999e-01
7.313974871e-01,3.76699e-01,9.99999e-01,9.99999e-01,3.76699e-01,9.99999e-01
7.350544745e-01,3.84034e-01,9.99999e-01,9.99999e-01,3.84034e-01,9.99999e-01
7.387297469e-01,3.91363e-01,9.99999e-01,9.99999e-01,3.91363e-01,9.99999e-01
7.424233956e-01,3.98683e-01,9.99999e-01,9.99999e-01,3.98683e-01,9.99999e-01
7.461355126e-01,4.05990e-01,9.99999e-01,9.99999e-01,4.05990e-01,9.99999e-01
7.498661902e-01,4.13284e-01,9.99999e-01,9.99999e-01,4.13284e-01,9.99999e-01
7.536155211e-01,4.20561e-01,9.99999e-01,9.99999e-01,4.20561e-01,9.99999e-01
7.573835987e-01,4.27818e-01,9.99999e-01,9.99999e-01,4.27818e-01,9.99999e-01
7.611705167e-01,4.35053e-01,9.99999e-01,9.99999e-01,4.35053e-01,9.99999e-01
7.649763693e-01,4.42265e-01,9.99999e-01,9.99999e-01,4.42265e-01,9.99999e-01
7.688012511e-01,4.49449e-01,9.99999e-01,9.99999e-01,4.49449e-01,9.99999e-01
7.726452574e-01,4.56606e-01,9.99999e-01,9.99999e-01,4.56606e-01,9.99999e-01
7.765084837e-01,4.63731e-01,9.99999e-01,9.99999e-01,4.63731e-01,9.99999e-01
7.803910261e-01,4.54521e-01,9.99999e-01,9.65374e-01,4.70824e-01,9.99999e-01
7.842929812e-01,4.07501e-01,9.99999e-01,8.52723e-01,4.77881e-01,9.99999e-01
7.882144461e-01,4.09081e-01,9.99999e-01,8.43635e-01,4.84902e-01,9.99999e-01
7.921555184e-01,4.45397e-01,9.99999e-01,9.05489e-01,4.91885e-01,9.99999e-01
7.961162960e-01,4.66634e-01,9.99999e-01,9.35461e-01,4.98827e-01,9.99999e-01
8.000968774e-01,4.87781e-01,9.99999e-01,9.64515e-01,5.05727e-01,9.99999e-01
8.040973618e-01,5.03062e-01,9.99999e-01,9.81424e-01,5.12583e-01,9.99999e-01
8.081178486e-01,5.14953e-01,9.99999e-01,9.91448e-01,5.19394e-01,9.99999e-01
8.121584379e-01,5.24760e-01,9.99999e-01,9.97340e-01,5.26159e-01,9.99999e-01
8.162192301e-01,5.32562e-01,9.99999e-01,9.99412e-01,5.32875e-01,9.99999e-01
8.203003262e-01,5.39537e-01,9.99999e-01,9.99990e-01,5.39542e-01,9.99999e-01
8.244018279e-01,5.46158e-01,9.99999e-01,9.99999e-01,5.46158e-01,9.99999e-01
8.285238370e-01,5.52722e-01,9.99999e-01,9.99999e-01,5.52722e-01,9.99999e-01
8.326664562e-01,5.59234e-01,9.99999e-01,9.99999e-01,5.59234e-01,9.99999e-01
8.368297885e-01,5.65690e-01,9.99999e-01,9.99999e-01,5.65690e-01,9.99999e-01
8.410139374e-01,5.72092e-01,9.99999e-01,9.99999e-01,5.72092e-01,9.99999e-01
8.452190071e-01,5.78438e-01,9.99999e-01,9.99999e-01,5.78438e-01,9.99999e-01
8.494451021e-01,5.84726e-01,9.99999e-01,9.99999e-01,5.84726e-01,9.99999e-01
8.536923276e-01,5.90957e-01,9.99999e-01,9.99999e-01,5.90957e-01,9.99999e-01
8.579607893e-01,5.97129e-01,9.99999e-01,9.99999e-01,5.97129e-01,9.99999e-01
8.622505932e-01,6.03242e-01,9.99999e-01,9.99999e-01,6.03242e-01,9.99999e-01
8.665618462e-01,5.63206e-01,9.99999e-01,9.24357e-01,6.09295e-01,9.99999e-01
8.708946554e-01,4.11096e-01,9.99999e-01,6.68136e-01,6.15287e-01,9.99999e-01
8.752491287e-01,4.48465e-01,9.99999e-01,7.21912e-01,6.21218e-01,9.99999e-01
8.796253743e-01,5.24173e-01,9.99999e-01,8.35885e-01,6.27087e-01,9.99999e-01
8.840235012e-01,5.76703e-01,9.99999e-01,9.11215e-01,6.32894e-01,9.99999e-01
8.884436187e-01,6.15621e-01,9.99999e-01,9.63958e-01,6.38639e-01,9.99999e-01
8.928858368e-01,6.34824e-01,9.99999e-01,9.85261e-01,6.44320e-01,9.99999e-01
8.973502660e-01,6.47593e-01,9.99999e-01,9.96390e-01,6.49939e-01,9.99999e-01
9.018370173e-01,6.55233e-01,9.99999e-01,9.99601e-01,6.55494e-01,9.99999e-01
9.063462024e-01,6.54356e-01,9.99999e-01,9.89970e-01,6.60986e-01,9.99999e-01
9.108779334e-01,6.50995e-01,9.99999e-01,9.76864e-01,6.66413e-01,9.99999e-01
9.154323231e-01,6.68081e-01,9.99999e-01,9.94498e-01,6.71777e-01,9.99999e-01
9.200094847e-01,6.25657e-01,9.99999e-01,9.24056e-01,6.77077e-01,9.99999e-01
9.246095321e-01,6.08489e-01,9.99999e-01,8.91804e-01,6.82312e-01,9.99999e-01
9.292325798e-01,6.28776e-01,9.99999e-01,9.14605e-01,6.87484e-01,9.99999e-01
9.338787427e-01,6.35063e-01,9.99999e-01,9.16938e-01,6.92591e-01,9.99999e-01
9.385481364e-01,6.54567e-01,9.99999e-01,9.38266e-01,6.97634e-01,9.99999e-01
9.432408771e-01,6.75694e-01,9.99999e-01,9.61686e-01,7.02614e-01,9.99999e-01
9.479570815e-01,6.93508e-01,9.99999e-01,9.80182e-01,7.07529e-01,9.99999e-01
9.526968669e-01,7.05534e-01,9.99999e-01,9.90388e-01,7.12381e-01,9.99999e-01
9.574603512e-01,7.14213e-01,9.99999e-01,9.95878e-01,7.17169e-01,9.99999e-01
9.622476530e-01,7.20964e-01,9.99999e-01,9.98712e-01,7.21894e-01,9.99999e-01
9.670588912e-01,7.26275e-01,9.99999e-01,9.99613e-01,7.26555e-01,9.99999e-01
9.718941857e-01,7.31134e-01,9.99999e-01,9.99972e-01,7.31154e-01,9.99999e-01
9.767536566e-01,7.35691e-01,9.99999e-01,9.99999e-01,7.35691e-01,9.99999e-01
9.816374249e-01,7.40165e-01,9.99999e-01,9.99999e-01,7.40165e-01,9.99999e-01
9.865456120e-01,7.44577e-01,9.99999e-01,9.99999e-01,7.44577e-01,9.99999e-01
9.914783401e-01,7.48927e-01,9.99999e-01,9.99999e-01,7.48927e-01,9.99999e-01
9.964357318e-01,7.53216e-01,9.99999e-01,9.99999e-01,7.53216e-01,9.99999e-01
1.001417910e+00,7.57444e-01,9.99999e-01,9.99999e-01,7.57444e-01,9.99999e-01
1.006425000e+00,7.61612e-01,9.99999e-01,9.99999e-01,7.61612e-01,9.99999e-01
1.011457125e+00,7.65720e-01,9.99999e-01,9.99999e-01,7.65720e-01,9.99999e-01
1.016514411e+00,7.69768e-01,9.99999e-01,9.99999e-01,7.69768e-01,9.99999e-01
1.021596983e+00,7.73718e-01,9.99999e-01,9.99948e-01,7.73757e-01,9.99999e-01
1.026704968e+00,7.74643e-01,9.99999e-01,9.96085e-01,7.77687e-01,9.99999e-01
1.031838492e+00,7.46932e-01,9.99999e-01,9.55694e-01,7.81559e-01,9.99999e-01
1.036997685e+00,1.15055e-01,9.99999e-01,1.46498e-01,7.85373e-01,9.99999e-01
1.042182673e+00,8.50402e-02,9.99999e-01,1.07764e-01,7.89130e-01,9.99999e-01
1.047393587e+00,1.04500e-01,9.99999e-01,1.31806e-01,7.92830e-01,9.99999e-01
1.052630555e+00,2.47118e-03,9.99999e-01,3.10265e-03,7.96474e-01,9.99999e-01
1.057893707e+00,6.40840e-03,9.99999e-01,8.00987e-03,8.00062e-01,9.99999e-01
1.063183176e+00,2.27670e-02,9.99999e-01,2.83314e-02,8.03595e-01,9.99999e-01
1.068499092e+00,6.73414e-02,9.99999e-01,8.34389e-02,8.07073e-01,9.99999e-01
1.073841587e+00,1.68182e-01,9.99999e-01,2.07504e-01,8.10497e-01,9.99999e-01
1.079210795e+00,3.00658e-01,9.99999e-01,3.69419e-01,8.13868e-01,9.99999e-01
1.084606849e+00,4.71875e-01,9.99999e-01,5.77439e-01,8.17185e-01,9.99999e-01
1.090029883e+00,6.16957e-01,9.99999e-01,7.51972e-01,8.20451e-01,9.99999e-01
1.095480033e+00,7.15657e-01,9.99999e-01,8.68868e-01,8.23664e-01,9.99999e-01
1.100957433e+00,7.72691e-01,9.99999e-01,9.34526e-01,8.26826e-01,9.99999e-01
1.106462220e+00,8.07008e-01,9.99999e-01,9.72370e-01,8.29938e-01,9.99999e-01
1.111994531e+00,8.24394e-01,9.99999e-01,9.89669e-01,8.32999e-01,9.99999e-01
1.117554504e+00,8.33891e-01,9.99999e-01,9.97463e-01,8.36011e-01,9.99999e-01
1.123142276e+00,8.38834e-01,9.99999e-01,9.99832e-01,8.38974e-01,9.99999e-01
1.128757988e+00,8.41889e-01,9.99999e-01,9.99999e-01,8.41889e-01,9.99999e-01
1.134401778e+00,8.44756e-01,9.99999e-01,9.99999e-01,8.44756e-01,9.99999e-01
1.140073787e+00,8.47575e-01,9.99999e-01,9.99999e-01,8.47575e-01,9.99999e-01
1.145774156e+00,8.50349e-01,9.99999e-01,9.99999e-01,8.50349e-01,9.99999e-01
1.151503026e+00,8.53076e-01,9.99999e-01,9.99999e-01,8.53076e-01,9.99999e-01
1.157260541e+00,8.55758e-01,9.99999e-01,9.99999e-01,8.55758e-01,9.99999e-01
1.163046844e+00,8.58395e-01,9.99999e-01,9.99999e-01,8.58395e-01,9.99999e-01
1.168862078e+00,8.60988e-01,9.99999e-01,9.99999e-01,8.60988e-01,9.99999e-01
1.174706389e+00,8.63537e-01,9.99999e-01,9.99999e-01,8.63537e-01,9.99999e-01
1.180579921e+00,8.66043e-01,9.99999e-01,9.99999e-01,8.66043e-01,9.99999e-01
1.186482820e+00,8.68501e-01,9.99999e-01,9.99993e-01,8.68507e-01,9.99999e-01
1.192415234e+00,8.58854e-01,9.99999e-01,9.86135e-01,8.70929e-01,9.99999e-01
1.198377311e+00,4.89495e-01,9.99999e-01,5.60506e-01,8.73309e-01,9.99999e-01
1.204369197e+00,1.03275e-11,9.99999e-01,1.17941e-11,8.75649e-01,9.99999e-01
1.210391043e+00,6.64661e-43,9.99999e-01,7.57060e-43,8.77949e-01,9.99999e-01
1.216442998e+00,2.51097e-37,9.99999e-01,2.85269e-37,8.80209e-01,9.99999e-01
1.222525213e+00,8.67580e-37,9.99999e-01,9.83170e-37,8.82430e-01,9.99999e-01
1.228637839e+00,1.70168e-28,9.99999e-01,1.92364e-28,8.84613e-01,9.99999e-01
1.234781029e+00,1.99739e-18,9.99999e-01,2.25246e-18,8.86758e-01,9.99999e-01
1.240954934e+00,1.90410e-12,9.99999e-01,2.14217e-12,8.88865e-01,9.99999e-01
1.247159708e+00,7.18773e-07,9.99999e-01,8.06761e-07,8.90936e-01,9.99999e-01
1.253395507e+00,1.86839e-04,9.99999e-01,2.09233e-04,8.92971e-01,9.99999e-01
1.259662485e+00,6.92839e-03,9.99999e-01,7.74147e-03,8.94970e-01,9.99999e-01
1.265960797e+00,5.37438e-02,9.99999e-01,5.99194e-02,8.96934e-01,9.99999e-01
1.272290601e+00,2.48095e-01,9.99999e-01,2.76010e-01,8.98863e-01,9.99999e-01
1.278652054e+00,2.34016e-01,9.99999e-01,2.59799e-01,9.00758e-01,9.99999e-01
1.285045314e+00,5.79803e-03,9.99999e-01,6.42355e-03,9.02619e-01,9.99999e-01
1.291470541e+00,1.03446e-05,9.99999e-01,1.14374e-05,9.04448e-01,9.99999e-01
1.297927893e+00,3.50267e-03,9.99999e-01,3.86504e-03,9.06244e-01,9.99999e-01
1.304417533e+00,1.03202e-01,9.99999e-01,1.13658e-01,9.08008e-01,9.99999e-01
1.310939621e+00,2.53090e-02,9.99999e-01,2.78200e-02,9.09740e-01,9.99999e-01
1.317494319e+00,3.31037e-15,9.99999e-01,3.63202e-15,9.11442e-01,9.99999e-01
1.324081790e+00,1.66388e-10,9.99999e-01,1.82220e-10,9.13112e-01,9.99999e-01
1.330702199e+00,3.26930e-06,9.99999e-01,3.57397e-06,9.14753e-01,9.99999e-01
1.337355710e+00,4.54581e-06,9.99999e-01,4.96069e-06,9.16365e-01,9.99999e-01
1.344042489e+00,1.41706e-06,9.99999e-01,1.54372e-06,9.17947e-01,9.99999e-01
1.350762701e+00,1.98930e-06,9.99999e-01,2.16346e-06,9.19501e-01,9.99999e-01
1.357516515e+00,2.21286e-04,9.99999e-01,2.40260e-04,9.21026e-01,9.99999e-01
1.364304097e+00,3.94565e-03,9.99999e-01,4.27701e-03,9.22524e-01,9.99999e-01
1.371125618e+00,5.38909e-02,9.99999e-01,5.83237e-02,9.23995e-01,9.99999e-01
1.377981246e+00,8.94753e-02,9.99999e-01,9.66841e-02,9.25438e-01,9.99999e-01
1.384871152e+00,2.37958e-01,9.99999e-01,2.56736e-01,9.26856e-01,9.99999e-01
1.391795508e+00,2.64087e-01,9.99999e-01,2.84500e-01,9.28248e-01,9.99999e-01
1.398754485e+00,4.27710e-01,9.99999e-01,4.60093e-01,9.29614e-01,9.99999e-01
1.405748258e+00,5.25653e-01,9.99999e-01,5.64638e-01,9.30955e-01,9.99999e-01
1.412776999e+00,6.49576e-01,9.99999e-01,6.96766e-01,9.32271e-01,9.99999e-01
1.419840884e+00,5.86302e-01,9.99999e-01,6.28025e-01,9.33564e-01,9.99999e-01
1.426940089e+00,5.24328e-02,9.99999e-01,5.60879e-02,9.34832e-01,9.99999e-01
1.434074789e+00,0.00000e+00,9.99999e-01,0.00000e+00,9.36077e-01,9.99999e-01
1.441245163e+00,0.00000e+00,9.99999e-01,0.00000e+00,9.37300e-01,9.99999e-01
1.448451389e+00,0.00000e+00,9.99999e-01,0.00000e+00,9.38499e-01,9.99999e-01
1.455693646e+00,0.00000e+00,9.99999e-01,0.00000e+00,9.39677e-01,9.99999e-01
1.462972114e+00,2.88924e-167,9.99999e-01,3.07094e-167,9.40832e-01,9.99999e-01
1.470286975e+00,3.77152e-70,9.99999e-01,4.00388e-70,9.41966e-01,9.99999e-01
