#,Wave/freq,Total,O2,CO2,Rayleigh,CIA
4.000000000e-01,2.30348e-05,9.99999e-01,9.99999e-01,2.30348e-05,9.99999e-01
4.020000000e-01,2.84500e-05,9.99999e-01,9.99999e-01,2.84500e-05,9.99999e-01
4.040100000e-01,3.49845e-05,9.99999e-01,9.99999e-01,3.49845e-05,9.99999e-01
4.060300500e-01,4.28445e-05,9.99999e-01,9.99999e-01,4.28445e-05,9.99999e-01
4.080602003e-01,5.22608e-05,9.99999e-01,9.99999e-01,5.22608e-05,9.99999e-01
4.101005013e-01,6.34969e-05,9.99999e-01,9.99999e-01,6.34969e-05,9.99999e-01
4.121510038e-01,7.68526e-05,9.99999e-01,9.99999e-01,7.68526e-05,9.99999e-01
4.142117588e-01,9.26674e-05,9.99999e-01,9.99999e-01,9.26674e-05,9.99999e-01
4.162828176e-01,1.11324e-04,9.99999e-01,9.99999e-01,1.11324e-04,9.99999e-01
4.183642317e-01,1.33254e-04,9.99999e-01,9.99999e-01,1.33254e-04,9.99999e-01
4.204560528e-01,1.58938e-04,9.99999e-01,9.99999e-01,1.58938e-04,9.99999e-01
4.225583331e-01,1.88913e-04,9.99999e-01,9.99999e-01,1.88913e-04,9.99999e-01
4.246711247e-01,2.23777e-04,9.99999e-01,9.99999e-01,2.23777e-04,9.99999e-01
4.267944804e-01,2.64189e-04,9.99999e-01,9.99999e-01,2.64189e-04,9.99999e-01
4.289284528e-01,3.10879e-04,9.99999e-01,9.99999e-01,3.10879e-04,9.99999e-01
4.310730950e-01,3.64646e-04,9.99999e-01,9.99999e-01,3.64646e-04,9.99999e-01
4.332284605e-01,4.26366e-04,9.99999e-01,9.99999e-01,4.26366e-04,9.99999e-01
4.353946028e-01,4.96996e-04,9.99999e-01,9.99999e-01,4.96996e-04,9.99999e-01
4.375715758e-01,5.77575e-04,9.99999e-01,9.99999e-01,5.77575e-04,9.99999e-01
4.397594337e-01,6.69229e-04,9.99999e-01,9.99999e-01,6.69229e-04,9.99999e-01
4.419582309e-01,7.73174e-04,9.99999e-01,9.99999e-01,7.73174e-04,9.99999e-01
4.441680220e-01,8.90720e-04,9.99999e-01,9.99999e-01,8.90720e-04,9.99999e-01
4.463888621e-01,1.02327e-03,9.99999e-01,9.99999e-01,1.02327e-03,9.99999e-01
4.486208064e-01,1.17233e-03,9.99999e-01,9.99999e-01,1.17233e-03,9.99999e-01
4.508639105e-01,1.33951e-03,9.99999e-01,9.99999e-01,1.33951e-03,9.99999e-01
4.531182300e-01,1.52649e-03,9.99999e-01,9.99999e-01,1.52649e-03,9.99999e-01
4.553838212e-01,1.73510e-03,9.99999e-01,9.99999e-01,1.73510e-03,9.99999e-01
4.576607403e-01,1.96723e-03,9.99999e-01,9.99999e-01,1.96723e-03,9.99999e-01
4.599490440e-01,2.22488e-03,9.99999e-01,9.99999e-01,2.22488e-03,9.99999e-01
4.622487892e-01,2.51018e-03,9.99999e-01,9.99999e-01,2.51018e-03,9.99999e-01
4.645600332e-01,2.82531e-03,9.99999e-01,9.99999e-01,2.82531e-03,9.99999e-01
4.668828333e-01,3.17259e-03,9.99999e-01,9.99999e-01,3.17259e-03,9.99999e-01
4.692172475e-01,3.55441e-03,9.99999e-01,9.99999e-01,3.55441e-03,9.99999e-01
4.715633337e-01,3.97325e-03,9.99999e-01,9.99999e-01,3.97325e-03,9.99999e-01
4.739211504e-01,4.43169e-03,9.99999e-01,9.99999e-01,4.43169e-03,9.99999e-01
4.762907561e-01,4.93236e-03,9.99999e-01,9.99999e-01,4.93236e-03,9.99999e-01
4.786722099e-01,5.47801e-03,9.99999e-01,9.99999e-01,5.47801e-03,9.99999e-01
4.810655710e-01,6.07143e-03,9.99999e-01,9.99999e-01,6.07143e-03,9.99999e-01
4.834708988e-01,6.71547e-03,9.99999e-01,9.99999e-01,6.71547e-03,9.99999e-01
4.858882533e-01,7.41305e-03,9.99999e-01,9.99999e-01,7.41305e-03,9.99999e-01
4.883176946e-01,8.16713e-03,9.99999e-01,9.99999e-01,8.16713e-03,9.99999e-01
4.907592831e-01,8.98073e-03,9.99999e-01,9.99999e-01,8.98073e-03,9.99999e-01
4.932130795e-01,9.85686e-03,9.99999e-01,9.99999e-01,9.85686e-03,9.99999e-01
4.956791449e-01,1.07986e-02,9.99999e-01,9.99999e-01,1.07986e-02,9.99999e-01
4.981575406e-01,1.18090e-02,9.99999e-01,9.99999e-01,1.18090e-02,9.99999e-01
5.006483283e-01,1.28912e-02,9.99999e-01,9.99999e-01,1.28912e-02,9.99999e-01
5.031515699e-01,1.40481e-02,9.99999e-01,9.99999e-01,1.40481e-02,9.99999e-01
5.056673278e-01,1.52830e-02,9.99999e-01,9.99999e-01,1.52830e-02,9.99999e-01
5.081956644e-01,1.65987e-02,9.99999e-01,9.99999e-01,1.65987e-02,9.99999e-01
5.107366428e-01,1.79983e-02,9.99999e-01,9.99999e-01,1.79983e-02,9.99999e-01
5.132903260e-01,1.94848e-02,9.99999e-01,9.99999e-01,1.94848e-02,9.99999e-01
5.158567776e-01,2.10609e-02,9.99999e-01,9.99999e-01,2.10609e-02,9.99999e-01
5.184360615e-01,2.27297e-02,9.99999e-01,9.99999e-01,2.27297e-02,9.99999e-01
5.210282418e-01,2.44937e-02,9.99999e-01,9.99999e-01,2.44937e-02,9.99999e-01
5.236333830e-01,2.63557e-02,9.99999e-01,9.99999e-01,2.63557e-02,9.99999e-01
5.262515499e-01,2.83183e-02,9.99999e-01,9.99999e-01,2.83183e-02,9.99999e-01
5.288828077e-01,3.03838e-02,9.99999e-01,9.99999e-01,3.03838e-02,9.99999e-01
5.315272217e-01,3.25547e-02,9.99999e-01,9.99999e-01,3.25547e-02,9.99999e-01
5.341848578e-01,3.48332e-02,9.99999e-01,9.99999e-01,3.48332e-02,9.99999e-01
5.368557821e-01,3.72214e-02,9.99999e-01,9.99999e-01,3.72214e-02,9.99999e-01
5.395400610e-01,3.97212e-02,9.99999e-01,9.99999e-01,3.97212e-02,9.99999e-01
5.422377613e-01,4.23346e-02,9.99999e-01,9.99999e-01,4.23346e-02,9.99999e-01
5.449489501e-01,4.50632e-02,9.99999e-01,9.99999e-01,4.50632e-02,9.99999e-01
5.476736949e-01,4.79084e-02,9.99999e-01,9.99999e-01,4.79084e-02,9.99999e-01
5.504120634e-01,5.08718e-02,9.99999e-01,9.99999e-01,5.08718e-02,9.99999e-01
5.531641237e-01,5.39545e-02,9.99999e-01,9.99999e-01,5.39545e-02,9.99999e-01
5.559299443e-01,5.71575e-02,9.99999e-01,9.99999e-01,5.71575e-02,9.99999e-01
5.587095940e-01,6.04817e-02,9.99999e-01,9.99999e-01,6.04817e-02,9.99999e-01
5.615031420e-01,6.39278e-02,9.99999e-01,9.99999e-01,6.39278e-02,9.99999e-01
5.643106577e-01,6.74964e-02,9.99999e-01,9.99999e-01,6.74964e-02,9.99999e-01
5.671322110e-01,7.11877e-02,9.99999e-01,9.99999e-01,7.11877e-02,9.99999e-01
5.699678720e-01,7.50020e-02,9.99999e-01,9.99999e-01,7.50020e-02,9.99999e-01
5.728177114e-01,7.89392e-02,9.99999e-01,9.99999e-01,7.89392e-02,9.99999e-01
5.756818000e-01,8.29992e-02,9.99999e-01,9.99999e-01,8.29992e-02,9.99999e-01
5.785602090e-01,8.71816e-02,9.99999e-01,9.99999e-01,8.71816e-02,9.99999e-01
5.814530100e-01,9.14859e-02,9.99999e-01,9.99999e-01,9.14859e-02,9.99999e-01
5.843602750e-01,9.59114e-02,9.99999e-01,9.99999e-01,9.59114e-02,9.99999e-01
5.872820764e-01,1.00457e-01,9.99999e-01,9.99999e-01,1.00457e-01,9.99999e-01
5.902184868e-01,1.05122e-01,9.99999e-01,9.99999e-01,1.05122e-01,9.99999e-01
5.931695792e-01,1.09905e-01,9.99999e-01,9.99999e-01,1.09905e-01,9.99999e-01
5.961354271e-01,1.14805e-01,9.99999e-01,9.99999e-01,1.14805e-01,9.99999e-01
5.991161043e-01,1.19820e-01,9.99999e-01,9.99999e-01,1.19820e-01,9.99999e-01
6.021116848e-01,1.24948e-01,9.99999e-01,9.99999e-01,1.24948e-01,9.99999e-01
6.051222432e-01,1.30188e-01,9.99999e-01,9.99999e-01,1.30188e-01,9.99999e-01
6.081478544e-01,1.35538e-01,9.99999e-01,9.99999e-01,1.35538e-01,9.99999e-01
6.111885937e-01,1.40995e-01,9.99999e-01,9.99999e-01,1.40995e-01,9.99999e-01
6.142445367e-01,1.46558e-01,9.99999e-01,9.99999e-01,1.46558e-01,9.99999e-01
6.173157594e-01,1.52224e-01,9.99999e-01,9.99999e-01,1.52224e-01,9.99999e-01
6.204023382e-01,1.57991e-01,9.99999e-01,9.99999e-01,1.57991e-01,9.99999e-01
6.235043498e-01,1.63855e-01,9.99999e-01,9.99999e-01,1.63855e-01,9.99999e-01
6.266218716e-01,1.69815e-01,9.99999e-01,9.99999e-01,1.69815e-01,9.99999e-01
6.297549810e-01,1.75868e-01,9.99999e-01,9.99999e-01,1.75868e-01,9.99999e-01
6.329037559e-01,1.82010e-01,9.99999e-01,9.99999e-01,1.82010e-01,9.99999e-01
6.360682746e-01,1.88240e-01,9.99999e-01,9.99999e-01,1.88240e-01,9.99999e-01
6.392486160e-01,1.94553e-01,9.99999e-01,9.99999e-01,1.94553e-01,9.99999e-01
6.424448591e-01,2.00947e-01,9.99999e-01,9.99999e-01,2.00947e-01,9.99999e-01
6.456570834e-01,2.07418e-01,9.99999e-01,9.99999e-01,2.07418e-01,9.99999e-01
6.488853688e-01,2.13964e-01,9.99999e-01,9.99999e-01,2.13964e-01,9.99999e-01
6.521297956e-01,2.20581e-01,9.99999e-01,9.99999e-01,2.20581e-01,9.99999e-01
6.553904446e-01,2.27266e-01,9.99999e-01,9.99999e-01,2.27266e-01,9.99999e-01
6.586673968e-01,2.34015e-01,9.99999e-01,9.99999e-01,2.34015e-01,9.99999e-01
6.619607338e-01,2.40826e-01,9.99999e-01,9.99999e-01,2.40826e-01,9.99999e-01
6.652705375e-01,2.47694e-01,9.99999e-01,9.99999e-01,2.47694e-01,9.99999e-01
6.685968902e-01,2.54617e-01,9.99999e-01,9.99999e-01,2.54617e-01,9.99999e-01
6.719398746e-01,2.61591e-01,9.99999e-01,9.99999e-01,2.61591e-01,9.99999e-01
6.752995740e-01,2.68612e-01,9.99999e-01,9.99999e-01,2.68612e-01,9.99999e-01
6.786760719e-01,2.75678e-01,9.99999e-01,9.99999e-01,2.75678e-01,9.99999e-01
6.820694522e-01,2.82785e-01,9.99999e-01,9.99999e-01,2.82785e-01,9.99999e-01
6.854797995e-01,2.89928e-01,9.99999e-01,9.99999e-01,2.89928e-01,9.99999e-01
6.889071985e-01,2.97106e-01,9.99999e-01,9.99999e-01,2.97106e-01,9.99999e-01
6.923517345e-01,3.04315e-01,9.99999e-01,9.99999e-01,3.04315e-01,9.99999e-01
6.958134932e-01,3.11551e-01,9.99999e-01,9.99999e-01,3.11551e-01,9.99999e-01
6.992925606e-01,3.18811e-01,9.99999e-01,9.99999e-01,3.18811e-01,9.99999e-01
7.027890234e-01,3.26091e-01,9.99999e-01,9.99999e-01,3.26091e-01,9.99999e-01
7.063029686e-01,3.33390e-01,9.99999e-01,9.99999e-01,3.33390e-01,9.99999e-01
7.098344834e-01,3.40702e-01,9.99999e-01,9.99999e-01,3.40702e-01,9.99999e-01
7.133836558e-01,3.48026e-01,9.99999e-01,9.99999e-01,3.48026e-01,9.99999e-01
7.169505741e-01,3.55358e-01,9.99999e-01,9.99999e-01,3.55358e-01,9.99999e-01
7.205353270e-01,3.62695e-01,9.99999e-01,9.99999e-01,3.62695e-01,9.99999e-01
7.241380036e-01,3.70034e-01,9.99999e-01,9.99999e-01,3.70034e-01,9.99999e-01
7.277586936e-01,3.77372e-01,9.99999e-01,9.99999e-01,3.77372e-01,9.99999e-01
7.313974871e-01,3.84707e-01,9.99999e-01,9.99999e-01,3.84707e-01,9.99999e-01
7.350544745e-01,3.92035e-01,9.99999e-01,9.99999e-01,3.92035e-01,9.99999e-01
7.387297469e-01,3.99353e-01,9.99999e-01,9.99999e-01,3.99353e-01,9.99999e-01
7.424233956e-01,4.06660e-01,9.99999e-01,9.99999e-01,4.06660e-01,9.99999e-01
7.461355126e-01,4.13952e-01,9.99999e-01,9.99999e-01,4.13952e-01,9.99999e-01
7.498661902e-01,4.21227e-01,9.99999e-01,9.99999e-01,4.21227e-01,9.99999e-01
7.536155211e-01,4.28482e-01,9.99999e-01,9.99999e-01,4.28482e-01,9.99999e-01
7.573835987e-01,4.35716e-01,9.99999e-01,9.99999e-01,4.35716e-01,9.99999e-01
7.611705167e-01,4.42925e-01,9.99999e-01,9.99999e-01,4.42925e-01,9.99999e-01
7.649763693e-01,4.50107e-01,9.99999e-01,9.99999e-01,4.50107e-01,9.99999e-01
7.688012511e-01,4.57260e-01,9.99999e-01,9.99999e-01,4.57260e-01,9.99999e-01
7.726452574e-01,4.64383e-01,9.99999e-01,9.99999e-01,4.64383e-01,9.99999e-01
7.765084837e-01,4.71472e-01,9.99999e-01,9.99999e-01,4.71472e-01,9.99999e-01
7.803910261e-01,4.61406e-01,9.99999e-01,9.64222e-01,4.78527e-01,9.99999e-01
7.842929812e-01,4.15861e-01,9.99999e-01,8.56484e-01,4.85544e-01,9.99999e-01
7.882144461e-01,4.16855e-01,9.99999e-01,8.46365e-01,4.92523e-01,9.99999e-01
7.921555184e-01,4.53109e-01,9.99999e-01,9.07195e-01,4.99461e-01,9.99999e-01
7.961162960e-01,4.74588e-01,9.99999e-01,9.37259e-01,5.06357e-01,9.99999e-01
8.000968774e-01,4.95470e-01,9.99999e-01,9.65433e-01,5.13210e-01,9.99999e-01
8.040973618e-01,5.10659e-01,9.99999e-01,9.82004e-01,5.20017e-01,9.99999e-01
8.081178486e-01,5.22390e-01,9.99999e-01,9.91671e-01,5.26777e-01,9.99999e-01
8.121584379e-01,5.32124e-01,9.99999e-01,9.97442e-01,5.33489e-01,9.99999e-01
8.162192301e-01,5.39846e-01,9.99999e-01,9.99434e-01,5.40151e-01,9.99999e-01
8.203003262e-01,5.46758e-01,9.99999e-01,9.99991e-01,5.46762e-01,9.99999e-01
8.244018279e-01,5.53322e-01,9.99999e-01,9.99999e-01,5.53322e-01,9.99999e-01
8.285238370e-01,5.59828e-01,9.99999e-01,9.99999e-01,5.59828e-01,9.99999e-01
8.326664562e-01,5.66280e-01,9.99999e-01,9.99999e-01,5.66280e-01,9.99999e-01
8.368297885e-01,5.72676e-01,9.99999e-01,9.99999e-01,5.72676e-01,9.99999e-01
8.410139374e-01,5.79017e-01,9.99999e-01,9.99999e-01,5.79017e-01,9.99999e-01
8.452190071e-01,5.85300e-01,9.99999e-01,9.99999e-01,5.85300e-01,9.99999e-01
8.494451021e-01,5.91526e-01,9.99999e-01,9.99999e-01,5.91526e-01,9.99999e-01
8.536923276e-01,5.97692e-01,9.99999e-01,9.99999e-01,5.97692e-01,9.99999e-01
8.579607893e-01,6.03799e-01,9.99999e-01,9.99999e-01,6.03799e-01,9.99999e-01
8.622505932e-01,6.09847e-01,9.99999e-01,9.99999e-01,6.09847e-01,9.99999e-01
8.665618462e-01,5.67760e-01,9.99999e-01,9.21937e-01,6.15833e-01,9.99999e-01
8.708946554e-01,4.18832e-01,9.99999e-01,6.73624e-01,6.21758e-01,9.99999e-01
8.752491287e-01,4.56931e-01,9.99999e-01,7.28035e-01,6.27622e-01,9.99999e-01
8.796253743e-01,5.32124e-01,9.99999e-01,8.40076e-01,6.33423e-01,9.99999e-01
8.840235012e-01,5.83922e-01,9.99999e-01,9.13573e-01,6.39162e-01,9.99999e-01
8.884436187e-01,6.22356e-01,9.99999e-01,9.65135e-01,6.44838e-01,9.99999e-01
8.928858368e-01,6.41152e-01,9.99999e-01,9.85702e-01,6.50451e-01,9.99999e-01
8.973502660e-01,6.53722e-01,9.99999e-01,9.96526e-01,6.56000e-01,9.99999e-01
9.018370173e-01,6.61233e-01,9.99999e-01,9.99617e-01,6.61486e-01,9.99999e-01
9.063462024e-01,6.60201e-01,9.99999e-01,9.89942e-01,6.66908e-01,9.99999e-01
9.108779334e-01,6.57132e-01,9.99999e-01,9.77488e-01,6.72266e-01,9.99999e-01
9.154323231e-01,6.73980e-01,9.99999e-01,9.94717e-01,6.77559e-01,9.99999e-01
9.200094847e-01,6.31136e-01,9.99999e-01,9.24349e-01,6.82789e-01,9.99999e-01
9.246095321e-01,6.15339e-01,9.99999e-01,8.94446e-01,6.87955e-01,9.99999e-01
9.292325798e-01,6.34575e-01,9.99999e-01,9.15617e-01,6.93056e-01,9.99999e-01
9.338787427e-01,6.41516e-01,9.99999e-01,9.18953e-01,6.98094e-01,9.99999e-01
9.385481364e-01,6.60708e-01,9.99999e-01,9.39750e-01,7.03067e-01,9.99999e-01
9.432408771e-01,6.81606e-01,9.99999e-01,9.62752e-01,7.07977e-01,9.99999e-01
9.479570815e-01,6.99053e-01,9.99999e-01,9.80682e-01,7.12822e-01,9.99999e-01
9.526968669e-01,7.10901e-01,9.99999e-01,9.90657e-01,7.17605e-01,9.99999e-01
9.574603512e-01,7.19433e-01,9.99999e-01,9.95997e-01,7.22324e-01,9.99999e-01
9.622476530e-01,7.26072e-01,9.99999e-01,9.98751e-01,7.26980e-01,9.99999e-01
9.670588912e-01,7.31300e-01,9.99999e-01,9.99626e-01,7.31573e-01,9.99999e-01
9.718941857e-01,7.36084e-01,9.99999e-01,9.99973e-01,7.36103e-01,9.99999e-01
9.767536566e-01,7.40572e-01,9.99999e-01,9.99999e-01,7.40572e-01,9.99999e-01
9.816374249e-01,7.44978e-01,9.99999e-01,9.99999e-01,7.44978e-01,9.99999e-01
9.865456120e-01,7.49323e-01,9.99999e-01,9.99999e-01,7.49323e-01,9.99999e-01
9.914783401e-01,7.53606e-01,9.99999e-01,9.99999e-01,7.53606e-01,9.99999e-01
9.964357318e-01,7.57829e-01,9.99999e-01,9.99999e-01,7.57829e-01,9.99999e-01
1.001417910e+00,7.61991e-01,9.99999e-01,9.99999e-01,7.61991e-01,9.99999e-01
1.006425000e+00,7.66094e-01,9.99999e-01,9.99999e-01,7.66094e-01,9.99999e-01
1.011457125e+00,7.70136e-01,9.99999e-01,9.99999e-01,7.70136e-01,9.99999e-01
1.016514411e+00,7.74120e-01,9.99999e-01,9.99999e-01,7.74120e-01,9.99999e-01
1.021596983e+00,7.77998e-01,9.99999e-01,9.99940e-01,7.78044e-01,9.99999e-01
1.026704968e+00,7.78827e-01,9.99999e-01,9.96054e-01,7.81911e-01,9.99999e-01
1.031838492e+00,7.48062e-01,9.99999e-01,9.52071e-01,7.85720e-01,9.99999e-01
1.036997685e+00,1.15957e-01,9.99999e-01,1.46879e-01,7.89471e-01,9.99999e-01
1.042182673e+00,9.00828e-02,9.99999e-01,1.13574e-01,7.93166e-01,9.99999e-01
1.047393587e+00,1.06933e-01,9.99999e-01,1.34202e-01,7.96805e-01,9.99999e-01
1.052630555e+00,2.72924e-03,9.99999e-01,3.40989e-03,8.00388e-01,9.99999e-01
1.057893707e+00,7.17248e-03,9.99999e-01,8.92192e-03,8.03916e-01,9.99999e-01
1.063183176e+00,2.47365e-02,9.99999e-01,3.06376e-02,8.07389e-01,9.99999e-01
1.068499092e+00,7.11276e-02,9.99999e-01,8.77242e-02,8.10808e-01,9.99999e-01
1.073841587e+00,1.75412e-01,9.99999e-01,2.15447e-01,8.14174e-01,9.99999e-01
1.079210795e+00,3.09198e-01,9.99999e-01,3.78229e-01,8.17487e-01,9.99999e-01
1.084606849e+00,4.80758e-01,9.99999e-01,5.85755e-01,8.20748e-01,9.99999e-01
1.090029883e+00,6.23994e-01,9.99999e-01,7.57313e-01,8.23956e-01,9.99999e-01
1.095480033e+00,7.21361e-01,9.99999e-01,8.72141e-01,8.27114e-01,9.99999e-01
1.100957433e+00,7.77245e-01,9.99999e-01,9.36189e-01,8.30221e-01,9.99999e-01
1.106462220e+00,8.10894e-01,9.99999e-01,9.73136e-01,8.33278e-01,9.99999e-01
1.111994531e+00,8.27887e-01,9.99999e-01,9.89957e-01,8.36285e-01,9.99999e-01
1.117554504e+00,8.37188e-01,9.99999e-01,9.97549e-01,8.39243e-01,9.99999e-01
1.123142276e+00,8.42019e-01,9.99999e-01,9.99839e-01,8.42154e-01,9.99999e-01
1.128757988e+00,8.45016e-01,9.99999e-01,9.99999e-01,8.45016e-01,9.99999e-01
1.134401778e+00,8.47832e-01,9.99999e-01,9.99999e-01,8.47832e-01,9.99999e-01
1.140073787e+00,8.50601e-01,9.99999e-01,9.99999e-01,8.50601e-01,9.99999e-01
1.145774156e+00,8.53324e-01,9.99999e-01,9.99999e-01,8.53324e-01,9.99999e-01
1.151503026e+00,8.56001e-01,9.99999e-01,9.99999e-01,8.56001e-01,9.99999e-01
1.157260541e+00,8.58634e-01,9.99999e-01,9.99999e-01,8.58634e-01,9.99999e-01
1.163046844e+00,8.61223e-01,9.99999e-01,9.99999e-01,8.61223e-01,9.99999e-01
1.168862078e+00,8.63768e-01,9.99999e-01,9.99999e-01,8.63768e-01,9.99999e-01
1.174706389e+00,8.66271e-01,9.99999e-01,9.99999e-01,8.66271e-01,9.99999e-01
1.180579921e+00,8.68731e-01,9.99999e-01,9.99999e-01,8.68731e-01,9.99999e-01
1.186482820e+00,8.71141e-01,9.99999e-01,9.99990e-01,8.71149e-01,9.99999e-01
1.192415234e+00,8.61245e-01,9.99999e-01,9.85941e-01,8.73525e-01,9.99999e-01
1.198377311e+00,4.90313e-01,9.99999e-01,5.59806e-01,8.75862e-01,9.99999e-01
1.204369197e+00,1.64295e-11,9.99999e-01,1.87091e-11,8.78158e-01,9.99999e-01
1.210391043e+00,4.88449e-42,9.99999e-01,5.54794e-42,8.80414e-01,9.99999e-01
1.216442998e+00,1.40354e-36,9.99999e-01,1.59017e-36,8.82632e-01,9.99999e-01
1.222525213e+00,4.72334e-36,9.99999e-01,5.33825e-36,8.84811e-01,9.99999e-01
1.228637839e+00,6.30717e-28,9.99999e-01,7.11105e-28,8.86953e-01,9.99999e-01
1.234781029e+00,4.41737e-18,9.99999e-01,4.96860e-18,8.89057e-01,9.99999e-01
1.240954934e+00,3.40926e-12,9.99999e-01,3.82579e-12,8.91124e-01,9.99999e-01
1.247159708e+00,9.12509e-07,9.99999e-01,1.02167e-06,8.93156e-01,9.99999e-01
1.253395507e+00,2.26609e-04,9.99999e-01,2.53151e-04,8.95151e-01,9.99999e-01
1.259662485e+00,7.75653e-03,9.99999e-01,8.64611e-03,8.97112e-01,9.99999e-01
1.265960797e+00,5.80493e-02,9.99999e-01,6.45682e-02,8.99038e-01,9.99999e-01
1.272290601e+00,2.81242e-01,9.99999e-01,3.12168e-01,9.00930e-01,9.99999e-01
1.278652054e+00,2.37816e-01,9.99999e-01,2.63423e-01,9.02788e-01,9.99999e-01
1.285045314e+00,4.46907e-03,9.99999e-01,4.94030e-03,9.04614e-01,9.99999e-01
1.291470541e+00,1.30489e-05,9.99999e-01,1.43963e-05,9.06407e-01,9.99999e-01
1.297927893e+00,7.87453e-03,9.99999e-01,8.67078e-03,9.08168e-01,9.99999e-01
1.304417533e+00,1.08859e-01,9.99999e-01,1.19639e-01,9.09897e-01,9.99999e-01
1.310939621e+00,1.77501e-02,9.99999e-01,1.94715e-02,9.11596e-01,9.99999e-01
1.317494319e+00,5.34584e-15,9.99999e-01,5.85355e-15,9.13264e-01,9.99999e-01
1.324081790e+00,2.63085e-10,9.99999e-01,2.87556e-10,9.14902e-01,9.99999e-01
1.330702199e+00,4.23832e-06,9.99999e-01,4.62441e-06,9.16511e-01,9.99999e-01
1.337355710e+00,5.85810e-06,9.99999e-01,6.38074e-06,9.18091e-01,9.99999e-01
1.344042489e+00,1.75028e-06,9.99999e-01,1.90322e-06,9.19642e-01,9.99999e-01
1.350762701e+00,2.66408e-06,9.99999e-01,2.89208e-06,9.21165e-01,9.99999e-01
1.357516515e+00,2.69569e-04,9.99999e-01,2.92165e-04,9.22660e-01,9.99999e-01
1.364304097e+00,4.48768e-03,9.99999e-01,4.85612e-03,9.24128e-01,9.99999e-01
1.371125618e+00,5.79428e-02,9.99999e-01,6.26022e-02,9.25570e-01,9.99999e-01
1.377981246e+00,9.45675e-02,9.99999e-01,1.02016e-01,9.26985e-01,9.99999e-01
1.384871152e+00,2.46142e-01,9.99999e-01,2.65132e-01,9.28374e-01,9.99999e-01
1.391795508e+00,2.72813e-01,9.99999e-01,2.93430e-01,9.29738e-01,9.99999e-01
1.398754485e+00,4.36479e-01,9.99999e-01,4.68789e-01,9.31077e-01,9.99999e-01
1.405748258e+00,5.34226e-01,9.99999e-01,5.72963e-01,9.32391e-01,9.99999e-01
1.412776999e+00,6.56774e-01,9.99999e-01,7.03424e-01,9.33681e-01,9.99999e-01
1.419840884e+00,5.87006e-01,9.99999e-01,6.27849e-01,9.34947e-01,9.99999e-01
1.426940089e+00,5.24438e-02,9.99999e-01,5.60182e-02,9.36190e-01,9.99999e-01
1.434074789e+00,0.00000e+00,9.99999e-01,0.00000e+00,9.37411e-01,9.99999e-01
1.441245163e+00,0.00000e+00,9.99999e-01,0.00000e+00,9.38608e-01,9.99999e-01
1.448451389e+00,0.00000e+00,9.99999e-01,0.00000e+00,9.39783e-01,9.99999e-01
1.455693646e+00,0.00000e+00,9.99999e-01,0.00000e+00,9.40937e-01,9.99999e-01
1.462972114e+00,9.47364e-164,9.99999e-01,1.00562e-163,9.42069e-01,9.99999e-01
1.470286975e+00,1.05479e-68,9.99999e-01,1.11833e-68,9.43180e-01,9.99999e-01
