#,Wave/freq,Total,O2,CO2,Rayleigh,CIA
4.000000000e-01,4.07486e-06,9.99999e-01,9.99999e-01,4.07486e-06,9.99999e-01
4.020000000e-01,5.20820e-06,9.99999e-01,9.99999e-01,5.20820e-06,9.99999e-01
4.040100000e-01,6.62286e-06,9.99999e-01,9.99999e-01,6.62286e-06,9.99999e-01
4.060300500e-01,8.38191e-06,9.99999e-01,9.99999e-01,8.38191e-06,9.99999e-01
4.080602003e-01,1.05589e-05,9.99999e-01,9.99999e-01,1.05589e-05,9.99999e-01
4.101005013e-01,1.32408e-05,9.99999e-01,9.99999e-01,1.32408e-05,9.99999e-01
4.121510038e-01,1.65299e-05,9.99999e-01,9.99999e-01,1.65299e-05,9.99999e-01
4.142117588e-01,2.05457e-05,9.99999e-01,9.99999e-01,2.05457e-05,9.99999e-01
4.162828176e-01,2.54276e-05,9.99999e-01,9.99999e-01,2.54276e-05,9.99999e-01
4.183642317e-01,3.13374e-05,9.99999e-01,9.99999e-01,3.13374e-05,9.99999e-01
4.204560528e-01,3.84615e-05,9.99999e-01,9.99999e-01,3.84615e-05,9.99999e-01
4.225583331e-01,4.70146e-05,9.99999e-01,9.99999e-01,4.70146e-05,9.99999e-01
4.246711247e-01,5.72423e-05,9.99999e-01,9.99999e-01,5.72423e-05,9.99999e-01
4.267944804e-01,6.94245e-05,9.99999e-01,9.99999e-01,6.94245e-05,9.99999e-01
4.289284528e-01,8.38790e-05,9.99999e-01,9.99999e-01,8.38790e-05,9.99999e-01
4.310730950e-01,1.00965e-04,9.99999e-01,9.99999e-01,1.00965e-04,9.99999e-01
4.332284605e-01,1.21087e-04,9.99999e-01,9.99999e-01,1.21087e-04,9.99999e-01
4.353946028e-01,1.44700e-04,9.99999e-01,9.99999e-01,1.44700e-04,9.99999e-01
4.375715758e-01,1.72309e-04,9.99999e-01,9.99999e-01,1.72309e-04,9.99999e-01
4.397594337e-01,2.04480e-04,9.99999e-01,9.99999e-01,2.04480e-04,9.99999e-01
4.419582309e-01,2.41837e-04,9.99999e-01,9.99999e-01,2.41837e-04,9.99999e-01
4.441680220e-01,2.85074e-04,9.99999e-01,9.99999e-01,2.85074e-04,9.99999e-01
4.463888621e-01,3.34951e-04,9.99999e-01,9.99999e-01,3.34951e-04,9.99999e-01
4.486208064e-01,3.92303e-04,9.99999e-01,9.99999e-01,3.92303e-04,9.99999e-01
4.508639105e-01,4.58043e-04,9.99999e-01,9.99999e-01,4.58043e-04,9.99999e-01
4.531182300e-01,5.33165e-04,9.99999e-01,9.99999e-01,5.33165e-04,9.99999e-01
4.553838212e-01,6.18748e-04,9.99999e-01,9.99999e-01,6.18748e-04,9.99999e-01
4.576607403e-01,7.15961e-04,9.99999e-01,9.99999e-01,7.15961e-04,9.99999e-01
4.599490440e-01,8.26063e-04,9.99999e-01,9.99999e-01,8.26063e-04,9.99999e-01
4.622487892e-01,9.50407e-04,9.99999e-01,9.99999e-01,9.50407e-04,9.99999e-01
4.645600332e-01,1.09044e-03,9.99999e-01,9.99999e-01,1.09044e-03,9.99999e-01
4.668828333e-01,1.24772e-03,9.99999e-01,9.99999e-01,1.24772e-03,9.99999e-01
4.692172475e-01,1.42389e-03,9.99999e-01,9.99999e-01,1.42389e-03,9.99999e-01
4.715633337e-01,1.62070e-03,9.99999e-01,9.99999e-01,1.62070e-03,9.99999e-01
4.739211504e-01,1.84000e-03,9.99999e-01,9.99999e-01,1.84000e-03,9.99999e-01
4.762907561e-01,2.08375e-03,9.99999e-01,9.99999e-01,2.08375e-03,9.99999e-01
4.786722099e-01,2.35399e-03,9.99999e-01,9.99999e-01,2.35399e-03,9.99999e-01
4.810655710e-01,2.65288e-03,9.99999e-01,9.99999e-01,2.65288e-03,9.99999e-01
4.834708988e-01,2.98267e-03,9.99999e-01,9.99999e-01,2.98267e-03,9.99999e-01
4.858882533e-01,3.34571e-03,9.99999e-01,9.99999e-01,3.34571e-03,9.99999e-01
4.883176946e-01,3.74443e-03,9.99999e-01,9.99999e-01,3.74443e-03,9.99999e-01
4.907592831e-01,4.18136e-03,9.99999e-01,9.99999e-01,4.18136e-03,9.99999e-01
4.932130795e-01,4.65910e-03,9.99999e-01,9.99999e-01,4.65910e-03,9.99999e-01
4.956791449e-01,5.18035e-03,9.99999e-01,9.99999e-01,5.18035e-03,9.99999e-01
4.981575406e-01,5.74786e-03,9.99999e-01,9.99999e-01,5.74786e-03,9.99999e-01
5.006483283e-01,6.36446e-03,9.99999e-01,9.99999e-01,6.36446e-03,9.99999e-01
5.031515699e-01,7.03303e-03,9.99999e-01,9.99999e-01,7.03303e-03,9.99999e-01
5.056673278e-01,7.75652e-03,9.99999e-01,9.99999e-01,7.75652e-03,9.99999e-01
5.081956644e-01,8.53790e-03,9.99999e-01,9.99999e-01,8.53790e-03,9.99999e-01
5.107366428e-01,9.38020e-03,9.99999e-01,9.99999e-01,9.38020e-03,9.99999e-01
5.132903260e-01,1.02865e-02,9.99999e-01,9.99999e-01,1.02865e-02,9.99999e-01
5.158567776e-01,1.12597e-02,9.99999e-01,9.99999e-01,1.12597e-02,9.99999e-01
5.184360615e-01,1.23031e-02,9.99999e-01,9.99999e-01,1.23031e-02,9.99999e-01
5.210282418e-01,1.34197e-02,9.99999e-01,9.99999e-01,1.34197e-02,9.99999e-01
5.236333830e-01,1.46125e-02,9.99999e-01,9.99999e-01,1.46125e-02,9.99999e-01
5.262515499e-01,1.58846e-02,9.99999e-01,9.99999e-01,1.58846e-02,9.99999e-01
5.288828077e-01,1.72390e-02,9.99999e-01,9.99999e-01,1.72390e-02,9.99999e-01
5.315272217e-01,1.86786e-02,9.99999e-01,9.99999e-01,1.86786e-02,9.99999e-01
5.341848578e-01,2.02064e-02,9.99999e-01,9.99999e-01,2.02064e-02,9.99999e-01
5.368557821e-01,2.18253e-02,9.99999e-01,9.99999e-01,2.18253e-02,9.99999e-01
5.395400610e-01,2.35380e-02,9.99999e-01,9.99999e-01,2.35380e-02,9.99999e-01
5.422377613e-01,2.53473e-02,9.99999e-01,9.99999e-01,2.53473e-02,9.99999e-01
5.449489501e-01,2.72557e-02,9.99999e-01,9.99999e-01,2.72557e-02,9.99999e-01
5.476736949e-01,2.92659e-02,9.99999e-01,9.99999e-01,2.92659e-02,9.99999e-01
5.504120634e-01,3.13801e-02,9.99999e-01,9.99999e-01,3.13801e-02,9.99999e-01
5.531641237e-01,3.36008e-02,9.99999e-01,9.99999e-01,3.36008e-02,9.99999e-01
5.559299443e-01,3.59300e-02,9.99999e-01,9.99999e-01,3.59300e-02,9.99999e-01
5.587095940e-01,3.83699e-02,9.99999e-01,9.99999e-01,3.83699e-02,9.99999e-01
5.615031420e-01,4.09223e-02,9.99999e-01,9.99999e-01,4.09223e-02,9.99999e-01
5.643106577e-01,4.35891e-02,9.99999e-01,9.99999e-01,4.35891e-02,9.99999e-01
5.671322110e-01,4.63717e-02,9.99999e-01,9.99999e-01,4.63717e-02,9.99999e-01
5.699678720e-01,4.92718e-02,9.99999e-01,9.99999e-01,4.92718e-02,9.99999e-01
5.728177114e-01,5.22905e-02,9.99999e-01,9.99999e-01,5.22905e-02,9.99999e-01
5.756818000e-01,5.54290e-02,9.99999e-01,9.99999e-01,5.54290e-02,9.99999e-01
5.785602090e-01,5.86882e-02,9.99999e-01,9.99999e-01,5.86882e-02,9.99999e-01
5.814530100e-01,6.20691e-02,9.99999e-01,9.99999e-01,6.20691e-02,9.99999e-01
5.843602750e-01,6.55721e-02,9.99999e-01,9.99999e-01,6.55721e-02,9.99999e-01
5.872820764e-01,6.91977e-02,9.99999e-01,9.99999e-01,6.91977e-02,9.99999e-01
5.902184868e-01,7.29462e-02,9.99999e-01,9.99999e-01,7.29462e-02,9.99999e-01
5.931695792e-01,7.68177e-02,9.99999e-01,9.99999e-01,7.68177e-02,9.99999e-01
5.961354271e-01,8.08121e-02,9.99999e-01,9.99999e-01,8.08121e-02,9.99999e-01
5.991161043e-01,8.49290e-02,9.99999e-01,9.99999e-01,8.49290e-02,9.99999e-01
6.021116848e-01,8.91682e-02,9.99999e-01,9.99999e-01,8.91682e-02,9.99999e-01
6.051222432e-01,9.35289e-02,9.99999e-01,9.99999e-01,9.35289e-02,9.99999e-01
6.081478544e-01,9.80104e-02,9.99999e-01,9.99999e-01,9.80104e-02,9.99999e-01
6.111885937e-01,1.02612e-01,9.99999e-01,9.99999e-01,1.02612e-01,9.99999e-01
6.142445367e-01,1.07332e-01,9.99999e-01,9.99999e-01,1.07332e-01,9.99999e-01
6.173157594e-01,1.12169e-01,9.99999e-01,9.99999e-01,1.12169e-01,9.99999e-01
6.204023382e-01,1.17123e-01,9.99999e-01,9.99999e-01,1.17123e-01,9.99999e-01
6.235043498e-01,1.22191e-01,9.99999e-01,9.99999e-01,1.22191e-01,9.99999e-01
6.266218716e-01,1.27371e-01,9.99999e-01,9.99999e-01,1.27371e-01,9.99999e-01
6.297549810e-01,1.32663e-01,9.99999e-01,9.99999e-01,1.32663e-01,9.99999e-01
6.329037559e-01,1.38063e-01,9.99999e-01,9.99999e-01,1.38063e-01,9.99999e-01
6.360682746e-01,1.43569e-01,9.99999e-01,9.99999e-01,1.43569e-01,9.99999e-01
6.392486160e-01,1.49180e-01,9.99999e-01,9.99999e-01,1.49180e-01,9.99999e-01
6.424448591e-01,1.54893e-01,9.99999e-01,9.99999e-01,1.54893e-01,9.99999e-01
6.456570834e-01,1.60706e-01,9.99999e-01,9.99999e-01,1.60706e-01,9.99999e-01
6.488853688e-01,1.66615e-01,9.99999e-01,9.99999e-01,1.66615e-01,9.99999e-01
6.521297956e-01,1.72619e-01,9.99999e-01,9.99999e-01,1.72619e-01,9.99999e-01
6.553904446e-01,1.78713e-01,9.99999e-01,9.99999e-01,1.78713e-01,9.99999e-01
6.586673968e-01,1.84897e-01,9.99999e-01,9.99999e-01,1.84897e-01,9.99999e-01
6.619607338e-01,1.91165e-01,9.99999e-01,9.99999e-01,1.91165e-01,9.99999e-01
6.652705375e-01,1.97516e-01,9.99999e-01,9.99999e-01,1.97516e-01,9.99999e-01
6.685968902e-01,2.03947e-01,9.99999e-01,9.99999e-01,2.03947e-01,9.99999e-01
6.719398746e-01,2.10453e-01,9.99999e-01,9.99999e-01,2.10453e-01,9.99999e-01
6.752995740e-01,2.17032e-01,9.99999e-01,9.99999e-01,2.17032e-01,9.99999e-01
6.786760719e-01,2.23681e-01,9.99999e-01,9.99999e-01,2.23681e-01,9.99999e-01
6.820694522e-01,2.30397e-01,9.99999e-01,9.99999e-01,2.30397e-01,9.99999e-01
6.854797995e-01,2.37175e-01,9.99999e-01,9.99999e-01,2.37175e-01,9.99999e-01
6.889071985e-01,2.44013e-01,9.99999e-01,9.99999e-01,2.44013e-01,9.99999e-01
6.923517345e-01,2.50907e-01,9.99999e-01,9.99999e-01,2.50907e-01,9.99999e-01
6.958134932e-01,2.57854e-01,9.99999e-01,9.99999e-01,2.57854e-01,9.99999e-01
6.992925606e-01,2.64851e-01,9.99999e-01,9.99999e-01,2.64851e-01,9.99999e-01
7.027890234e-01,2.71893e-01,9.99999e-01,9.99999e-01,2.71893e-01,9.99999e-01
7.063029686e-01,2.78978e-01,9.99999e-01,9.99999e-01,2.78978e-01,9.99999e-01
7.098344834e-01,2.86102e-01,9.99999e-01,9.99999e-01,2.86102e-01,9.99999e-01
7.133836558e-01,2.93262e-01,9.99999e-01,9.99999e-01,2.93262e-01,9.99999e-01
7.169505741e-01,3.00455e-01,9.99999e-01,9.99999e-01,3.00455e-01,9.99999e-01
7.205353270e-01,3.07677e-01,9.99999e-01,9.99999e-01,3.07677e-01,9.99999e-01
7.241380036e-01,3.14924e-01,9.99999e-01,9.99999e-01,3.14924e-01,9.99999e-01
7.277586936e-01,3.22194e-01,9.99999e-01,9.99999e-01,3.22194e-01,9.99999e-01
7.313974871e-01,3.29483e-01,9.99999e-01,9.99999e-01,3.29483e-01,9.99999e-01
7.350544745e-01,3.36789e-01,9.99999e-01,9.99999e-01,3.36789e-01,9.99999e-01
7.387297469e-01,3.44107e-01,9.99999e-01,9.99999e-01,3.44107e-01,9.99999e-01
7.424233956e-01,3.51435e-01,9.99999e-01,9.99999e-01,3.51435e-01,9.99999e-01
7.461355126e-01,3.58769e-01,9.99999e-01,9.99999e-01,3.58769e-01,9.99999e-01
7.498661902e-01,3.66108e-01,9.99999e-01,9.99999e-01,3.66108e-01,9.99999e-01
7.536155211e-01,3.73447e-01,9.99999e-01,9.99999e-01,3.73447e-01,9.99999e-01
7.573835987e-01,3.80784e-01,9.99999e-01,9.99999e-01,3.80784e-01,9.99999e-01
7.611705167e-01,3.88115e-01,9.99999e-01,9.99999e-01,3.88115e-01,9.99999e-01
7.649763693e-01,3.95439e-01,9.99999e-01,9.99999e-01,3.95439e-01,9.99999e-01
7.688012511e-01,4.02753e-01,9.99999e-01,9.99999e-01,4.02753e-01,9.99999e-01
7.726452574e-01,4.10053e-01,9.99999e-01,9.99999e-01,4.10053e-01,9.99999e-01
7.765084837e-01,4.17338e-01,9.99999e-01,9.99999e-01,4.17338e-01,9.99999e-01
7.803910261e-01,4.08133e-01,9.99999e-01,9.61209e-01,4.24604e-01,9.99999e-01
7.842929812e-01,3.60575e-01,9.99999e-01,8.34956e-01,4.31849e-01,9.99999e-01
7.882144461e-01,3.62254e-01,9.99999e-01,8.25045e-01,4.39071e-01,9.99999e-01
7.921555184e-01,3.98682e-01,9.99999e-01,8.93367e-01,4.46268e-01,9.99999e-01
7.961162960e-01,4.20324e-01,9.99999e-01,9.26971e-01,4.53437e-01,9.99999e-01
8.000968774e-01,4.42042e-01,9.99999e-01,9.59758e-01,4.60577e-01,9.99999e-01
8.040973618e-01,4.57819e-01,9.99999e-01,9.78906e-01,4.67684e-01,9.99999e-01
8.081178486e-01,4.70144e-01,9.99999e-01,9.90281e-01,4.74757e-01,9.99999e-01
8.121584379e-01,4.80339e-01,9.99999e-01,9.96977e-01,4.81795e-01,9.99999e-01
8.162192301e-01,4.88468e-01,9.99999e-01,9.99331e-01,4.88795e-01,9.99999e-01
8.203003262e-01,4.95750e-01,9.99999e-01,9.99989e-01,4.95755e-01,9.99999e-01
8.244018279e-01,5.02674e-01,9.99999e-01,9.99999e-01,5.02674e-01,9.99999e-01
8.285238370e-01,5.09550e-01,9.99999e-01,9.99999e-01,5.09550e-01,9.99999e-01
8.326664562e-01,5.16381e-01,9.99999e-01,9.99999e-01,5.16381e-01,9.99999e-01
8.368297885e-01,5.23166e-01,9.99999e-01,9.99999e-01,5.23166e-01,9.99999e-01
8.410139374e-01,5.29904e-01,9.99999e-01,9.99999e-01,5.29904e-01,9.99999e-01
8.452190071e-01,5.36593e-01,9.99999e-01,9.99999e-01,5.36593e-01,9.99999e-01
8.494451021e-01,5.43232e-01,9.99999e-01,9.99999e-01,5.43232e-01,9.99999e-01
8.536923276e-01,5.49819e-01,9.99999e-01,9.99999e-01,5.49819e-01,9.99999e-01
8.579607893e-01,5.56354e-01,9.99999e-01,9.99999e-01,5.56354e-01,9.99999e-01
8.622505932e-01,5.62835e-01,9.99999e-01,9.99999e-01,5.62835e-01,9.99999e-01
8.665618462e-01,5.22900e-01,9.99999e-01,9.18557e-01,5.69261e-01,9.99999e-01
8.708946554e-01,3.65196e-01,9.99999e-01,6.34425e-01,5.75632e-01,9.99999e-01
8.752491287e-01,4.02458e-01,9.99999e-01,6.91572e-01,5.81946e-01,9.99999e-01
8.796253743e-01,4.79944e-01,9.99999e-01,8.15949e-01,5.88202e-01,9.99999e-01
8.840235012e-01,5.34809e-01,9.99999e-01,8.99745e-01,5.94401e-01,9.99999e-01
8.884436187e-01,5.75996e-01,9.99999e-01,9.59129e-01,6.00540e-01,9.99999e-01
8.928858368e-01,5.96464e-01,9.99999e-01,9.83258e-01,6.06619e-01,9.99999e-01
8.973502660e-01,6.10125e-01,9.99999e-01,9.95896e-01,6.12638e-01,9.99999e-01
9.018370173e-01,6.18316e-01,9.99999e-01,9.99546e-01,6.18596e-01,9.99999e-01
9.063462024e-01,6.17385e-01,9.99999e-01,9.88617e-01,6.24493e-01,9.99999e-01
9.108779334e-01,6.13775e-01,9.99999e-01,9.73739e-01,6.30328e-01,9.99999e-01
9.154323231e-01,6.32123e-01,9.99999e-01,9.93747e-01,6.36100e-01,9.99999e-01
9.200094847e-01,5.87198e-01,9.99999e-01,9.14909e-01,6.41810e-01,9.99999e-01
9.246095321e-01,5.68461e-01,9.99999e-01,8.77991e-01,6.47456e-01,9.99999e-01
9.292325798e-01,5.90128e-01,9.99999e-01,9.03663e-01,6.53040e-01,9.99999e-01
9.338787427e-01,5.96789e-01,9.99999e-01,9.06204e-01,6.58559e-01,9.99999e-01
9.385481364e-01,6.17627e-01,9.99999e-01,9.30139e-01,6.64015e-01,9.99999e-01
9.432408771e-01,6.40324e-01,9.99999e-01,9.56553e-01,6.69407e-01,9.99999e-01
9.479570815e-01,6.59552e-01,9.99999e-01,9.77497e-01,6.74735e-01,9.99999e-01
9.526968669e-01,6.72574e-01,9.99999e-01,9.89079e-01,6.79999e-01,9.99999e-01
9.574603512e-01,6.81989e-01,9.99999e-01,9.95314e-01,6.85199e-01,9.99999e-01
9.622476530e-01,6.89325e-01,9.99999e-01,9.98535e-01,6.90335e-01,9.99999e-01
9.670588912e-01,6.95101e-01,9.99999e-01,9.99560e-01,6.95407e-01,9.99999e-01
9.718941857e-01,7.00392e-01,9.99999e-01,9.99968e-01,7.00414e-01,9.99999e-01
9.767536566e-01,7.05358e-01,9.99999e-01,9.99999e-01,7.05358e-01,9.99999e-01
9.816374249e-01,7.10238e-01,9.99999e-01,9.99999e-01,7.10238e-01,9.99999e-01
9.865456120e-01,7.15054e-01,9.99999e-01,9.99999e-01,7.15054e-01,9.99999e-01
9.914783401e-01,7.19807e-01,9.99999e-01,9.99999e-01,7.19807e-01,9.99999e-01
9.964357318e-01,7.24497e-01,9.99999e-01,9.99999e-01,7.24497e-01,9.99999e-01
1.001417910e+00,7.29124e-01,9.99999e-01,9.99999e-01,7.29124e-01,9.99999e-01
1.006425000e+00,7.33688e-01,9.99999e-01,9.99999e-01,7.33688e-01,9.99999e-01
1.011457125e+00,7.38189e-01,9.99999e-01,9.99999e-01,7.38189e-01,9.99999e-01
1.016514411e+00,7.42629e-01,9.99999e-01,9.99999e-01,7.42629e-01,9.99999e-01
1.021596983e+00,7.46963e-01,9.99999e-01,9.99941e-01,7.47006e-01,9.99999e-01
1.026704968e+00,7.47981e-01,9.99999e-01,9.95551e-01,7.51322e-01,9.99999e-01
1.031838492e+00,7.19003e-01,9.99999e-01,9.51593e-01,7.55578e-01,9.99999e-01
1.036997685e+00,9.90052e-02,9.99999e-01,1.30309e-01,7.59772e-01,9.99999e-01
1.042182673e+00,6.24940e-02,9.99999e-01,8.18084e-02,7.63906e-01,9.99999e-01
1.047393587e+00,8.24244e-02,9.99999e-01,1.07326e-01,7.67981e-01,9.99999e-01
1.052630555e+00,1.27219e-03,9.99999e-01,1.64792e-03,7.71996e-01,9.99999e-01
1.057893707e+00,3.51052e-03,9.99999e-01,4.52414e-03,7.75952e-01,9.99999e-01
1.063183176e+00,1.43252e-02,9.99999e-01,1.83691e-02,7.79850e-01,9.99999e-01
1.068499092e+00,4.72232e-02,9.99999e-01,6.02574e-02,7.83689e-01,9.99999e-01
1.073841587e+00,1.32728e-01,9.99999e-01,1.68550e-01,7.87472e-01,9.99999e-01
1.079210795e+00,2.56163e-01,9.99999e-01,3.23766e-01,7.91197e-01,9.99999e-01
1.084606849e+00,4.26152e-01,9.99999e-01,5.36131e-01,7.94865e-01,9.99999e-01
1.090029883e+00,5.77595e-01,9.99999e-01,7.23369e-01,7.98478e-01,9.99999e-01
1.095480033e+00,6.83634e-01,9.99999e-01,8.52372e-01,8.02035e-01,9.99999e-01
1.100957433e+00,7.45854e-01,9.99999e-01,9.25907e-01,8.05538e-01,9.99999e-01
1.106462220e+00,7.83622e-01,9.99999e-01,9.68646e-01,8.08986e-01,9.99999e-01
1.111994531e+00,8.02845e-01,9.99999e-01,9.88261e-01,8.12380e-01,9.99999e-01
1.117554504e+00,8.13369e-01,9.99999e-01,9.97116e-01,8.15721e-01,9.99999e-01
1.123142276e+00,8.18854e-01,9.99999e-01,9.99809e-01,8.19010e-01,9.99999e-01
1.128757988e+00,8.22246e-01,9.99999e-01,9.99999e-01,8.22246e-01,9.99999e-01
1.134401778e+00,8.25431e-01,9.99999e-01,9.99999e-01,8.25431e-01,9.99999e-01
1.140073787e+00,8.28565e-01,9.99999e-01,9.99999e-01,8.28565e-01,9.99999e-01
1.145774156e+00,8.31648e-01,9.99999e-01,9.99999e-01,8.31648e-01,9.99999e-01
1.151503026e+00,8.34682e-01,9.99999e-01,9.99999e-01,8.34682e-01,9.99999e-01
1.157260541e+00,8.37667e-01,9.99999e-01,9.99999e-01,8.37667e-01,9.99999e-01
1.163046844e+00,8.40603e-01,9.99999e-01,9.99999e-01,8.40603e-01,9.99999e-01
1.168862078e+00,8.43491e-01,9.99999e-01,9.99999e-01,8.43491e-01,9.99999e-01
1.174706389e+00,8.46331e-01,9.99999e-01,9.99999e-01,8.46331e-01,9.99999e-01
1.180579921e+00,8.49125e-01,9.99999e-01,9.99999e-01,8.49125e-01,9.99999e-01
1.186482820e+00,8.51867e-01,9.99999e-01,9.99992e-01,8.51873e-01,9.99999e-01
1.192415234e+00,8.41151e-01,9.99999e-01,9.84292e-01,8.54574e-01,9.99999e-01
1.198377311e+00,4.77500e-01,9.99999e-01,5.57026e-01,8.57231e-01,9.99999e-01
1.204369197e+00,5.19917e-13,9.99999e-01,6.04664e-13,8.59844e-01,9.99999e-01
1.210391043e+00,1.76197e-48,9.99999e-01,2.04307e-48,8.62412e-01,9.99999e-01
1.216442998e+00,3.87499e-42,9.99999e-01,4.48007e-42,8.64937e-01,9.99999e-01
1.222525213e+00,1.58655e-41,9.99999e-01,1.82905e-41,8.67420e-01,9.99999e-01
1.228637839e+00,3.63679e-32,9.99999e-01,4.18089e-32,8.69860e-01,9.99999e-01
1.234781029e+00,1.20624e-20,9.99999e-01,1.38289e-20,8.72259e-01,9.99999e-01
1.240954934e+00,6.44850e-14,9.99999e-01,7.37293e-14,8.74617e-01,9.99999e-01
1.247159708e+00,1.60285e-07,9.99999e-01,1.82779e-07,8.76934e-01,9.99999e-01
1.253395507e+00,6.38901e-05,9.99999e-01,7.26674e-05,8.79212e-01,9.99999e-01
1.259662485e+00,3.70762e-03,9.99999e-01,4.20627e-03,8.81450e-01,9.99999e-01
1.265960797e+00,3.75034e-02,9.99999e-01,4.24415e-02,8.83650e-01,9.99999e-01
1.272290601e+00,2.06378e-01,9.99999e-01,2.32981e-01,8.85812e-01,9.99999e-01
1.278652054e+00,1.96613e-01,9.99999e-01,2.21427e-01,8.87936e-01,9.99999e-01
1.285045314e+00,3.83913e-03,9.99999e-01,4.31351e-03,8.90023e-01,9.99999e-01
1.291470541e+00,2.40897e-06,9.99999e-01,2.70041e-06,8.92073e-01,9.99999e-01
1.297927893e+00,2.00710e-03,9.99999e-01,2.24486e-03,8.94088e-01,9.99999e-01
1.304417533e+00,7.61717e-02,9.99999e-01,8.50066e-02,8.96067e-01,9.99999e-01
1.310939621e+00,1.84320e-02,9.99999e-01,2.05254e-02,8.98012e-01,9.99999e-01
1.317494319e+00,4.26112e-17,9.99999e-01,4.73498e-17,8.99922e-01,9.99999e-01
1.324081790e+00,1.04488e-11,9.99999e-01,1.15866e-11,9.01798e-01,9.99999e-01
1.330702199e+00,6.28898e-07,9.99999e-01,6.95959e-07,9.03641e-01,9.99999e-01
1.337355710e+00,1.05982e-06,9.99999e-01,1.17048e-06,9.05452e-01,9.99999e-01
1.344042489e+00,3.45162e-07,9.99999e-01,3.80457e-07,9.07230e-01,9.99999e-01
1.350762701e+00,3.70514e-07,9.99999e-01,4.07617e-07,9.08976e-01,9.99999e-01
1.357516515e+00,8.08065e-05,9.99999e-01,8.87309e-05,9.10691e-01,9.99999e-01
1.364304097e+00,1.90379e-03,9.99999e-01,2.08662e-03,9.12376e-01,9.99999e-01
1.371125618e+00,3.70544e-02,9.99999e-01,4.05395e-02,9.14030e-01,9.99999e-01
1.377981246e+00,6.45583e-02,9.99999e-01,7.05051e-02,9.15654e-01,9.99999e-01
1.384871152e+00,1.95981e-01,9.99999e-01,2.13661e-01,9.17249e-01,9.99999e-01
1.391795508e+00,2.20540e-01,9.99999e-01,2.40026e-01,9.18815e-01,9.99999e-01
1.398754485e+00,3.80795e-01,9.99999e-01,4.13748e-01,9.20353e-01,9.99999e-01
1.405748258e+00,4.81634e-01,9.99999e-01,5.22457e-01,9.21863e-01,9.99999e-01
1.412776999e+00,6.12380e-01,9.99999e-01,6.63217e-01,9.23346e-01,9.99999e-01
1.419840884e+00,5.51715e-01,9.99999e-01,5.96576e-01,9.24802e-01,9.99999e-01
1.426940089e+00,4.49203e-02,9.99999e-01,4.84979e-02,9.26231e-01,9.99999e-01
1.434074789e+00,0.00000e+00,9.99999e-01,0.00000e+00,9.27634e-01,9.99999e-01
1.441245163e+00,0.00000e+00,9.99999e-01,0.00000e+00,9.29011e-01,9.99999e-01
1.448451389e+00,0.00000e+00,9.99999e-01,0.00000e+00,9.30363e-01,9.99999e-01
1.455693646e+00,0.00000e+00,9.99999e-01,0.00000e+00,9.31691e-01,9.99999e-01
1.462972114e+00,6.69116e-190,9.99999e-01,7.17170e-190,9.32994e-01,9.99999e-01
1.470286975e+00,1.83060e-79,9.99999e-01,1.95938e-79,9.34273e-01,9.99999e-01
