#,Wave/freq,Total,O2,CO2,Rayleigh,CIA
4.000000000e-01,1.29792e-10,9.99999e-01,9.99999e-01,1.29792e-10,9.99999e-01
4.020000000e-01,2.03582e-10,9.99999e-01,9.99999e-01,2.03582e-10,9.99999e-01
4.040100000e-01,3.16349e-10,9.99999e-01,9.99999e-01,3.16349e-10,9.99999e-01
4.060300500e-01,4.87317e-10,9.99999e-01,9.99999e-01,4.87317e-10,9.99999e-01
4.080602003e-01,7.44304e-10,9.99999e-01,9.99999e-01,7.44304e-10,9.99999e-01
4.101005013e-01,1.12734e-09,9.99999e-01,9.99999e-01,1.12734e-09,9.99999e-01
4.121510038e-01,1.69356e-09,9.99999e-01,9.99999e-01,1.69356e-09,9.99999e-01
4.142117588e-01,2.52379e-09,9.99999e-01,9.99999e-01,2.52379e-09,9.99999e-01
4.162828176e-01,3.73150e-09,9.99999e-01,9.99999e-01,3.73150e-09,9.99999e-01
4.183642317e-01,5.47469e-09,9.99999e-01,9.99999e-01,5.47469e-09,9.99999e-01
4.204560528e-01,7.97164e-09,9.99999e-01,9.99999e-01,7.97164e-09,9.99999e-01
4.225583331e-01,1.15216e-08,9.99999e-01,9.99999e-01,1.15216e-08,9.99999e-01
4.246711247e-01,1.65317e-08,9.99999e-01,9.99999e-01,1.65317e-08,9.99999e-01
4.267944804e-01,2.35518e-08,9.99999e-01,9.99999e-01,2.35518e-08,9.99999e-01
4.289284528e-01,3.33193e-08,9.99999e-01,9.99999e-01,3.33193e-08,9.99999e-01
4.310730950e-01,4.68156e-08,9.99999e-01,9.99999e-01,4.68156e-08,9.99999e-01
4.332284605e-01,6.53385e-08,9.99999e-01,9.99999e-01,6.53385e-08,9.99999e-01
4.353946028e-01,9.05914e-08,9.99999e-01,9.99999e-01,9.05914e-08,9.99999e-01
4.375715758e-01,1.24796e-07,9.99999e-01,9.99999e-01,1.24796e-07,9.99999e-01
4.397594337e-01,1.70832e-07,9.99999e-01,9.99999e-01,1.70832e-07,9.99999e-01
4.419582309e-01,2.32404e-07,9.99999e-01,9.99999e-01,2.32404e-07,9.99999e-01
4.441680220e-01,3.14250e-07,9.99999e-01,9.99999e-01,3.14250e-07,9.99999e-01
4.463888621e-01,4.22397e-07,9.99999e-01,9.99999e-01,4.22397e-07,9.99999e-01
4.486208064e-01,5.64454e-07,9.99999e-01,9.99999e-01,5.64454e-07,9.99999e-01
4.508639105e-01,7.49980e-07,9.99999e-01,9.99999e-01,7.49980e-07,9.99999e-01
4.531182300e-01,9.90906e-07,9.99999e-01,9.99999e-01,9.90906e-07,9.99999e-01
4.553838212e-01,1.30204e-06,9.99999e-01,9.99999e-01,1.30204e-06,9.99999e-01
4.576607403e-01,1.70167e-06,9.99999e-01,9.99999e-01,1.70167e-06,9.99999e-01
4.599490440e-01,2.21223e-06,9.99999e-01,9.99999e-01,2.21223e-06,9.99999e-01
4.622487892e-01,2.86111e-06,9.99999e-01,9.99999e-01,2.86111e-06,9.99999e-01
4.645600332e-01,3.68156e-06,9.99999e-01,9.99999e-01,3.68156e-06,9.99999e-01
4.668828333e-01,4.71374e-06,9.99999e-01,9.99999e-01,4.71374e-06,9.99999e-01
4.692172475e-01,6.00593e-06,9.99999e-01,9.99999e-01,6.00593e-06,9.99999e-01
4.715633337e-01,7.61581e-06,9.99999e-01,9.99999e-01,7.61581e-06,9.99999e-01
4.739211504e-01,9.61203e-06,9.99999e-01,9.99999e-01,9.61203e-06,9.99999e-01
4.762907561e-01,1.20758e-05,9.99999e-01,9.99999e-01,1.20758e-05,9.99999e-01
4.786722099e-01,1.51029e-05,9.99999e-01,9.99999e-01,1.51029e-05,9.99999e-01
4.810655710e-01,1.88056e-05,9.99999e-01,9.99999e-01,1.88056e-05,9.99999e-01
4.834708988e-01,2.33148e-05,9.99999e-01,9.99999e-01,2.33148e-05,9.99999e-01
4.858882533e-01,2.87827e-05,9.99999e-01,9.99999e-01,2.87827e-05,9.99999e-01
4.883176946e-01,3.53855e-05,9.99999e-01,9.99999e-01,3.53855e-05,9.99999e-01
4.907592831e-01,4.33258e-05,9.99999e-01,9.99999e-01,4.33258e-05,9.99999e-01
4.932130795e-01,5.28363e-05,9.99999e-01,9.99999e-01,5.28363e-05,9.99999e-01
4.956791449e-01,6.41822e-05,9.99999e-01,9.99999e-01,6.41822e-05,9.99999e-01
4.981575406e-01,7.76656e-05,9.99999e-01,9.99999e-01,7.76656e-05,9.99999e-01
5.006483283e-01,9.36282e-05,9.99999e-01,9.99999e-01,9.36282e-05,9.99999e-01
5.031515699e-01,1.12456e-04,9.99999e-01,9.99999e-01,1.12456e-04,9.99999e-01
5.056673278e-01,1.34581e-04,9.99999e-01,9.99999e-01,1.34581e-04,9.99999e-01
5.081956644e-01,1.60489e-04,9.99999e-01,9.99999e-01,1.60489e-04,9.99999e-01
5.107366428e-01,1.90721e-04,9.99999e-01,9.99999e-01,1.90721e-04,9.99999e-01
5.132903260e-01,2.25876e-04,9.99999e-01,9.99999e-01,2.25876e-04,9.99999e-01
5.158567776e-01,2.66618e-04,9.99999e-01,9.99999e-01,2.66618e-04,9.99999e-01
5.184360615e-01,3.13680e-04,9.99999e-01,9.99999e-01,3.13680e-04,9.99999e-01
5.210282418e-01,3.67867e-04,9.99999e-01,9.99999e-01,3.67867e-04,9.99999e-01
5.236333830e-01,4.30057e-04,9.99999e-01,9.99999e-01,4.30057e-04,9.99999e-01
5.262515499e-01,5.01213e-04,9.99999e-01,9.99999e-01,5.01213e-04,9.99999e-01
5.288828077e-01,5.82379e-04,9.99999e-01,9.99999e-01,5.82379e-04,9.99999e-01
5.315272217e-01,6.74684e-04,9.99999e-01,9.99999e-01,6.74684e-04,9.99999e-01
5.341848578e-01,7.79352e-04,9.99999e-01,9.99999e-01,7.79352e-04,9.99999e-01
5.368557821e-01,8.97697e-04,9.99999e-01,9.99999e-01,8.97697e-04,9.99999e-01
5.395400610e-01,1.03113e-03,9.99999e-01,9.99999e-01,1.03113e-03,9.99999e-01
5.422377613e-01,1.18116e-03,9.99999e-01,9.99999e-01,1.18116e-03,9.99999e-01
5.449489501e-01,1.34939e-03,9.99999e-01,9.99999e-01,1.34939e-03,9.99999e-01
5.476736949e-01,1.53753e-03,9.99999e-01,9.99999e-01,1.53753e-03,9.99999e-01
5.504120634e-01,1.74739e-03,9.99999e-01,9.99999e-01,1.74739e-03,9.99999e-01
5.531641237e-01,1.98089e-03,9.99999e-01,9.99999e-01,1.98089e-03,9.99999e-01
5.559299443e-01,2.24003e-03,9.99999e-01,9.99999e-01,2.24003e-03,9.99999e-01
5.587095940e-01,2.52693e-03,9.99999e-01,9.99999e-01,2.52693e-03,9.99999e-01
5.615031420e-01,2.84379e-03,9.99999e-01,9.99999e-01,2.84379e-03,9.99999e-01
5.643106577e-01,3.19293e-03,9.99999e-01,9.99999e-01,3.19293e-03,9.99999e-01
5.671322110e-01,3.57675e-03,9.99999e-01,9.99999e-01,3.57675e-03,9.99999e-01
5.699678720e-01,3.99773e-03,9.99999e-01,9.99999e-01,3.99773e-03,9.99999e-01
5.728177114e-01,4.45844e-03,9.99999e-01,9.99999e-01,4.45844e-03,9.99999e-01
5.756818000e-01,4.96155e-03,9.99999e-01,9.99999e-01,4.96155e-03,9.99999e-01
5.785602090e-01,5.50979e-03,9.99999e-01,9.99999e-01,5.50979e-03,9.99999e-01
5.814530100e-01,6.10595e-03,9.99999e-01,9.99999e-01,6.10595e-03,9.99999e-01
5.843602750e-01,6.75289e-03,9.99999e-01,9.99999e-01,6.75289e-03,9.99999e-01
5.872820764e-01,7.45355e-03,9.99999e-01,9.99999e-01,7.45355e-03,9.99999e-01
5.902184868e-01,8.21087e-03,9.99999e-01,9.99999e-01,8.21087e-03,9.99999e-01
5.931695792e-01,9.02786e-03,9.99999e-01,9.99999e-01,9.02786e-03,9.99999e-01
5.961354271e-01,9.90757e-03,9.99999e-01,9.99999e-01,9.90757e-03,9.99999e-01
5.991161043e-01,1.08531e-02,9.99999e-01,9.99999e-01,1.08531e-02,9.99999e-01
6.021116848e-01,1.18674e-02,9.99999e-01,9.99999e-01,1.18674e-02,9.99999e-01
6.051222432e-01,1.29536e-02,9.99999e-01,9.99999e-01,1.29536e-02,9.99999e-01
6.081478544e-01,1.41148e-02,9.99999e-01,9.99999e-01,1.41148e-02,9.99999e-01
6.111885937e-01,1.53541e-02,9.99999e-01,9.99999e-01,1.53541e-02,9.99999e-01
6.142445367e-01,1.66744e-02,9.99999e-01,9.99999e-01,1.66744e-02,9.99999e-01
6.173157594e-01,1.80788e-02,9.99999e-01,9.99999e-01,1.80788e-02,9.99999e-01
6.204023382e-01,1.95702e-02,9.99999e-01,9.99999e-01,1.95702e-02,9.99999e-01
6.235043498e-01,2.11514e-02,9.99999e-01,9.99999e-01,2.11514e-02,9.99999e-01
6.266218716e-01,2.28254e-02,9.99999e-01,9.99999e-01,2.28254e-02,9.99999e-01
6.297549810e-01,2.45948e-02,9.99999e-01,9.99999e-01,2.45948e-02,9.99999e-01
6.329037559e-01,2.64624e-02,9.99999e-01,9.99999e-01,2.64624e-02,9.99999e-01
6.360682746e-01,2.84306e-02,9.99999e-01,9.99999e-01,2.84306e-02,9.99999e-01
6.392486160e-01,3.05019e-02,9.99999e-01,9.99999e-01,3.05019e-02,9.99999e-01
6.424448591e-01,3.26788e-02,9.99999e-01,9.99999e-01,3.26788e-02,9.99999e-01
6.456570834e-01,3.49633e-02,9.99999e-01,9.99999e-01,3.49633e-02,9.99999e-01
6.488853688e-01,3.73577e-02,9.99999e-01,9.99999e-01,3.73577e-02,9.99999e-01
6.521297956e-01,3.98638e-02,9.99999e-01,9.99999e-01,3.98638e-02,9.99999e-01
6.553904446e-01,4.24836e-02,9.99999e-01,9.99999e-01,4.24836e-02,9.99999e-01
6.586673968e-01,4.52186e-02,9.99999e-01,9.99999e-01,4.52186e-02,9.99999e-01
6.619607338e-01,4.80704e-02,9.99999e-01,9.99999e-01,4.80704e-02,9.99999e-01
6.652705375e-01,5.10404e-02,9.99999e-01,9.99999e-01,5.10404e-02,9.99999e-01
6.685968902e-01,5.41297e-02,9.99999e-01,9.99999e-01,5.41297e-02,9.99999e-01
6.719398746e-01,5.73395e-02,9.99999e-01,9.99999e-01,5.73395e-02,9.99999e-01
6.752995740e-01,6.06705e-02,9.99999e-01,9.99999e-01,6.06705e-02,9.99999e-01
6.786760719e-01,6.41234e-02,9.99999e-01,9.99999e-01,6.41234e-02,9.99999e-01
6.820694522e-01,6.76988e-02,9.99999e-01,9.99999e-01,6.76988e-02,9.99999e-01
6.854797995e-01,7.13970e-02,9.99999e-01,9.99999e-01,7.13970e-02,9.99999e-01
6.889071985e-01,7.52181e-02,9.99999e-01,9.99999e-01,7.52181e-02,9.99999e-01
6.923517345e-01,7.91622e-02,9.99999e-01,9.99999e-01,7.91622e-02,9.99999e-01
6.958134932e-01,8.32290e-02,9.99999e-01,9.99999e-01,8.32290e-02,9.99999e-01
6.992925606e-01,8.74182e-02,9.99999e-01,9.99999e-01,8.74182e-02,9.99999e-01
7.027890234e-01,9.17293e-02,9.99999e-01,9.99999e-01,9.17293e-02,9.99999e-01
7.063029686e-01,9.61615e-02,9.99999e-01,9.99999e-01,9.61615e-02,9.99999e-01
7.098344834e-01,1.00714e-01,9.99999e-01,9.99999e-01,1.00714e-01,9.99999e-01
7.133836558e-01,1.05385e-01,9.99999e-01,9.99999e-01,1.05385e-01,9.99999e-01
7.169505741e-01,1.10175e-01,9.99999e-01,9.99999e-01,1.10175e-01,9.99999e-01
7.205353270e-01,1.15081e-01,9.99999e-01,9.99999e-01,1.15081e-01,9.99999e-01
7.241380036e-01,1.20102e-01,9.99999e-01,9.99999e-01,1.20102e-01,9.99999e-01
7.277586936e-01,1.25237e-01,9.99999e-01,9.99999e-01,1.25237e-01,9.99999e-01
7.313974871e-01,1.30483e-01,9.99999e-01,9.99999e-01,1.30483e-01,9.99999e-01
7.350544745e-01,1.35839e-01,9.99999e-01,9.99999e-01,1.35839e-01,9.99999e-01
7.387297469e-01,1.41303e-01,9.99999e-01,9.99999e-01,1.41303e-01,9.99999e-01
7.424233956e-01,1.46871e-01,9.99999e-01,9.99999e-01,1.46871e-01,9.99999e-01
7.461355126e-01,1.52543e-01,9.99999e-01,9.99999e-01,1.52543e-01,9.99999e-01
7.498661902e-01,1.58315e-01,9.99999e-01,9.99999e-01,1.58315e-01,9.99999e-01
7.536155211e-01,1.64185e-01,9.99999e-01,9.99999e-01,1.64185e-01,9.99999e-01
7.573835987e-01,1.70150e-01,9.99999e-01,9.99999e-01,1.70150e-01,9.99999e-01
7.611705167e-01,1.76208e-01,9.99999e-01,9.99999e-01,1.76208e-01,9.99999e-01
7.649763693e-01,1.82355e-01,9.99999e-01,9.99999e-01,1.82355e-01,9.99999e-01
7.688012511e-01,1.88589e-01,9.99999e-01,9.99999e-01,1.88589e-01,9.99999e-01
7.726452574e-01,1.94907e-01,9.99999e-01,9.99999e-01,1.94907e-01,9.99999e-01
7.765084837e-01,2.01305e-01,9.99999e-01,9.99999e-01,2.01305e-01,9.99999e-01
7.803910261e-01,1.94573e-01,9.99999e-01,9.36435e-01,2.07781e-01,9.99999e-01
7.842929812e-01,1.55257e-01,9.99999e-01,7.24381e-01,2.14331e-01,9.99999e-01
7.882144461e-01,1.57191e-01,9.99999e-01,7.11428e-01,2.20952e-01,9.99999e-01
7.921555184e-01,1.85459e-01,9.99999e-01,8.14700e-01,2.27640e-01,9.99999e-01
7.961162960e-01,2.03972e-01,9.99999e-01,8.70213e-01,2.34393e-01,9.99999e-01
8.000968774e-01,2.23705e-01,9.99999e-01,9.27441e-01,2.41207e-01,9.99999e-01
8.040973618e-01,2.38540e-01,9.99999e-01,9.61548e-01,2.48079e-01,9.99999e-01
8.081178486e-01,2.50471e-01,9.99999e-01,9.82222e-01,2.55004e-01,9.99999e-01
8.121584379e-01,2.60523e-01,9.99999e-01,9.94433e-01,2.61981e-01,9.99999e-01
8.162192301e-01,2.68674e-01,9.99999e-01,9.98767e-01,2.69005e-01,9.99999e-01
8.203003262e-01,2.76067e-01,9.99999e-01,9.99979e-01,2.76073e-01,9.99999e-01
8.244018279e-01,2.83182e-01,9.99999e-01,9.99999e-01,2.83182e-01,9.99999e-01
8.285238370e-01,2.90327e-01,9.99999e-01,9.99999e-01,2.90327e-01,9.99999e-01
8.326664562e-01,2.97507e-01,9.99999e-01,9.99999e-01,2.97507e-01,9.99999e-01
8.368297885e-01,3.04717e-01,9.99999e-01,9.99999e-01,3.04717e-01,9.99999e-01
8.410139374e-01,3.11955e-01,9.99999e-01,9.99999e-01,3.11955e-01,9.99999e-01
8.452190071e-01,3.19216e-01,9.99999e-01,9.99999e-01,3.19216e-01,9.99999e-01
8.494451021e-01,3.26498e-01,9.99999e-01,9.99999e-01,3.26498e-01,9.99999e-01
8.536923276e-01,3.33797e-01,9.99999e-01,9.99999e-01,3.33797e-01,9.99999e-01
8.579607893e-01,3.41110e-01,9.99999e-01,9.99999e-01,3.41110e-01,9.99999e-01
8.622505932e-01,3.48434e-01,9.99999e-01,9.99999e-01,3.48434e-01,9.99999e-01
8.665618462e-01,3.16947e-01,9.99999e-01,8.90885e-01,3.55767e-01,9.99999e-01
8.708946554e-01,1.63597e-01,9.99999e-01,4.50553e-01,3.63104e-01,9.99999e-01
8.752491287e-01,1.91746e-01,9.99999e-01,5.17614e-01,3.70443e-01,9.99999e-01
8.796253743e-01,2.61337e-01,9.99999e-01,6.91769e-01,3.77781e-01,9.99999e-01
8.840235012e-01,3.17488e-01,9.99999e-01,8.24396e-01,3.85115e-01,9.99999e-01
8.884436187e-01,3.63470e-01,9.99999e-01,9.26174e-01,3.92443e-01,9.99999e-01
8.928858368e-01,3.87547e-01,9.99999e-01,9.69446e-01,3.99761e-01,9.99999e-01
8.973502660e-01,4.03992e-01,9.99999e-01,9.92446e-01,4.07067e-01,9.99999e-01
9.018370173e-01,4.14011e-01,9.99999e-01,9.99163e-01,4.14358e-01,9.99999e-01
9.063462024e-01,4.13029e-01,9.99999e-01,9.79596e-01,4.21632e-01,9.99999e-01
9.108779334e-01,4.08452e-01,9.99999e-01,9.52354e-01,4.28886e-01,9.99999e-01
9.154323231e-01,4.31104e-01,9.99999e-01,9.88502e-01,4.36118e-01,9.99999e-01
9.200094847e-01,3.80896e-01,9.99999e-01,8.59178e-01,4.43325e-01,9.99999e-01
9.246095321e-01,3.55146e-01,9.99999e-01,7.88326e-01,4.50506e-01,9.99999e-01
9.292325798e-01,3.81212e-01,9.99999e-01,8.32962e-01,4.57658e-01,9.99999e-01
9.338787427e-01,3.88437e-01,9.99999e-01,8.35745e-01,4.64779e-01,9.99999e-01
9.385481364e-01,4.13313e-01,9.99999e-01,8.75910e-01,4.71866e-01,9.99999e-01
9.432408771e-01,4.41379e-01,9.99999e-01,9.21614e-01,4.78919e-01,9.99999e-01
9.479570815e-01,4.66047e-01,9.99999e-01,9.59074e-01,4.85934e-01,9.99999e-01
9.526968669e-01,4.83069e-01,9.99999e-01,9.80032e-01,4.92911e-01,9.99999e-01
9.574603512e-01,4.95550e-01,9.99999e-01,9.91403e-01,4.99847e-01,9.99999e-01
9.622476530e-01,5.05377e-01,9.99999e-01,9.97308e-01,5.06740e-01,9.99999e-01
9.670588912e-01,5.13175e-01,9.99999e-01,9.99191e-01,5.13590e-01,9.99999e-01
9.718941857e-01,5.20364e-01,9.99999e-01,9.99941e-01,5.20395e-01,9.99999e-01
9.767536566e-01,5.27152e-01,9.99999e-01,9.99999e-01,5.27152e-01,9.99999e-01
9.816374249e-01,5.33861e-01,9.99999e-01,9.99999e-01,5.33861e-01,9.99999e-01
9.865456120e-01,5.40521e-01,9.99999e-01,9.99999e-01,5.40521e-01,9.99999e-01
9.914783401e-01,5.47129e-01,9.99999e-01,9.99999e-01,5.47129e-01,9.99999e-01
9.964357318e-01,5.53686e-01,9.99999e-01,9.99999e-01,5.53686e-01,9.99999e-01
1.001417910e+00,5.60189e-01,9.99999e-01,9.99999e-01,5.60189e-01,9.99999e-01
1.006425000e+00,5.66638e-01,9.99999e-01,9.99999e-01,5.66638e-01,9.99999e-01
1.011457125e+00,5.73031e-01,9.99999e-01,9.99999e-01,5.73031e-01,9.99999e-01
1.016514411e+00,5.79368e-01,9.99999e-01,9.99999e-01,5.79368e-01,9.99999e-01
1.021596983e+00,5.85590e-01,9.99999e-01,9.99898e-01,5.85649e-01,9.99999e-01
1.026704968e+00,5.87114e-01,9.99999e-01,9.91962e-01,5.91871e-01,9.99999e-01
1.031838492e+00,5.55353e-01,9.99999e-01,9.28631e-01,5.98034e-01,9.99999e-01
1.036997685e+00,4.52659e-02,9.99999e-01,7.49263e-02,6.04138e-01,9.99999e-01
1.042182673e+00,8.62039e-03,9.99999e-01,1.41276e-02,6.10182e-01,9.99999e-01
1.047393587e+00,1.76361e-02,9.99999e-01,2.86224e-02,6.16165e-01,9.99999e-01
1.052630555e+00,1.90439e-05,9.99999e-01,3.06129e-05,6.22087e-01,9.99999e-01
1.057893707e+00,6.66670e-05,9.99999e-01,1.06166e-04,6.27947e-01,9.99999e-01
1.063183176e+00,6.95329e-04,9.99999e-01,1.09717e-03,6.33745e-01,9.99999e-01
1.068499092e+00,4.35667e-03,9.99999e-01,6.81282e-03,6.39480e-01,9.99999e-01
1.073841587e+00,2.65103e-02,9.99999e-01,4.10916e-02,6.45153e-01,9.99999e-01
1.079210795e+00,8.67303e-02,9.99999e-01,1.33275e-01,6.50762e-01,9.99999e-01
1.084606849e+00,2.11556e-01,9.99999e-01,3.22342e-01,6.56308e-01,9.99999e-01
1.090029883e+00,3.66592e-01,9.99999e-01,5.53940e-01,6.61790e-01,9.99999e-01
1.095480033e+00,4.98198e-01,9.99999e-01,7.46690e-01,6.67208e-01,9.99999e-01
1.100957433e+00,5.84019e-01,9.99999e-01,8.68349e-01,6.72562e-01,9.99999e-01
1.106462220e+00,6.39341e-01,9.99999e-01,9.43185e-01,6.77852e-01,9.99999e-01
1.111994531e+00,6.68419e-01,9.99999e-01,9.78538e-01,6.83079e-01,9.99999e-01
1.117554504e+00,6.84590e-01,9.99999e-01,9.94695e-01,6.88241e-01,9.99999e-01
1.123142276e+00,6.93095e-01,9.99999e-01,9.99648e-01,6.93338e-01,9.99999e-01
1.128757988e+00,6.98372e-01,9.99999e-01,9.99999e-01,6.98372e-01,9.99999e-01
1.134401778e+00,7.03342e-01,9.99999e-01,9.99999e-01,7.03342e-01,9.99999e-01
1.140073787e+00,7.08248e-01,9.99999e-01,9.99999e-01,7.08248e-01,9.99999e-01
1.145774156e+00,7.13091e-01,9.99999e-01,9.99999e-01,7.13091e-01,9.99999e-01
1.151503026e+00,7.17869e-01,9.99999e-01,9.99999e-01,7.17869e-01,9.99999e-01
1.157260541e+00,7.22585e-01,9.99999e-01,9.99999e-01,7.22585e-01,9.99999e-01
1.163046844e+00,7.27237e-01,9.99999e-01,9.99999e-01,7.27237e-01,9.99999e-01
1.168862078e+00,7.31827e-01,9.99999e-01,9.99999e-01,7.31827e-01,9.99999e-01
1.174706389e+00,7.36354e-01,9.99999e-01,9.99999e-01,7.36354e-01,9.99999e-01
1.180579921e+00,7.40819e-01,9.99999e-01,9.99999e-01,7.40819e-01,9.99999e-01
1.186482820e+00,7.45214e-01,9.99999e-01,9.99988e-01,7.45222e-01,9.99999e-01
1.192415234e+00,7.28783e-01,9.99999e-01,9.72276e-01,7.49563e-01,9.99999e-01
1.198377311e+00,4.04638e-01,9.99999e-01,5.36766e-01,7.53843e-01,9.99999e-01
1.204369197e+00,5.49353e-22,9.99999e-01,7.24680e-22,7.58063e-01,9.99999e-01
1.210391043e+00,4.82268e-87,9.99999e-01,6.32713e-87,7.62221e-01,9.99999e-01
1.216442998e+00,2.06981e-75,9.99999e-01,2.70098e-75,7.66320e-01,9.99999e-01
1.222525213e+00,2.74532e-74,9.99999e-01,3.56369e-74,7.70360e-01,9.99999e-01
1.228637839e+00,2.05821e-57,9.99999e-01,2.65801e-57,7.74340e-01,9.99999e-01
1.234781029e+00,5.45857e-36,9.99999e-01,7.01379e-36,7.78261e-01,9.99999e-01
1.240954934e+00,5.12744e-24,9.99999e-01,6.55577e-24,7.82125e-01,9.99999e-01
1.247159708e+00,6.06218e-12,9.99999e-01,7.71337e-12,7.85930e-01,9.99999e-01
1.253395507e+00,4.57734e-08,9.99999e-01,5.79645e-08,7.89679e-01,9.99999e-01
1.259662485e+00,3.29140e-05,9.99999e-01,4.14862e-05,7.93371e-01,9.99999e-01
1.265960797e+00,3.71687e-03,9.99999e-01,4.66354e-03,7.97006e-01,9.99999e-01
1.272290601e+00,5.96190e-02,9.99999e-01,7.44691e-02,8.00586e-01,9.99999e-01
1.278652054e+00,6.33810e-02,9.99999e-01,7.88211e-02,8.04111e-01,9.99999e-01
1.285045314e+00,2.78776e-04,9.99999e-01,3.45198e-04,8.07581e-01,9.99999e-01
1.291470541e+00,1.27613e-10,9.99999e-01,1.57353e-10,8.10997e-01,9.99999e-01
1.297927893e+00,5.73096e-05,9.99999e-01,7.03737e-05,8.14360e-01,9.99999e-01
1.304417533e+00,9.67430e-03,9.99999e-01,1.18315e-02,8.17670e-01,9.99999e-01
1.310939621e+00,2.42336e-03,9.99999e-01,2.95198e-03,8.20928e-01,9.99999e-01
1.317494319e+00,5.83353e-30,9.99999e-01,7.07838e-30,8.24134e-01,9.99999e-01
1.324081790e+00,6.90819e-20,9.99999e-01,8.35040e-20,8.27288e-01,9.99999e-01
1.330702199e+00,8.12861e-12,9.99999e-01,9.78887e-12,8.30392e-01,9.99999e-01
1.337355710e+00,5.32800e-11,9.99999e-01,6.39272e-11,8.33446e-01,9.99999e-01
1.344042489e+00,2.38970e-11,9.99999e-01,2.85695e-11,8.36451e-01,9.99999e-01
1.350762701e+00,4.21828e-12,9.99999e-01,5.02530e-12,8.39407e-01,9.99999e-01
1.357516515e+00,1.14843e-07,9.99999e-01,1.36342e-07,8.42314e-01,9.99999e-01
1.364304097e+00,1.39976e-05,9.99999e-01,1.65617e-05,8.45174e-01,9.99999e-01
1.371125618e+00,3.01717e-03,9.99999e-01,3.55803e-03,8.47987e-01,9.99999e-01
1.377981246e+00,6.95199e-03,9.99999e-01,8.17156e-03,8.50754e-01,9.99999e-01
1.384871152e+00,5.19374e-02,9.99999e-01,6.08541e-02,8.53474e-01,9.99999e-01
1.391795508e+00,6.43242e-02,9.99999e-01,7.51319e-02,8.56149e-01,9.99999e-01
1.398754485e+00,1.70594e-01,9.99999e-01,1.98646e-01,8.58780e-01,9.99999e-01
1.405748258e+00,2.63832e-01,9.99999e-01,3.06295e-01,8.61366e-01,9.99999e-01
1.412776999e+00,4.07348e-01,9.99999e-01,4.71517e-01,8.63909e-01,9.99999e-01
1.419840884e+00,3.75330e-01,9.99999e-01,4.33201e-01,8.66409e-01,9.99999e-01
1.426940089e+00,1.83708e-02,9.99999e-01,2.11434e-02,8.68866e-01,9.99999e-01
1.434074789e+00,0.00000e+00,9.99999e-01,0.00000e+00,8.71282e-01,9.99999e-01
1.441245163e+00,0.00000e+00,9.99999e-01,0.00000e+00,8.73657e-01,9.99999e-01
1.448451389e+00,0.00000e+00,9.99999e-01,0.00000e+00,8.75991e-01,9.99999e-01
1.455693646e+00,0.00000e+00,9.99999e-01,0.00000e+00,8.78284e-01,9.99999e-01
1.462972114e+00,0.00000e+00,9.99999e-01,0.00000e+00,8.80539e-01,9.99999e-01
1.470286975e+00,7.19541e-144,9.99999e-01,8.15108e-144,8.82754e-01,9.99999e-01
