#,Wave/freq,Total,O2,CO2,Rayleigh,CIA
4.000000000e-01,4.89888e-08,9.99999e-01,9.99999e-01,4.89888e-08,9.99999e-01
4.020000000e-01,6.83336e-08,9.99999e-01,9.99999e-01,6.83336e-08,9.99999e-01
4.040100000e-01,9.46604e-08,9.99999e-01,9.99999e-01,9.46604e-08,9.99999e-01
4.060300500e-01,1.30289e-07,9.99999e-01,9.99999e-01,1.30289e-07,9.99999e-01
4.080602003e-01,1.78198e-07,9.99999e-01,9.99999e-01,1.78198e-07,9.99999e-01
4.101005013e-01,2.42223e-07,9.99999e-01,9.99999e-01,2.42223e-07,9.99999e-01
4.121510038e-01,3.27260e-07,9.99999e-01,9.99999e-01,3.27260e-07,9.99999e-01
4.142117588e-01,4.39532e-07,9.99999e-01,9.99999e-01,4.39532e-07,9.99999e-01
4.162828176e-01,5.86890e-07,9.99999e-01,9.99999e-01,5.86890e-07,9.99999e-01
4.183642317e-01,7.79190e-07,9.99999e-01,9.99999e-01,7.79190e-07,9.99999e-01
4.204560528e-01,1.02872e-06,9.99999e-01,9.99999e-01,1.02872e-06,9.99999e-01
4.225583331e-01,1.35074e-06,9.99999e-01,9.99999e-01,1.35074e-06,9.99999e-01
4.246711247e-01,1.76403e-06,9.99999e-01,9.99999e-01,1.76403e-06,9.99999e-01
4.267944804e-01,2.29167e-06,9.99999e-01,9.99999e-01,2.29167e-06,9.99999e-01
4.289284528e-01,2.96178e-06,9.99999e-01,9.99999e-01,2.96178e-06,9.99999e-01
4.310730950e-01,3.80850e-06,9.99999e-01,9.99999e-01,3.80850e-06,9.99999e-01
4.332284605e-01,4.87301e-06,9.99999e-01,9.99999e-01,4.87301e-06,9.99999e-01
4.353946028e-01,6.20478e-06,9.99999e-01,9.99999e-01,6.20478e-06,9.99999e-01
4.375715758e-01,7.86290e-06,9.99999e-01,9.99999e-01,7.86290e-06,9.99999e-01
4.397594337e-01,9.91763e-06,9.99999e-01,9.99999e-01,9.91763e-06,9.99999e-01
4.419582309e-01,1.24521e-05,9.99999e-01,9.99999e-01,1.24521e-05,9.99999e-01
4.441680220e-01,1.55640e-05,9.99999e-01,9.99999e-01,1.55640e-05,9.99999e-01
4.463888621e-01,1.93682e-05,9.99999e-01,9.99999e-01,1.93682e-05,9.99999e-01
4.486208064e-01,2.39983e-05,9.99999e-01,9.99999e-01,2.39983e-05,9.99999e-01
4.508639105e-01,2.96097e-05,9.99999e-01,9.99999e-01,2.96097e-05,9.99999e-01
4.531182300e-01,3.63818e-05,9.99999e-01,9.99999e-01,3.63818e-05,9.99999e-01
4.553838212e-01,4.45213e-05,9.99999e-01,9.99999e-01,4.45213e-05,9.99999e-01
4.576607403e-01,5.42650e-05,9.99999e-01,9.99999e-01,5.42650e-05,9.99999e-01
4.599490440e-01,6.58830e-05,9.99999e-01,9.99999e-01,6.58830e-05,9.99999e-01
4.622487892e-01,7.96825e-05,9.99999e-01,9.99999e-01,7.96825e-05,9.99999e-01
4.645600332e-01,9.60111e-05,9.99999e-01,9.99999e-01,9.60111e-05,9.99999e-01
4.668828333e-01,1.15260e-04,9.99999e-01,9.99999e-01,1.15260e-04,9.99999e-01
4.692172475e-01,1.37871e-04,9.99999e-01,9.99999e-01,1.37871e-04,9.99999e-01
4.715633337e-01,1.64334e-04,9.99999e-01,9.99999e-01,1.64334e-04,9.99999e-01
4.739211504e-01,1.95198e-04,9.99999e-01,9.99999e-01,1.95198e-04,9.99999e-01
4.762907561e-01,2.31072e-04,9.99999e-01,9.99999e-01,2.31072e-04,9.99999e-01
4.786722099e-01,2.72630e-04,9.99999e-01,9.99999e-01,2.72630e-04,9.99999e-01
4.810655710e-01,3.20612e-04,9.99999e-01,9.99999e-01,3.20612e-04,9.99999e-01
4.834708988e-01,3.75833e-04,9.99999e-01,9.99999e-01,3.75833e-04,9.99999e-01
4.858882533e-01,4.39185e-04,9.99999e-01,9.99999e-01,4.39185e-04,9.99999e-01
4.883176946e-01,5.11638e-04,9.99999e-01,9.99999e-01,5.11638e-04,9.99999e-01
4.907592831e-01,5.94250e-04,9.99999e-01,9.99999e-01,5.94250e-04,9.99999e-01
4.932130795e-01,6.88163e-04,9.99999e-01,9.99999e-01,6.88163e-04,9.99999e-01
4.956791449e-01,7.94611e-04,9.99999e-01,9.99999e-01,7.94611e-04,9.99999e-01
4.981575406e-01,9.14923e-04,9.99999e-01,9.99999e-01,9.14923e-04,9.99999e-01
5.006483283e-01,1.05052e-03,9.99999e-01,9.99999e-01,1.05052e-03,9.99999e-01
5.031515699e-01,1.20293e-03,9.99999e-01,9.99999e-01,1.20293e-03,9.99999e-01
5.056673278e-01,1.37376e-03,9.99999e-01,9.99999e-01,1.37376e-03,9.99999e-01
5.081956644e-01,1.56475e-03,9.99999e-01,9.99999e-01,1.56475e-03,9.99999e-01
5.107366428e-01,1.77771e-03,9.99999e-01,9.99999e-01,1.77771e-03,9.99999e-01
5.132903260e-01,2.01458e-03,9.99999e-01,9.99999e-01,2.01458e-03,9.99999e-01
5.158567776e-01,2.27737e-03,9.99999e-01,9.99999e-01,2.27737e-03,9.99999e-01
5.184360615e-01,2.56821e-03,9.99999e-01,9.99999e-01,2.56821e-03,9.99999e-01
5.210282418e-01,2.88932e-03,9.99999e-01,9.99999e-01,2.88932e-03,9.99999e-01
5.236333830e-01,3.24304e-03,9.99999e-01,9.99999e-01,3.24304e-03,9.99999e-01
5.262515499e-01,3.63176e-03,9.99999e-01,9.99999e-01,3.63176e-03,9.99999e-01
5.288828077e-01,4.05798e-03,9.99999e-01,9.99999e-01,4.05798e-03,9.99999e-01
5.315272217e-01,4.52431e-03,9.99999e-01,9.99999e-01,4.52431e-03,9.99999e-01
5.341848578e-01,5.03339e-03,9.99999e-01,9.99999e-01,5.03339e-03,9.99999e-01
5.368557821e-01,5.58798e-03,9.99999e-01,9.99999e-01,5.58798e-03,9.99999e-01
5.395400610e-01,6.19088e-03,9.99999e-01,9.99999e-01,6.19088e-03,9.99999e-01
5.422377613e-01,6.84495e-03,9.99999e-01,9.99999e-01,6.84495e-03,9.99999e-01
5.449489501e-01,7.55313e-03,9.99999e-01,9.99999e-01,7.55313e-03,9.99999e-01
5.476736949e-01,8.31839e-03,9.99999e-01,9.99999e-01,8.31839e-03,9.99999e-01
5.504120634e-01,9.14374e-03,9.99999e-01,9.99999e-01,9.14374e-03,9.99999e-01
5.531641237e-01,1.00322e-02,9.99999e-01,9.99999e-01,1.00322e-02,9.99999e-01
5.559299443e-01,1.09869e-02,9.99999e-01,9.99999e-01,1.09869e-02,9.99999e-01
5.587095940e-01,1.20108e-02,9.99999e-01,9.99999e-01,1.20108e-02,9.99999e-01
5.615031420e-01,1.31070e-02,9.99999e-01,9.99999e-01,1.31070e-02,9.99999e-01
5.643106577e-01,1.42787e-02,9.99999e-01,9.99999e-01,1.42787e-02,9.99999e-01
5.671322110e-01,1.55288e-02,9.99999e-01,9.99999e-01,1.55288e-02,9.99999e-01
5.699678720e-01,1.68604e-02,9.99999e-01,9.99999e-01,1.68604e-02,9.99999e-01
5.728177114e-01,1.82764e-02,9.99999e-01,9.99999e-01,1.82764e-02,9.99999e-01
5.756818000e-01,1.97799e-02,9.99999e-01,9.99999e-01,1.97799e-02,9.99999e-01
5.785602090e-01,2.13736e-02,9.99999e-01,9.99999e-01,2.13736e-02,9.99999e-01
5.814530100e-01,2.30604e-02,9.99999e-01,9.99999e-01,2.30604e-02,9.99999e-01
5.843602750e-01,2.48430e-02,9.99999e-01,9.99999e-01,2.48430e-02,9.99999e-01
5.872820764e-01,2.67241e-02,9.99999e-01,9.99999e-01,2.67241e-02,9.99999e-01
5.902184868e-01,2.87062e-02,9.99999e-01,9.99999e-01,2.87062e-02,9.99999e-01
5.931695792e-01,3.07917e-02,9.99999e-01,9.99999e-01,3.07917e-02,9.99999e-01
5.961354271e-01,3.29831e-02,9.99999e-01,9.99999e-01,3.29831e-02,9.99999e-01
5.991161043e-01,3.52824e-02,9.99999e-01,9.99999e-01,3.52824e-02,9.99999e-01
6.021116848e-01,3.76919e-02,9.99999e-01,9.99999e-01,3.76919e-02,9.99999e-01
6.051222432e-01,4.02134e-02,9.99999e-01,9.99999e-01,4.02134e-02,9.99999e-01
6.081478544e-01,4.28487e-02,9.99999e-01,9.99999e-01,4.28487e-02,9.99999e-01
6.111885937e-01,4.55995e-02,9.99999e-01,9.99999e-01,4.55995e-02,9.99999e-01
6.142445367e-01,4.84673e-02,9.99999e-01,9.99999e-01,4.84673e-02,9.99999e-01
6.173157594e-01,5.14535e-02,9.99999e-01,9.99999e-01,5.14535e-02,9.99999e-01
6.204023382e-01,5.45591e-02,9.99999e-01,9.99999e-01,5.45591e-02,9.99999e-01
6.235043498e-01,5.77853e-02,9.99999e-01,9.99999e-01,5.77853e-02,9.99999e-01
6.266218716e-01,6.11328e-02,9.99999e-01,9.99999e-01,6.11328e-02,9.99999e-01
6.297549810e-01,6.46024e-02,9.99999e-01,9.99999e-01,6.46024e-02,9.99999e-01
6.329037559e-01,6.81945e-02,9.99999e-01,9.99999e-01,6.81945e-02,9.99999e-01
6.360682746e-01,7.19094e-02,9.99999e-01,9.99999e-01,7.19094e-02,9.99999e-01
6.392486160e-01,7.57472e-02,9.99999e-01,9.99999e-01,7.57472e-02,9.99999e-01
6.424448591e-01,7.97080e-02,9.99999e-01,9.99999e-01,7.97080e-02,9.99999e-01
6.456570834e-01,8.37915e-02,9.99999e-01,9.99999e-01,8.37915e-02,9.99999e-01
6.488853688e-01,8.79973e-02,9.99999e-01,9.99999e-01,8.79973e-02,9.99999e-01
6.521297956e-01,9.23249e-02,9.99999e-01,9.99999e-01,9.23249e-02,9.99999e-01
6.553904446e-01,9.67735e-02,9.99999e-01,9.99999e-01,9.67735e-02,9.99999e-01
6.586673968e-01,1.01342e-01,9.99999e-01,9.99999e-01,1.01342e-01,9.99999e-01
6.619607338e-01,1.06030e-01,9.99999e-01,9.99999e-01,1.06030e-01,9.99999e-01
6.652705375e-01,1.10835e-01,9.99999e-01,9.99999e-01,1.10835e-01,9.99999e-01
6.685968902e-01,1.15757e-01,9.99999e-01,9.99999e-01,1.15757e-01,9.99999e-01
6.719398746e-01,1.20794e-01,9.99999e-01,9.99999e-01,1.20794e-01,9.99999e-01
6.752995740e-01,1.25944e-01,9.99999e-01,9.99999e-01,1.25944e-01,9.99999e-01
6.786760719e-01,1.31205e-01,9.99999e-01,9.99999e-01,1.31205e-01,9.99999e-01
6.820694522e-01,1.36576e-01,9.99999e-01,9.99999e-01,1.36576e-01,9.99999e-01
6.854797995e-01,1.42054e-01,9.99999e-01,9.99999e-01,1.42054e-01,9.99999e-01
6.889071985e-01,1.47636e-01,9.99999e-01,9.99999e-01,1.47636e-01,9.99999e-01
6.923517345e-01,1.53322e-01,9.99999e-01,9.99999e-01,1.53322e-01,9.99999e-01
6.958134932e-01,1.59107e-01,9.99999e-01,9.99999e-01,1.59107e-01,9.99999e-01
6.992925606e-01,1.64990e-01,9.99999e-01,9.99999e-01,1.64990e-01,9.99999e-01
7.027890234e-01,1.70968e-01,9.99999e-01,9.99999e-01,1.70968e-01,9.99999e-01
7.063029686e-01,1.77039e-01,9.99999e-01,9.99999e-01,1.77039e-01,9.99999e-01
7.098344834e-01,1.83198e-01,9.99999e-01,9.99999e-01,1.83198e-01,9.99999e-01
7.133836558e-01,1.89443e-01,9.99999e-01,9.99999e-01,1.89443e-01,9.99999e-01
7.169505741e-01,1.95772e-01,9.99999e-01,9.99999e-01,1.95772e-01,9.99999e-01
7.205353270e-01,2.02181e-01,9.99999e-01,9.99999e-01,2.02181e-01,9.99999e-01
7.241380036e-01,2.08667e-01,9.99999e-01,9.99999e-01,2.08667e-01,9.99999e-01
7.277586936e-01,2.15227e-01,9.99999e-01,9.99999e-01,2.15227e-01,9.99999e-01
7.313974871e-01,2.21857e-01,9.99999e-01,9.99999e-01,2.21857e-01,9.99999e-01
7.350544745e-01,2.28555e-01,9.99999e-01,9.99999e-01,2.28555e-01,9.99999e-01
7.387297469e-01,2.35316e-01,9.99999e-01,9.99999e-01,2.35316e-01,9.99999e-01
7.424233956e-01,2.42138e-01,9.99999e-01,9.99999e-01,2.42138e-01,9.99999e-01
7.461355126e-01,2.49017e-01,9.99999e-01,9.99999e-01,2.49017e-01,9.99999e-01
7.498661902e-01,2.55950e-01,9.99999e-01,9.99999e-01,2.55950e-01,9.99999e-01
7.536155211e-01,2.62933e-01,9.99999e-01,9.99999e-01,2.62933e-01,9.99999e-01
7.573835987e-01,2.69964e-01,9.99999e-01,9.99999e-01,2.69964e-01,9.99999e-01
7.611705167e-01,2.77037e-01,9.99999e-01,9.99999e-01,2.77037e-01,9.99999e-01
7.649763693e-01,2.84151e-01,9.99999e-01,9.99999e-01,2.84151e-01,9.99999e-01
7.688012511e-01,2.91302e-01,9.99999e-01,9.99999e-01,2.91302e-01,9.99999e-01
7.726452574e-01,2.98486e-01,9.99999e-01,9.99999e-01,2.98486e-01,9.99999e-01
7.765084837e-01,3.05700e-01,9.99999e-01,9.99999e-01,3.05700e-01,9.99999e-01
7.803910261e-01,2.96997e-01,9.99999e-01,9.49052e-01,3.12941e-01,9.99999e-01
7.842929812e-01,2.51562e-01,9.99999e-01,7.85627e-01,3.20205e-01,9.99999e-01
7.882144461e-01,2.53289e-01,9.99999e-01,7.73425e-01,3.27489e-01,9.99999e-01
7.921555184e-01,2.87455e-01,9.99999e-01,8.58610e-01,3.34790e-01,9.99999e-01
7.961162960e-01,3.08757e-01,9.99999e-01,9.02519e-01,3.42105e-01,9.99999e-01
8.000968774e-01,3.30534e-01,9.99999e-01,9.45919e-01,3.49431e-01,9.99999e-01
8.040973618e-01,3.46622e-01,9.99999e-01,9.71572e-01,3.56764e-01,9.99999e-01
8.081178486e-01,3.59317e-01,9.99999e-01,9.86858e-01,3.64102e-01,9.99999e-01
8.121584379e-01,3.69924e-01,9.99999e-01,9.95916e-01,3.71441e-01,9.99999e-01
8.162192301e-01,3.78437e-01,9.99999e-01,9.99096e-01,3.78779e-01,9.99999e-01
8.203003262e-01,3.86107e-01,9.99999e-01,9.99985e-01,3.86112e-01,9.99999e-01
8.244018279e-01,3.93438e-01,9.99999e-01,9.99999e-01,3.93438e-01,9.99999e-01
8.285238370e-01,4.00755e-01,9.99999e-01,9.99999e-01,4.00755e-01,9.99999e-01
8.326664562e-01,4.08059e-01,9.99999e-01,9.99999e-01,4.08059e-01,9.99999e-01
8.368297885e-01,4.15348e-01,9.99999e-01,9.99999e-01,4.15348e-01,9.99999e-01
8.410139374e-01,4.22619e-01,9.99999e-01,9.99999e-01,4.22619e-01,9.99999e-01
8.452190071e-01,4.29871e-01,9.99999e-01,9.99999e-01,4.29871e-01,9.99999e-01
8.494451021e-01,4.37100e-01,9.99999e-01,9.99999e-01,4.37100e-01,9.99999e-01
8.536923276e-01,4.44304e-01,9.99999e-01,9.99999e-01,4.44304e-01,9.99999e-01
8.579607893e-01,4.51480e-01,9.99999e-01,9.99999e-01,4.51480e-01,9.99999e-01
8.622505932e-01,4.58628e-01,9.99999e-01,9.99999e-01,4.58628e-01,9.99999e-01
8.665618462e-01,4.20733e-01,9.99999e-01,9.03355e-01,4.65744e-01,9.99999e-01
8.708946554e-01,2.58345e-01,9.99999e-01,5.46383e-01,4.72827e-01,9.99999e-01
8.752491287e-01,2.93044e-01,9.99999e-01,6.10666e-01,4.79875e-01,9.99999e-01
8.796253743e-01,3.70296e-01,9.99999e-01,7.60539e-01,4.86885e-01,9.99999e-01
8.840235012e-01,4.28157e-01,9.99999e-01,8.66967e-01,4.93856e-01,9.99999e-01
8.884436187e-01,4.73319e-01,9.99999e-01,9.45150e-01,5.00787e-01,9.99999e-01
8.928858368e-01,4.96205e-01,9.99999e-01,9.77407e-01,5.07674e-01,9.99999e-01
8.973502660e-01,5.11668e-01,9.99999e-01,9.94459e-01,5.14518e-01,9.99999e-01
9.018370173e-01,5.20997e-01,9.99999e-01,9.99387e-01,5.21316e-01,9.99999e-01
9.063462024e-01,5.19925e-01,9.99999e-01,9.84580e-01,5.28067e-01,9.99999e-01
9.108779334e-01,5.15851e-01,9.99999e-01,9.64622e-01,5.34770e-01,9.99999e-01
9.154323231e-01,5.36856e-01,9.99999e-01,9.91565e-01,5.41422e-01,9.99999e-01
9.200094847e-01,4.87239e-01,9.99999e-01,8.89083e-01,5.48024e-01,9.99999e-01
9.246095321e-01,4.65107e-01,9.99999e-01,8.38675e-01,5.54573e-01,9.99999e-01
9.292325798e-01,4.89330e-01,9.99999e-01,8.72138e-01,5.61069e-01,9.99999e-01
9.338787427e-01,4.96831e-01,9.99999e-01,8.75457e-01,5.67510e-01,9.99999e-01
9.385481364e-01,5.20329e-01,9.99999e-01,9.06660e-01,5.73896e-01,9.99999e-01
9.432408771e-01,5.46371e-01,9.99999e-01,9.41651e-01,5.80226e-01,9.99999e-01
9.479570815e-01,5.68690e-01,9.99999e-01,9.69636e-01,5.86498e-01,9.99999e-01
9.526968669e-01,5.83966e-01,9.99999e-01,9.85243e-01,5.92712e-01,9.99999e-01
9.574603512e-01,5.95072e-01,9.99999e-01,9.93661e-01,5.98868e-01,9.99999e-01
9.622476530e-01,6.03765e-01,9.99999e-01,9.98018e-01,6.04963e-01,9.99999e-01
9.670588912e-01,6.10636e-01,9.99999e-01,9.99405e-01,6.10999e-01,9.99999e-01
9.718941857e-01,6.16948e-01,9.99999e-01,9.99957e-01,6.16974e-01,9.99999e-01
9.767536566e-01,6.22887e-01,9.99999e-01,9.99999e-01,6.22887e-01,9.99999e-01
9.816374249e-01,6.28739e-01,9.99999e-01,9.99999e-01,6.28739e-01,9.99999e-01
9.865456120e-01,6.34528e-01,9.99999e-01,9.99999e-01,6.34528e-01,9.99999e-01
9.914783401e-01,6.40255e-01,9.99999e-01,9.99999e-01,6.40255e-01,9.99999e-01
9.964357318e-01,6.45919e-01,9.99999e-01,9.99999e-01,6.45919e-01,9.99999e-01
1.001417910e+00,6.51520e-01,9.99999e-01,9.99999e-01,6.51520e-01,9.99999e-01
1.006425000e+00,6.57057e-01,9.99999e-01,9.99999e-01,6.57057e-01,9.99999e-01
1.011457125e+00,6.62530e-01,9.99999e-01,9.99999e-01,6.62530e-01,9.99999e-01
1.016514411e+00,6.67940e-01,9.99999e-01,9.99999e-01,6.67940e-01,9.99999e-01
1.021596983e+00,6.73231e-01,9.99999e-01,9.99918e-01,6.73285e-01,9.99999e-01
1.026704968e+00,6.74459e-01,9.99999e-01,9.93945e-01,6.78567e-01,9.99999e-01
1.031838492e+00,6.42285e-01,9.99999e-01,9.39308e-01,6.83784e-01,9.99999e-01
1.036997685e+00,6.76266e-02,9.99999e-01,9.81607e-02,6.88938e-01,9.99999e-01
1.042182673e+00,2.60899e-02,9.99999e-01,3.75921e-02,6.94027e-01,9.99999e-01
1.047393587e+00,4.17277e-02,9.99999e-01,5.96918e-02,6.99052e-01,9.99999e-01
1.052630555e+00,1.96485e-04,9.99999e-01,2.79093e-04,7.04013e-01,9.99999e-01
1.057893707e+00,6.28301e-04,9.99999e-01,8.86290e-04,7.08910e-01,9.99999e-01
1.063183176e+00,3.81777e-03,9.99999e-01,5.34893e-03,7.13744e-01,9.99999e-01
1.068499092e+00,1.68215e-02,9.99999e-01,2.34114e-02,7.18514e-01,9.99999e-01
1.073841587e+00,6.64968e-02,9.99999e-01,9.19451e-02,7.23221e-01,9.99999e-01
1.079210795e+00,1.60689e-01,9.99999e-01,2.20768e-01,7.27865e-01,9.99999e-01
1.084606849e+00,3.16082e-01,9.99999e-01,4.31543e-01,7.32446e-01,9.99999e-01
1.090029883e+00,4.75766e-01,9.99999e-01,6.45575e-01,7.36965e-01,9.99999e-01
1.095480033e+00,5.97417e-01,9.99999e-01,8.05772e-01,7.41421e-01,9.99999e-01
1.100957433e+00,6.72011e-01,9.99999e-01,9.01041e-01,7.45816e-01,9.99999e-01
1.106462220e+00,7.18488e-01,9.99999e-01,9.57793e-01,7.50149e-01,9.99999e-01
1.111994531e+00,7.42454e-01,9.99999e-01,9.84138e-01,7.54421e-01,9.99999e-01
1.117554504e+00,7.55674e-01,9.99999e-01,9.96101e-01,7.58632e-01,9.99999e-01
1.123142276e+00,7.62587e-01,9.99999e-01,9.99743e-01,7.62782e-01,9.99999e-01
1.128757988e+00,7.66873e-01,9.99999e-01,9.99999e-01,7.66873e-01,9.99999e-01
1.134401778e+00,7.70904e-01,9.99999e-01,9.99999e-01,7.70904e-01,9.99999e-01
1.140073787e+00,7.74876e-01,9.99999e-01,9.99999e-01,7.74876e-01,9.99999e-01
1.145774156e+00,7.78790e-01,9.99999e-01,9.99999e-01,7.78790e-01,9.99999e-01
1.151503026e+00,7.82646e-01,9.99999e-01,9.99999e-01,7.82646e-01,9.99999e-01
1.157260541e+00,7.86443e-01,9.99999e-01,9.99999e-01,7.86443e-01,9.99999e-01
1.163046844e+00,7.90184e-01,9.99999e-01,9.99999e-01,7.90184e-01,9.99999e-01
1.168862078e+00,7.93868e-01,9.99999e-01,9.99999e-01,7.93868e-01,9.99999e-01
1.174706389e+00,7.97496e-01,9.99999e-01,9.99999e-01,7.97496e-01,9.99999e-01
1.180579921e+00,8.01069e-01,9.99999e-01,9.99999e-01,8.01069e-01,9.99999e-01
1.186482820e+00,8.04578e-01,9.99999e-01,9.99989e-01,8.04586e-01,9.99999e-01
1.192415234e+00,7.90904e-01,9.99999e-01,9.78781e-01,8.08049e-01,9.99999e-01
1.198377311e+00,4.44243e-01,9.99999e-01,5.47463e-01,8.11458e-01,9.99999e-01
1.204369197e+00,7.62198e-17,9.99999e-01,9.35425e-17,8.14813e-01,9.99999e-01
1.210391043e+00,5.95671e-65,9.99999e-01,7.28100e-65,8.18116e-01,9.99999e-01
1.216442998e+00,2.38189e-56,9.99999e-01,2.89991e-56,8.21367e-01,9.99999e-01
1.222525213e+00,1.61105e-55,9.99999e-01,1.95382e-55,8.24566e-01,9.99999e-01
1.228637839e+00,5.69491e-43,9.99999e-01,6.88028e-43,8.27713e-01,9.99999e-01
1.234781029e+00,3.36913e-27,9.99999e-01,4.05523e-27,8.30811e-01,9.99999e-01
1.240954934e+00,3.09076e-18,9.99999e-01,3.70657e-18,8.33858e-01,9.99999e-01
1.247159708e+00,2.04168e-09,9.99999e-01,2.43971e-09,8.36856e-01,9.99999e-01
1.253395507e+00,2.84189e-06,9.99999e-01,3.38399e-06,8.39805e-01,9.99999e-01
1.259662485e+00,6.14271e-04,9.99999e-01,7.28926e-04,8.42706e-01,9.99999e-01
1.265960797e+00,1.36532e-02,9.99999e-01,1.61469e-02,8.45560e-01,9.99999e-01
1.272290601e+00,1.38753e-01,9.99999e-01,1.63553e-01,8.48366e-01,9.99999e-01
1.278652054e+00,1.19132e-01,9.99999e-01,1.39970e-01,8.51126e-01,9.99999e-01
1.285045314e+00,1.19899e-03,9.99999e-01,1.40424e-03,8.53840e-01,9.99999e-01
1.291470541e+00,3.45328e-08,9.99999e-01,4.03180e-08,8.56510e-01,9.99999e-01
1.297927893e+00,4.23365e-04,9.99999e-01,4.92780e-04,8.59134e-01,9.99999e-01
1.304417533e+00,3.14241e-02,9.99999e-01,3.64669e-02,8.61714e-01,9.99999e-01
1.310939621e+00,7.44703e-03,9.99999e-01,8.61673e-03,8.64251e-01,9.99999e-01
1.317494319e+00,1.25567e-22,9.99999e-01,1.44872e-22,8.66745e-01,9.99999e-01
1.324081790e+00,3.20577e-15,9.99999e-01,3.68819e-15,8.69197e-01,9.99999e-01
1.330702199e+00,5.01283e-09,9.99999e-01,5.75124e-09,8.71607e-01,9.99999e-01
1.337355710e+00,1.51407e-08,9.99999e-01,1.73239e-08,8.73976e-01,9.99999e-01
1.344042489e+00,5.66450e-09,9.99999e-01,6.46407e-09,8.76305e-01,9.99999e-01
1.350762701e+00,2.78856e-09,9.99999e-01,3.17389e-09,8.78593e-01,9.99999e-01
1.357516515e+00,4.63161e-06,9.99999e-01,5.25815e-06,8.80842e-01,9.99999e-01
1.364304097e+00,2.29208e-04,9.99999e-01,2.59562e-04,8.83053e-01,9.99999e-01
1.371125618e+00,1.25710e-02,9.99999e-01,1.42009e-02,8.85225e-01,9.99999e-01
1.377981246e+00,2.48223e-02,9.99999e-01,2.79732e-02,8.87359e-01,9.99999e-01
1.384871152e+00,1.10955e-01,9.99999e-01,1.24744e-01,8.89456e-01,9.99999e-01
1.391795508e+00,1.30180e-01,9.99999e-01,1.46021e-01,8.91517e-01,9.99999e-01
1.398754485e+00,2.70498e-01,9.99999e-01,3.02725e-01,8.93541e-01,9.99999e-01
1.405748258e+00,3.72658e-01,9.99999e-01,4.16131e-01,8.95530e-01,9.99999e-01
1.412776999e+00,5.14952e-01,9.99999e-01,5.73772e-01,8.97484e-01,9.99999e-01
1.419840884e+00,4.63786e-01,9.99999e-01,5.15659e-01,8.99403e-01,9.99999e-01
1.426940089e+00,2.93613e-02,9.99999e-01,3.25769e-02,9.01289e-01,9.99999e-01
1.434074789e+00,0.00000e+00,9.99999e-01,0.00000e+00,9.03141e-01,9.99999e-01
1.441245163e+00,0.00000e+00,9.99999e-01,0.00000e+00,9.04960e-01,9.99999e-01
1.448451389e+00,0.00000e+00,9.99999e-01,0.00000e+00,9.06747e-01,9.99999e-01
1.455693646e+00,0.00000e+00,9.99999e-01,0.00000e+00,9.08502e-01,9.99999e-01
1.462972114e+00,9.36279e-257,9.99999e-01,1.02862e-256,9.10225e-01,9.99999e-01
1.470286975e+00,5.67072e-107,9.99999e-01,6.21845e-107,9.11918e-01,9.99999e-01
