#,Wave/freq,Total,CO2,Rayleigh,CIA
4.000000000e-01,4.94995e-22,9.99999e-01,4.94995e-22,9.99999e-01
4.020000000e-01,1.30583e-21,9.99999e-01,1.30583e-21,9.99999e-01
4.040100000e-01,3.37597e-21,9.99999e-01,3.37597e-21,9.99999e-01
4.060300500e-01,8.56572e-21,9.99999e-01,8.56572e-21,9.99999e-01
4.080602003e-01,2.13374e-20,9.99999e-01,2.13374e-20,9.99999e-01
4.101005013e-01,5.22023e-20,9.99999e-01,5.22023e-20,9.99999e-01
4.121510038e-01,1.25477e-19,9.99999e-01,1.25477e-19,9.99999e-01
4.142117588e-01,2.96424e-19,9.99999e-01,2.96424e-19,9.99999e-01
4.162828176e-01,6.88476e-19,9.99999e-01,6.88476e-19,9.99999e-01
4.183642317e-01,1.57266e-18,9.99999e-01,1.57266e-18,9.99999e-01
4.204560528e-01,3.53424e-18,9.99999e-01,3.53424e-18,9.99999e-01
4.225583331e-01,7.81647e-18,9.99999e-01,7.81647e-18,9.99999e-01
4.246711247e-01,1.70183e-17,9.99999e-01,1.70183e-17,9.99999e-01
4.267944804e-01,3.64877e-17,9.99999e-01,3.64877e-17,9.99999e-01
4.289284528e-01,7.70611e-17,9.99999e-01,7.70611e-17,9.99999e-01
4.310730950e-01,1.60365e-16,9.99999e-01,1.60365e-16,9.99999e-01
4.332284605e-01,3.28926e-16,9.99999e-01,3.28926e-16,9.99999e-01
4.353946028e-01,6.65157e-16,9.99999e-01,6.65157e-16,9.99999e-01
4.375715758e-01,1.32651e-15,9.99999e-01,1.32651e-15,9.99999e-01
4.397594337e-01,2.60959e-15,9.99999e-01,2.60959e-15,9.99999e-01
4.419582309e-01,5.06560e-15,9.99999e-01,5.06560e-15,9.99999e-01
4.441680220e-01,9.70510e-15,9.99999e-01,9.70510e-15,9.99999e-01
4.463888621e-01,1.83566e-14,9.99999e-01,1.83566e-14,9.99999e-01
4.486208064e-01,3.42859e-14,9.99999e-01,3.42859e-14,9.99999e-01
4.508639105e-01,6.32529e-14,9.99999e-01,6.32529e-14,9.99999e-01
4.531182300e-01,1.15290e-13,9.99999e-01,1.15290e-13,9.99999e-01
4.553838212e-01,2.07660e-13,9.99999e-01,2.07660e-13,9.99999e-01
4.576607403e-01,3.69715e-13,9.99999e-01,3.69715e-13,9.99999e-01
4.599490440e-01,6.50778e-13,9.99999e-01,6.50778e-13,9.99999e-01
4.622487892e-01,1.13279e-12,9.99999e-01,1.13279e-12,9.99999e-01
4.645600332e-01,1.95033e-12,9.99999e-01,1.95033e-12,9.99999e-01
4.668828333e-01,3.32206e-12,9.99999e-01,3.32206e-12,9.99999e-01
4.692172475e-01,5.59935e-12,9.99999e-01,5.59935e-12,9.99999e-01
4.715633337e-01,9.34093e-12,9.99999e-01,9.34093e-12,9.99999e-01
4.739211504e-01,1.54260e-11,9.99999e-01,1.54260e-11,9.99999e-01
4.762907561e-01,2.52238e-11,9.99999e-01,2.52238e-11,9.99999e-01
4.786722099e-01,4.08462e-11,9.99999e-01,4.08462e-11,9.99999e-01
4.810655710e-01,6.55174e-11,9.99999e-01,6.55174e-11,9.99999e-01
4.834708988e-01,1.04114e-10,9.99999e-01,1.04114e-10,9.99999e-01
4.858882533e-01,1.63941e-10,9.99999e-01,1.63941e-10,9.99999e-01
4.883176946e-01,2.55842e-10,9.99999e-01,2.55842e-10,9.99999e-01
4.907592831e-01,3.95766e-10,9.99999e-01,3.95766e-10,9.99999e-01
4.932130795e-01,6.06963e-10,9.99999e-01,6.06963e-10,9.99999e-01
4.956791449e-01,9.23034e-10,9.99999e-01,9.23034e-10,9.99999e-01
4.981575406e-01,1.39212e-09,9.99999e-01,1.39212e-09,9.99999e-01
5.006483283e-01,2.08263e-09,9.99999e-01,2.08263e-09,9.99999e-01
5.031515699e-01,3.09094e-09,9.99999e-01,3.09094e-09,9.99999e-01
5.056673278e-01,4.55179e-09,9.99999e-01,4.55179e-09,9.99999e-01
5.081956644e-01,6.65202e-09,9.99999e-01,6.65202e-09,9.99999e-01
5.107366428e-01,9.64874e-09,9.99999e-01,9.64874e-09,9.99999e-01
5.132903260e-01,1.38930e-08,9.99999e-01,1.38930e-08,9.99999e-01
5.158567776e-01,1.98608e-08,9.99999e-01,1.98608e-08,9.99999e-01
5.184360615e-01,2.81923e-08,9.99999e-01,2.81923e-08,9.99999e-01
5.210282418e-01,3.97428e-08,9.99999e-01,3.97428e-08,9.99999e-01
5.236333830e-01,5.56470e-08,9.99999e-01,5.56470e-08,9.99999e-01
5.262515499e-01,7.73993e-08,9.99999e-01,7.73993e-08,9.99999e-01
5.288828077e-01,1.06955e-07,9.99999e-01,1.06955e-07,9.99999e-01
5.315272217e-01,1.46856e-07,9.99999e-01,1.46856e-07,9.99999e-01
5.341848578e-01,2.00384e-07,9.99999e-01,2.00384e-07,9.99999e-01
5.368557821e-01,2.71749e-07,9.99999e-01,2.71749e-07,9.99999e-01
5.395400610e-01,3.66319e-07,9.99999e-01,3.66319e-07,9.99999e-01
5.422377613e-01,4.90896e-07,9.99999e-01,4.90896e-07,9.99999e-01
5.449489501e-01,6.54046e-07,9.99999e-01,6.54046e-07,9.99999e-01
5.476736949e-01,8.66493e-07,9.99999e-01,8.66493e-07,9.99999e-01
5.504120634e-01,1.14159e-06,9.99999e-01,1.14159e-06,9.99999e-01
5.531641237e-01,1.49585e-06,9.99999e-01,1.49585e-06,9.99999e-01
5.559299443e-01,1.94961e-06,9.99999e-01,1.94961e-06,9.99999e-01
5.587095940e-01,2.52776e-06,9.99999e-01,2.52776e-06,9.99999e-01
5.615031420e-01,3.26059e-06,9.99999e-01,3.26059e-06,9.99999e-01
5.643106577e-01,4.18477e-06,9.99999e-01,4.18477e-06,9.99999e-01
5.671322110e-01,5.34450e-06,9.99999e-01,5.34450e-06,9.99999e-01
5.699678720e-01,6.79273e-06,9.99999e-01,6.79273e-06,9.99999e-01
5.728177114e-01,8.59259e-06,9.99999e-01,8.59259e-06,9.99999e-01
5.756818000e-01,1.08190e-05,9.99999e-01,1.08190e-05,9.99999e-01
5.785602090e-01,1.35605e-05,9.99999e-01,1.35605e-05,9.99999e-01
5.814530100e-01,1.69209e-05,9.99999e-01,1.69209e-05,9.99999e-01
5.843602750e-01,2.10220e-05,9.99999e-01,2.10220e-05,9.99999e-01
5.872820764e-01,2.60054e-05,9.99999e-01,2.60054e-05,9.99999e-01
5.902184868e-01,3.20352e-05,9.99999e-01,3.20352e-05,9.99999e-01
5.931695792e-01,3.93009e-05,9.99999e-01,3.93009e-05,9.99999e-01
5.961354271e-01,4.80202e-05,9.99999e-01,4.80202e-05,9.99999e-01
5.991161043e-01,5.84422e-05,9.99999e-01,5.84422e-05,9.99999e-01
6.021116848e-01,7.08507e-05,9.99999e-01,7.08507e-05,9.99999e-01
6.051222432e-01,8.55678e-05,9.99999e-01,8.55678e-05,9.99999e-01
6.081478544e-01,1.02957e-04,9.99999e-01,1.02957e-04,9.99999e-01
6.111885937e-01,1.23429e-04,9.99999e-01,1.23429e-04,9.99999e-01
6.142445367e-01,1.47442e-04,9.99999e-01,1.47442e-04,9.99999e-01
6.173157594e-01,1.75509e-04,9.99999e-01,1.75509e-04,9.99999e-01
6.204023382e-01,2.08202e-04,9.99999e-01,2.08202e-04,9.99999e-01
6.235043498e-01,2.46152e-04,9.99999e-01,2.46152e-04,9.99999e-01
6.266218716e-01,2.90059e-04,9.99999e-01,2.90059e-04,9.99999e-01
6.297549810e-01,3.40691e-04,9.99999e-01,3.40691e-04,9.99999e-01
6.329037559e-01,3.98892e-04,9.99999e-01,3.98892e-04,9.99999e-01
6.360682746e-01,4.65583e-04,9.99999e-01,4.65583e-04,9.99999e-01
6.392486160e-01,5.41767e-04,9.99999e-01,5.41767e-04,9.99999e-01
6.424448591e-01,6.28532e-04,9.99999e-01,6.28532e-04,9.99999e-01
6.456570834e-01,7.27057e-04,9.99999e-01,7.27057e-04,9.99999e-01
6.488853688e-01,8.38611e-04,9.99999e-01,8.38611e-04,9.99999e-01
6.521297956e-01,9.64557e-04,9.99999e-01,9.64557e-04,9.99999e-01
6.553904446e-01,1.10636e-03,9.99999e-01,1.10636e-03,9.99999e-01
6.586673968e-01,1.26557e-03,9.99999e-01,1.26557e-03,9.99999e-01
6.619607338e-01,1.44385e-03,9.99999e-01,1.44385e-03,9.99999e-01
6.652705375e-01,1.64297e-03,9.99999e-01,1.64297e-03,9.99999e-01
6.685968902e-01,1.86478e-03,9.99999e-01,1.86478e-03,9.99999e-01
6.719398746e-01,2.11125e-03,9.99999e-01,2.11125e-03,9.99999e-01
6.752995740e-01,2.38444e-03,9.99999e-01,2.38444e-03,9.99999e-01
6.786760719e-01,2.68651e-03,9.99999e-01,2.68651e-03,9.99999e-01
6.820694522e-01,3.01973e-03,9.99999e-01,3.01973e-03,9.99999e-01
6.854797995e-01,3.38646e-03,9.99999e-01,3.38646e-03,9.99999e-01
6.889071985e-01,3.78913e-03,9.99999e-01,3.78913e-03,9.99999e-01
6.923517345e-01,4.23028e-03,9.99999e-01,4.23028e-03,9.99999e-01
6.958134932e-01,4.71253e-03,9.99999e-01,4.71253e-03,9.99999e-01
6.992925606e-01,5.23857e-03,9.99999e-01,5.23857e-03,9.99999e-01
7.027890234e-01,5.81118e-03,9.99999e-01,5.81118e-03,9.99999e-01
7.063029686e-01,6.43318e-03,9.99999e-01,6.43318e-03,9.99999e-01
7.098344834e-01,7.10746e-03,9.99999e-01,7.10746e-03,9.99999e-01
7.133836558e-01,7.83698e-03,9.99999e-01,7.83698e-03,9.99999e-01
7.169505741e-01,8.62471e-03,9.99999e-01,8.62471e-03,9.99999e-01
7.205353270e-01,9.47368e-03,9.99999e-01,9.47368e-03,9.99999e-01
7.241380036e-01,1.03869e-02,9.99999e-01,1.03869e-02,9.99999e-01
7.277586936e-01,1.13675e-02,9.99999e-01,1.13675e-02,9.99999e-01
7.313974871e-01,1.24186e-02,9.99999e-01,1.24186e-02,9.99999e-01
7.350544745e-01,1.35431e-02,9.99999e-01,1.35431e-02,9.99999e-01
7.387297469e-01,1.47442e-02,9.99999e-01,1.47442e-02,9.99999e-01
7.424233956e-01,1.60249e-02,9.99999e-01,1.60249e-02,9.99999e-01
7.461355126e-01,1.73883e-02,9.99999e-01,1.73883e-02,9.99999e-01
7.498661902e-01,1.88371e-02,9.99999e-01,1.88371e-02,9.99999e-01
7.536155211e-01,2.03745e-02,9.99999e-01,2.03745e-02,9.99999e-01
7.573835987e-01,2.20033e-02,9.99999e-01,2.20033e-02,9.99999e-01
7.611705167e-01,2.37262e-02,9.99999e-01,2.37262e-02,9.99999e-01
7.649763693e-01,2.55459e-02,9.99999e-01,2.55459e-02,9.99999e-01
7.688012511e-01,2.74650e-02,9.99999e-01,2.74650e-02,9.99999e-01
7.726452574e-01,2.94862e-02,9.99999e-01,2.94862e-02,9.99999e-01
7.765084837e-01,3.16116e-02,9.99999e-01,3.16116e-02,9.99999e-01
7.803910261e-01,3.01388e-02,8.90527e-01,3.38438e-02,9.99999e-01
7.842929812e-01,1.87163e-02,5.17244e-01,3.61847e-02,9.99999e-01
7.882144461e-01,1.95341e-02,5.05587e-01,3.86365e-02,9.99999e-01
7.921555184e-01,2.67347e-02,6.48884e-01,4.12010e-02,9.99999e-01
7.961162960e-01,3.25502e-02,7.41800e-01,4.38800e-02,9.99999e-01
8.000968774e-01,3.96929e-02,8.50408e-01,4.66751e-02,9.99999e-01
8.040973618e-01,4.55510e-02,9.18592e-01,4.95878e-02,9.99999e-01
8.081178486e-01,5.06194e-02,9.61993e-01,5.26192e-02,9.99999e-01
8.121584379e-01,5.50974e-02,9.87930e-01,5.57705e-02,9.99999e-01
8.162192301e-01,5.88844e-02,9.97317e-01,5.90427e-02,9.99999e-01
8.203003262e-01,6.24336e-02,9.99952e-01,6.24365e-02,9.99999e-01
8.244018279e-01,6.59526e-02,9.99999e-01,6.59526e-02,9.99999e-01
8.285238370e-01,6.95913e-02,9.99999e-01,6.95913e-02,9.99999e-01
8.326664562e-01,7.33529e-02,9.99999e-01,7.33529e-02,9.99999e-01
8.368297885e-01,7.72375e-02,9.99999e-01,7.72375e-02,9.99999e-01
8.410139374e-01,8.12449e-02,9.99999e-01,8.12449e-02,9.99999e-01
8.452190071e-01,8.53750e-02,9.99999e-01,8.53750e-02,9.99999e-01
8.494451021e-01,8.96271e-02,9.99999e-01,8.96271e-02,9.99999e-01
8.536923276e-01,9.40007e-02,9.99999e-01,9.40007e-02,9.99999e-01
8.579607893e-01,9.84951e-02,9.99999e-01,9.84951e-02,9.99999e-01
8.622505932e-01,1.03109e-01,9.99999e-01,1.03109e-01,9.99999e-01
8.665618462e-01,9.21917e-02,8.54879e-01,1.07842e-01,9.99999e-01
8.708946554e-01,2.33107e-02,2.06854e-01,1.12692e-01,9.99999e-01
8.752491287e-01,3.03670e-02,2.58096e-01,1.17657e-01,9.99999e-01
8.796253743e-01,5.67429e-02,4.62311e-01,1.22737e-01,9.99999e-01
8.840235012e-01,8.47264e-02,6.62288e-01,1.27930e-01,9.99999e-01
8.884436187e-01,1.12882e-01,8.47256e-01,1.33233e-01,9.99999e-01
8.928858368e-01,1.29647e-01,9.35107e-01,1.38644e-01,9.99999e-01
8.973502660e-01,1.41803e-01,9.83631e-01,1.44162e-01,9.99999e-01
9.018370173e-01,1.49511e-01,9.98175e-01,1.49784e-01,9.99999e-01
9.063462024e-01,1.49029e-01,9.58334e-01,1.55508e-01,9.99999e-01
9.108779334e-01,1.45234e-01,9.00221e-01,1.61331e-01,9.99999e-01
9.154323231e-01,1.63097e-01,9.75162e-01,1.67251e-01,9.99999e-01
9.200094847e-01,1.31303e-01,7.57818e-01,1.73264e-01,9.99999e-01
9.246095321e-01,1.07939e-01,6.01775e-01,1.79368e-01,9.99999e-01
9.292325798e-01,1.26838e-01,6.83538e-01,1.85561e-01,9.99999e-01
9.338787427e-01,1.31143e-01,6.83613e-01,1.91838e-01,9.99999e-01
9.385481364e-01,1.49279e-01,7.53182e-01,1.98198e-01,9.99999e-01
9.432408771e-01,1.71532e-01,8.38225e-01,2.04636e-01,9.99999e-01
9.479570815e-01,1.92940e-01,9.13754e-01,2.11151e-01,9.99999e-01
9.526968669e-01,2.08457e-01,9.57375e-01,2.17738e-01,9.99999e-01
9.574603512e-01,2.20241e-01,9.81491e-01,2.24394e-01,9.99999e-01
9.622476530e-01,2.29771e-01,9.94177e-01,2.31116e-01,9.99999e-01
9.670588912e-01,2.37483e-01,9.98243e-01,2.37901e-01,9.99999e-01
9.718941857e-01,2.44714e-01,9.99871e-01,2.44745e-01,9.99999e-01
9.767536566e-01,2.51645e-01,9.99999e-01,2.51645e-01,9.99999e-01
9.816374249e-01,2.58597e-01,9.99999e-01,2.58597e-01,9.99999e-01
9.865456120e-01,2.65599e-01,9.99999e-01,2.65599e-01,9.99999e-01
9.914783401e-01,2.72646e-01,9.99999e-01,2.72646e-01,9.99999e-01
9.964357318e-01,2.79735e-01,9.99999e-01,2.79735e-01,9.99999e-01
1.001417910e+00,2.86864e-01,9.99999e-01,2.86864e-01,9.99999e-01
1.006425000e+00,2.94027e-01,9.99999e-01,2.94027e-01,9.99999e-01
1.011457125e+00,3.01223e-01,9.99999e-01,3.01223e-01,9.99999e-01
1.016514411e+00,3.08448e-01,9.99999e-01,3.08448e-01,9.99999e-01
1.021596983e+00,3.15637e-01,9.99805e-01,3.15698e-01,9.99999e-01
1.026704968e+00,3.17560e-01,9.83249e-01,3.22970e-01,9.99999e-01
1.031838492e+00,2.92261e-01,8.84938e-01,3.30261e-01,9.99999e-01
1.036997685e+00,1.06694e-02,3.16067e-02,3.37568e-01,9.99999e-01
1.042182673e+00,1.63282e-04,4.73435e-04,3.44887e-01,9.99999e-01
1.047393587e+00,5.00323e-04,1.42050e-03,3.52216e-01,9.99999e-01
1.052630555e+00,1.54522e-09,4.29763e-09,3.59551e-01,9.99999e-01
1.057893707e+00,5.58279e-09,1.52165e-08,3.66890e-01,9.99999e-01
1.063183176e+00,8.24411e-07,2.20296e-06,3.74229e-01,9.99999e-01
1.068499092e+00,1.61732e-05,4.23863e-05,3.81565e-01,9.99999e-01
1.073841587e+00,5.22584e-04,1.34376e-03,3.88896e-01,9.99999e-01
1.079210795e+00,6.47323e-03,1.63375e-02,3.96219e-01,9.99999e-01
1.084606849e+00,3.71447e-02,9.20489e-02,4.03531e-01,9.99999e-01
1.090029883e+00,1.17112e-01,2.85062e-01,4.10830e-01,9.99999e-01
1.095480033e+00,2.23976e-01,5.35683e-01,4.18113e-01,9.99999e-01
1.100957433e+00,3.13967e-01,7.38090e-01,4.25377e-01,9.99999e-01
1.106462220e+00,3.81322e-01,8.81424e-01,4.32620e-01,9.99999e-01
1.111994531e+00,4.19692e-01,9.54193e-01,4.39839e-01,9.99999e-01
1.117554504e+00,4.41902e-01,9.88519e-01,4.47033e-01,9.99999e-01
1.123142276e+00,4.53851e-01,9.99233e-01,4.54199e-01,9.99999e-01
1.128757988e+00,4.61335e-01,9.99999e-01,4.61335e-01,9.99999e-01
1.134401778e+00,4.68439e-01,9.99999e-01,4.68439e-01,9.99999e-01
1.140073787e+00,4.75509e-01,9.99999e-01,4.75509e-01,9.99999e-01
1.145774156e+00,4.82543e-01,9.99999e-01,4.82543e-01,9.99999e-01
1.151503026e+00,4.89538e-01,9.99999e-01,4.89538e-01,9.99999e-01
1.157260541e+00,4.96494e-01,9.99999e-01,4.96494e-01,9.99999e-01
1.163046844e+00,5.03408e-01,9.99999e-01,5.03408e-01,9.99999e-01
1.168862078e+00,5.10280e-01,9.99999e-01,5.10280e-01,9.99999e-01
1.174706389e+00,5.17106e-01,9.99999e-01,5.17106e-01,9.99999e-01
1.180579921e+00,5.23887e-01,9.99999e-01,5.23887e-01,9.99999e-01
1.186482820e+00,5.30612e-01,9.99984e-01,5.30619e-01,9.99999e-01
1.192415234e+00,5.07863e-01,9.45207e-01,5.37303e-01,9.99999e-01
1.198377311e+00,2.67968e-01,4.92645e-01,5.43936e-01,9.99999e-01
1.204369197e+00,9.06776e-45,1.64713e-44,5.50518e-01,9.99999e-01
1.210391043e+00,6.30367e-185,1.13162e-184,5.57047e-01,9.99999e-01
1.216442998e+00,7.27573e-160,1.29111e-159,5.63523e-01,9.99999e-01
1.222525213e+00,1.89209e-157,3.31978e-157,5.69943e-01,9.99999e-01
1.228637839e+00,3.32183e-121,5.76399e-121,5.76308e-01,9.99999e-01
1.234781029e+00,1.48636e-91,2.55118e-91,5.82615e-01,9.99999e-01
1.240954934e+00,2.12787e-49,3.61350e-49,5.88866e-01,9.99999e-01
1.247159708e+00,3.01938e-31,5.07410e-31,5.95058e-01,9.99999e-01
1.253395507e+00,8.52816e-16,1.41854e-15,6.01190e-01,9.99999e-01
1.259662485e+00,1.11797e-09,1.84099e-09,6.07263e-01,9.99999e-01
1.265960797e+00,2.27598e-05,3.71119e-05,6.13276e-01,9.99999e-01
1.272290601e+00,3.08241e-03,4.97782e-03,6.19228e-01,9.99999e-01
1.278652054e+00,4.66022e-03,7.45494e-03,6.25118e-01,9.99999e-01
1.285045314e+00,6.18087e-07,9.79619e-07,6.30946e-01,9.99999e-01
1.291470541e+00,4.46676e-21,7.01535e-21,6.36711e-01,9.99999e-01
1.297927893e+00,1.51391e-08,2.35659e-08,6.42414e-01,9.99999e-01
1.304417533e+00,6.50829e-05,1.00428e-04,6.48054e-01,9.99999e-01
1.310939621e+00,2.09977e-05,3.21247e-05,6.53631e-01,9.99999e-01
1.317494319e+00,4.10443e-62,6.22691e-62,6.59144e-01,9.99999e-01
1.324081790e+00,2.37788e-40,3.57795e-40,6.64593e-01,9.99999e-01
1.330702199e+00,5.26145e-24,7.85315e-24,6.69978e-01,9.99999e-01
1.337355710e+00,1.13100e-21,1.67482e-21,6.75299e-01,9.99999e-01
1.344042489e+00,7.46654e-22,1.09712e-21,6.80557e-01,9.99999e-01
1.350762701e+00,2.27177e-24,3.31283e-24,6.85750e-01,9.99999e-01
1.357516515e+00,2.27307e-14,3.29011e-14,6.90879e-01,9.99999e-01
1.364304097e+00,1.04150e-10,1.49653e-10,6.95943e-01,9.99999e-01
1.371125618e+00,7.12791e-06,1.01690e-05,7.00944e-01,9.99999e-01
1.377981246e+00,3.09504e-05,4.38465e-05,7.05881e-01,9.99999e-01
1.384871152e+00,1.97351e-03,2.77664e-03,7.10754e-01,9.99999e-01
1.391795508e+00,3.22951e-03,4.51324e-03,7.15564e-01,9.99999e-01
1.398754485e+00,2.24910e-02,3.12240e-02,7.20310e-01,9.99999e-01
1.405748258e+00,5.88794e-02,8.12136e-02,7.24993e-01,9.99999e-01
1.412776999e+00,1.45812e-01,1.99849e-01,7.29613e-01,9.99999e-01
1.419840884e+00,1.53712e-01,2.09368e-01,7.34170e-01,9.99999e-01
1.426940089e+00,4.13288e-03,5.59506e-03,7.38665e-01,9.99999e-01
1.434074789e+00,0.00000e+00,0.00000e+00,7.43098e-01,9.99999e-01
1.441245163e+00,0.00000e+00,0.00000e+00,7.47469e-01,9.99999e-01
1.448451389e+00,0.00000e+00,0.00000e+00,7.51779e-01,9.99999e-01
1.455693646e+00,0.00000e+00,0.00000e+00,7.56028e-01,9.99999e-01
1.462972114e+00,0.00000e+00,0.00000e+00,7.60216e-01,9.99999e-01
1.470286975e+00,2.45450e-307,3.21125e-307,7.64343e-01,9.99999e-01
1.477638409e+00,2.54289e-192,3.30927e-192,7.68412e-01,9.99999e-01
1.485026601e+00,4.16667e-106,5.39430e-106,7.72420e-01,9.99999e-01
1.492451734e+00,3.36345e-90,4.33228e-90,7.76370e-01,9.99999e-01
1.499913993e+00,7.29773e-38,9.35292e-38,7.80262e-01,9.99999e-01
1.507413563e+00,1.48114e-36,1.88898e-36,7.84095e-01,9.99999e-01
1.514950631e+00,2.39706e-38,3.04244e-38,7.87871e-01,9.99999e-01
1.522525384e+00,4.67045e-136,5.90008e-136,7.91590e-01,9.99999e-01
1.530138011e+00,0.00000e+00,0.00000e+00,7.95253e-01,9.99999e-01
1.537788701e+00,3.90001e-242,4.88196e-242,7.98860e-01,9.99999e-01
1.545477645e+00,2.61919e-49,3.26415e-49,8.02411e-01,9.99999e-01
1.553205033e+00,3.68858e-36,4.57692e-36,8.05908e-01,9.99999e-01
1.560971058e+00,3.88216e-36,4.79663e-36,8.09350e-01,9.99999e-01
1.568775913e+00,0.00000e+00,0.00000e+00,8.12739e-01,9.99999e-01
1.576619793e+00,0.00000e+00,0.00000e+00,8.16074e-01,9.99999e-01
1.584502892e+00,0.00000e+00,0.00000e+00,8.19357e-01,9.99999e-01
1.592425406e+00,0.00000e+00,0.00000e+00,8.22588e-01,9.99999e-01
1.600387533e+00,0.00000e+00,0.00000e+00,8.25767e-01,9.99999e-01
1.608389471e+00,0.00000e+00,0.00000e+00,8.28896e-01,9.99999e-01
1.616431418e+00,0.00000e+00,0.00000e+00,8.31974e-01,9.99999e-01
1.624513575e+00,0.00000e+00,0.00000e+00,8.35003e-01,9.99999e-01
1.632636143e+00,0.00000e+00,0.00000e+00,8.37982e-01,9.99999e-01
1.640799324e+00,1.44941e-284,1.72361e-284,8.40913e-01,9.99999e-01
1.649003321e+00,1.45304e-284,1.72203e-284,8.43796e-01,9.99999e-01
1.657248337e+00,2.23388e-219,2.63855e-219,8.46631e-01,9.99999e-01
1.665534579e+00,7.36269e-221,8.66790e-221,8.49420e-01,9.99999e-01
1.673862252e+00,5.58064e-140,6.54879e-140,8.52163e-01,9.99999e-01
1.682231563e+00,3.31239e-96,3.87477e-96,8.54860e-01,9.99999e-01
1.690642721e+00,2.07904e-52,2.42450e-52,8.57512e-01,9.99999e-01
1.699095934e+00,6.20021e-33,7.20854e-33,8.60119e-01,9.99999e-01
1.707591414e+00,5.13975e-16,5.95785e-16,8.62683e-01,9.99999e-01
1.716129371e+00,8.50627e-10,9.83151e-10,8.65204e-01,9.99999e-01
1.724710018e+00,4.82070e-06,5.55584e-06,8.67682e-01,9.99999e-01
1.733333568e+00,2.29201e-04,2.63413e-04,8.70118e-01,9.99999e-01
1.742000236e+00,7.19626e-03,8.24773e-03,8.72512e-01,9.99999e-01
1.750710237e+00,3.14640e-06,3.59644e-06,8.74866e-01,9.99999e-01
1.759463788e+00,1.41265e-133,1.61044e-133,8.77179e-01,9.99999e-01
1.768261107e+00,7.08706e-140,8.05848e-140,8.79452e-01,9.99999e-01
1.777102413e+00,1.95175e-136,2.21366e-136,8.81687e-01,9.99999e-01
1.785987925e+00,2.02294e-127,2.28869e-127,8.83882e-01,9.99999e-01
1.794917864e+00,1.37846e-121,1.55575e-121,8.86040e-01,9.99999e-01
1.803892454e+00,9.52094e-117,1.07198e-116,8.88160e-01,9.99999e-01
1.812911916e+00,4.01210e-112,4.50674e-112,8.90243e-01,9.99999e-01
1.821976476e+00,3.24426e-112,3.63588e-112,8.92290e-01,9.99999e-01
1.831086358e+00,1.24386e-89,1.39087e-89,8.94301e-01,9.99999e-01
1.840241790e+00,3.99781e-76,4.46046e-76,8.96276e-01,9.99999e-01
1.849442999e+00,1.21075e-52,1.34794e-52,8.98217e-01,9.99999e-01
1.858690214e+00,1.14060e-49,1.26716e-49,9.00123e-01,9.99999e-01
1.867983665e+00,3.76419e-50,4.17318e-50,9.01996e-01,9.99999e-01
1.877323583e+00,1.85664e-257,2.05418e-257,9.03836e-01,9.99999e-01
