#,Wave/freq,Total,CO2,Rayleigh,CIA
4.000000000e-01,2.30420e-25,9.99999e-01,2.30420e-25,9.99999e-01
4.020000000e-01,7.06265e-25,9.99999e-01,7.06265e-25,9.99999e-01
4.040100000e-01,2.11841e-24,9.99999e-01,2.11841e-24,9.99999e-01
4.060300500e-01,6.21771e-24,9.99999e-01,6.21771e-24,9.99999e-01
4.080602003e-01,1.78654e-23,9.99999e-01,1.78654e-23,9.99999e-01
4.101005013e-01,5.02740e-23,9.99999e-01,5.02740e-23,9.99999e-01
4.121510038e-01,1.38611e-22,9.99999e-01,1.38611e-22,9.99999e-01
4.142117588e-01,3.74585e-22,9.99999e-01,3.74585e-22,9.99999e-01
4.162828176e-01,9.92604e-22,9.99999e-01,9.92604e-22,9.99999e-01
4.183642317e-01,2.58013e-21,9.99999e-01,2.58013e-21,9.99999e-01
4.204560528e-01,6.58132e-21,9.99999e-01,6.58132e-21,9.99999e-01
4.225583331e-01,1.64798e-20,9.99999e-01,1.64798e-20,9.99999e-01
4.246711247e-01,4.05243e-20,9.99999e-01,4.05243e-20,9.99999e-01
4.267944804e-01,9.78951e-20,9.99999e-01,9.78951e-20,9.99999e-01
4.289284528e-01,2.32402e-19,9.99999e-01,2.32402e-19,9.99999e-01
4.310730950e-01,5.42380e-19,9.99999e-01,5.42380e-19,9.99999e-01
4.332284605e-01,1.24479e-18,9.99999e-01,1.24479e-18,9.99999e-01
4.353946028e-01,2.81036e-18,9.99999e-01,2.81036e-18,9.99999e-01
4.375715758e-01,6.24371e-18,9.99999e-01,6.24371e-18,9.99999e-01
4.397594337e-01,1.36545e-17,9.99999e-01,1.36545e-17,9.99999e-01
4.419582309e-01,2.94033e-17,9.99999e-01,2.94033e-17,9.99999e-01
4.441680220e-01,6.23643e-17,9.99999e-01,6.23643e-17,9.99999e-01
4.463888621e-01,1.30324e-16,9.99999e-01,1.30324e-16,9.99999e-01
4.486208064e-01,2.68407e-16,9.99999e-01,2.68407e-16,9.99999e-01
4.508639105e-01,5.44958e-16,9.99999e-01,5.44958e-16,9.99999e-01
4.531182300e-01,1.09108e-15,9.99999e-01,1.09108e-15,9.99999e-01
4.553838212e-01,2.15475e-15,9.99999e-01,2.15475e-15,9.99999e-01
4.576607403e-01,4.19855e-15,9.99999e-01,4.19855e-15,9.99999e-01
4.599490440e-01,8.07381e-15,9.99999e-01,8.07381e-15,9.99999e-01
4.622487892e-01,1.53267e-14,9.99999e-01,1.53267e-14,9.99999e-01
4.645600332e-01,2.87290e-14,9.99999e-01,2.87290e-14,9.99999e-01
4.668828333e-01,5.31866e-14,9.99999e-01,5.31866e-14,9.99999e-01
4.692172475e-01,9.72748e-14,9.99999e-01,9.72748e-14,9.99999e-01
4.715633337e-01,1.75800e-13,9.99999e-01,1.75800e-13,9.99999e-01
4.739211504e-01,3.14023e-13,9.99999e-01,3.14023e-13,9.99999e-01
4.762907561e-01,5.54534e-13,9.99999e-01,5.54534e-13,9.99999e-01
4.786722099e-01,9.68313e-13,9.99999e-01,9.68313e-13,9.99999e-01
4.810655710e-01,1.67233e-12,9.99999e-01,1.67233e-12,9.99999e-01
4.834708988e-01,2.85720e-12,9.99999e-01,2.85720e-12,9.99999e-01
4.858882533e-01,4.83019e-12,9.99999e-01,4.83019e-12,9.99999e-01
4.883176946e-01,8.08135e-12,9.99999e-01,8.08135e-12,9.99999e-01
4.907592831e-01,1.33841e-11,9.99999e-01,1.33841e-11,9.99999e-01
4.932130795e-01,2.19465e-11,9.99999e-01,2.19465e-11,9.99999e-01
4.956791449e-01,3.56369e-11,9.99999e-01,3.56369e-11,9.99999e-01
4.981575406e-01,5.73160e-11,9.99999e-01,5.73160e-11,9.99999e-01
5.006483283e-01,9.13219e-11,9.99999e-01,9.13219e-11,9.99999e-01
5.031515699e-01,1.44171e-10,9.99999e-01,1.44171e-10,9.99999e-01
5.056673278e-01,2.25562e-10,9.99999e-01,2.25562e-10,9.99999e-01
5.081956644e-01,3.49794e-10,9.99999e-01,3.49794e-10,9.99999e-01
5.107366428e-01,5.37768e-10,9.99999e-01,5.37768e-10,9.99999e-01
5.132903260e-01,8.19764e-10,9.99999e-01,8.19764e-10,9.99999e-01
5.158567776e-01,1.23927e-09,9.99999e-01,1.23927e-09,9.99999e-01
5.184360615e-01,1.85822e-09,9.99999e-01,1.85822e-09,9.99999e-01
5.210282418e-01,2.76411e-09,9.99999e-01,2.76411e-09,9.99999e-01
5.236333830e-01,4.07949e-09,9.99999e-01,4.07949e-09,9.99999e-01
5.262515499e-01,5.97471e-09,9.99999e-01,5.97471e-09,9.99999e-01
5.288828077e-01,8.68470e-09,9.99999e-01,8.68470e-09,9.99999e-01
5.315272217e-01,1.25310e-08,9.99999e-01,1.25310e-08,9.99999e-01
5.341848578e-01,1.79502e-08,9.99999e-01,1.79502e-08,9.99999e-01
5.368557821e-01,2.55311e-08,9.99999e-01,2.55311e-08,9.99999e-01
5.395400610e-01,3.60620e-08,9.99999e-01,3.60620e-08,9.99999e-01
5.422377613e-01,5.05902e-08,9.99999e-01,5.05902e-08,9.99999e-01
5.449489501e-01,7.04983e-08,9.99999e-01,7.04983e-08,9.99999e-01
5.476736949e-01,9.75989e-08,9.99999e-01,9.75989e-08,9.99999e-01
5.504120634e-01,1.34252e-07,9.99999e-01,1.34252e-07,9.99999e-01
5.531641237e-01,1.83511e-07,9.99999e-01,1.83511e-07,9.99999e-01
5.559299443e-01,2.49299e-07,9.99999e-01,2.49299e-07,9.99999e-01
5.587095940e-01,3.36629e-07,9.99999e-01,3.36629e-07,9.99999e-01
5.615031420e-01,4.51863e-07,9.99999e-01,4.51863e-07,9.99999e-01
5.643106577e-01,6.03026e-07,9.99999e-01,6.03026e-07,9.99999e-01
5.671322110e-01,8.00184e-07,9.99999e-01,8.00184e-07,9.99999e-01
5.699678720e-01,1.05589e-06,9.99999e-01,1.05589e-06,9.99999e-01
5.728177114e-01,1.38569e-06,9.99999e-01,1.38569e-06,9.99999e-01
5.756818000e-01,1.80876e-06,9.99999e-01,1.80876e-06,9.99999e-01
5.785602090e-01,2.34862e-06,9.99999e-01,2.34862e-06,9.99999e-01
5.814530100e-01,3.03391e-06,9.99999e-01,3.03391e-06,9.99999e-01
5.843602750e-01,3.89940e-06,9.99999e-01,3.89940e-06,9.99999e-01
5.872820764e-01,4.98699e-06,9.99999e-01,4.98699e-06,9.99999e-01
5.902184868e-01,6.34701e-06,9.99999e-01,6.34701e-06,9.99999e-01
5.931695792e-01,8.03955e-06,9.99999e-01,8.03955e-06,9.99999e-01
5.961354271e-01,1.01360e-05,9.99999e-01,1.01360e-05,9.99999e-01
5.991161043e-01,1.27207e-05,9.99999e-01,1.27207e-05,9.99999e-01
6.021116848e-01,1.58932e-05,9.99999e-01,1.58932e-05,9.99999e-01
6.051222432e-01,1.97696e-05,9.99999e-01,1.97696e-05,9.99999e-01
6.081478544e-01,2.44858e-05,9.99999e-01,2.44858e-05,9.99999e-01
6.111885937e-01,3.01991e-05,9.99999e-01,3.01991e-05,9.99999e-01
6.142445367e-01,3.70916e-05,9.99999e-01,3.70916e-05,9.99999e-01
6.173157594e-01,4.53726e-05,9.99999e-01,4.53726e-05,9.99999e-01
6.204023382e-01,5.52818e-05,9.99999e-01,5.52818e-05,9.99999e-01
6.235043498e-01,6.70930e-05,9.99999e-01,6.70930e-05,9.99999e-01
6.266218716e-01,8.11167e-05,9.99999e-01,8.11167e-05,9.99999e-01
6.297549810e-01,9.77048e-05,9.99999e-01,9.77048e-05,9.99999e-01
6.329037559e-01,1.17253e-04,9.99999e-01,1.17253e-04,9.99999e-01
6.360682746e-01,1.40207e-04,9.99999e-01,1.40207e-04,9.99999e-01
6.392486160e-01,1.67063e-04,9.99999e-01,1.67063e-04,9.99999e-01
6.424448591e-01,1.98375e-04,9.99999e-01,1.98375e-04,9.99999e-01
6.456570834e-01,2.34759e-04,9.99999e-01,2.34759e-04,9.99999e-01
6.488853688e-01,2.76892e-04,9.99999e-01,2.76892e-04,9.99999e-01
6.521297956e-01,3.25525e-04,9.99999e-01,3.25525e-04,9.99999e-01
6.553904446e-01,3.81477e-04,9.99999e-01,3.81477e-04,9.99999e-01
6.586673968e-01,4.45649e-04,9.99999e-01,4.45649e-04,9.99999e-01
6.619607338e-01,5.19020e-04,9.99999e-01,5.19020e-04,9.99999e-01
6.652705375e-01,6.02653e-04,9.99999e-01,6.02653e-04,9.99999e-01
6.685968902e-01,6.97700e-04,9.99999e-01,6.97700e-04,9.99999e-01
6.719398746e-01,8.05405e-04,9.99999e-01,8.05405e-04,9.99999e-01
6.752995740e-01,9.27103e-04,9.99999e-01,9.27103e-04,9.99999e-01
6.786760719e-01,1.06423e-03,9.99999e-01,1.06423e-03,9.99999e-01
6.820694522e-01,1.21831e-03,9.99999e-01,1.21831e-03,9.99999e-01
6.854797995e-01,1.39098e-03,9.99999e-01,1.39098e-03,9.99999e-01
6.889071985e-01,1.58397e-03,9.99999e-01,1.58397e-03,9.99999e-01
6.923517345e-01,1.79912e-03,9.99999e-01,1.79912e-03,9.99999e-01
6.958134932e-01,2.03835e-03,9.99999e-01,2.03835e-03,9.99999e-01
6.992925606e-01,2.30371e-03,9.99999e-01,2.30371e-03,9.99999e-01
7.027890234e-01,2.59733e-03,9.99999e-01,2.59733e-03,9.99999e-01
7.063029686e-01,2.92143e-03,9.99999e-01,2.92143e-03,9.99999e-01
7.098344834e-01,3.27836e-03,9.99999e-01,3.27836e-03,9.99999e-01
7.133836558e-01,3.67053e-03,9.99999e-01,3.67053e-03,9.99999e-01
7.169505741e-01,4.10045e-03,9.99999e-01,4.10045e-03,9.99999e-01
7.205353270e-01,4.57071e-03,9.99999e-01,4.57071e-03,9.99999e-01
7.241380036e-01,5.08399e-03,9.99999e-01,5.08399e-03,9.99999e-01
7.277586936e-01,5.64304e-03,9.99999e-01,5.64304e-03,9.99999e-01
7.313974871e-01,6.25066e-03,9.99999e-01,6.25066e-03,9.99999e-01
7.350544745e-01,6.90975e-03,9.99999e-01,6.90975e-03,9.99999e-01
7.387297469e-01,7.62321e-03,9.99999e-01,7.62321e-03,9.99999e-01
7.424233956e-01,8.39404e-03,9.99999e-01,8.39404e-03,9.99999e-01
7.461355126e-01,9.22524e-03,9.99999e-01,9.22524e-03,9.99999e-01
7.498661902e-01,1.01199e-02,9.99999e-01,1.01199e-02,9.99999e-01
7.536155211e-01,1.10810e-02,9.99999e-01,1.10810e-02,9.99999e-01
7.573835987e-01,1.21116e-02,9.99999e-01,1.21116e-02,9.99999e-01
7.611705167e-01,1.32149e-02,9.99999e-01,1.32149e-02,9.99999e-01
7.649763693e-01,1.43938e-02,9.99999e-01,1.43938e-02,9.99999e-01
7.688012511e-01,1.56516e-02,9.99999e-01,1.56516e-02,9.99999e-01
7.726452574e-01,1.69910e-02,9.99999e-01,1.69910e-02,9.99999e-01
7.765084837e-01,1.82143e-02,9.89087e-01,1.84152e-02,9.99999e-01
7.803910261e-01,1.03907e-02,5.21435e-01,1.99271e-02,9.99999e-01
7.842929812e-01,1.20031e-02,5.57517e-01,2.15295e-02,9.99999e-01
7.882144461e-01,1.23552e-02,5.31972e-01,2.32253e-02,9.99999e-01
7.921555184e-01,1.61187e-02,6.44305e-01,2.50171e-02,9.99999e-01
7.961162960e-01,2.07445e-02,7.70950e-01,2.69077e-02,9.99999e-01
8.000968774e-01,2.52523e-02,8.73799e-01,2.88995e-02,9.99999e-01
8.040973618e-01,2.91357e-02,9.40012e-01,3.09950e-02,9.99999e-01
8.081178486e-01,3.23962e-02,9.75891e-01,3.31965e-02,9.99999e-01
8.121584379e-01,3.52765e-02,9.93530e-01,3.55062e-02,9.99999e-01
8.162192301e-01,3.79095e-02,9.99561e-01,3.79262e-02,9.99999e-01
8.203003262e-01,4.04584e-02,9.99999e-01,4.04584e-02,9.99999e-01
8.244018279e-01,4.31046e-02,9.99999e-01,4.31046e-02,9.99999e-01
8.285238370e-01,4.58664e-02,9.99999e-01,4.58664e-02,9.99999e-01
8.326664562e-01,4.87454e-02,9.99999e-01,4.87454e-02,9.99999e-01
8.368297885e-01,5.17428e-02,9.99999e-01,5.17428e-02,9.99999e-01
8.410139374e-01,5.48599e-02,9.99999e-01,5.48599e-02,9.99999e-01
8.452190071e-01,5.80975e-02,9.99999e-01,5.80975e-02,9.99999e-01
8.494451021e-01,6.14566e-02,9.99999e-01,6.14566e-02,9.99999e-01
8.536923276e-01,6.49378e-02,9.99999e-01,6.49378e-02,9.99999e-01
8.579607893e-01,6.85415e-02,9.99999e-01,6.85415e-02,9.99999e-01
8.622505932e-01,7.19069e-02,9.95002e-01,7.22681e-02,9.99999e-01
8.665618462e-01,2.10804e-02,2.76945e-01,7.61176e-02,9.99999e-01
8.708946554e-01,1.25979e-02,1.57296e-01,8.00900e-02,9.99999e-01
8.752491287e-01,2.37688e-02,2.82339e-01,8.41851e-02,9.99999e-01
8.796253743e-01,4.67483e-02,5.28811e-01,8.84025e-02,9.99999e-01
8.840235012e-01,6.98190e-02,7.52833e-01,9.27416e-02,9.99999e-01
8.884436187e-01,8.68261e-02,8.93256e-01,9.72016e-02,9.99999e-01
8.928858368e-01,9.83669e-02,9.66449e-01,1.01782e-01,9.99999e-01
8.973502660e-01,1.05781e-01,9.93426e-01,1.06481e-01,9.99999e-01
9.018370173e-01,1.10761e-01,9.95180e-01,1.11297e-01,9.99999e-01
9.063462024e-01,1.01922e-01,8.76898e-01,1.16230e-01,9.99999e-01
9.108779334e-01,1.14282e-01,9.42315e-01,1.21278e-01,9.99999e-01
9.154323231e-01,1.17857e-01,9.32127e-01,1.26438e-01,9.99999e-01
9.200094847e-01,6.87087e-02,5.21666e-01,1.31710e-01,9.99999e-01
9.246095321e-01,8.69101e-02,6.33959e-01,1.37091e-01,9.99999e-01
9.292325798e-01,8.80613e-02,6.17633e-01,1.42579e-01,9.99999e-01
9.338787427e-01,9.82583e-02,6.63140e-01,1.48171e-01,9.99999e-01
9.385481364e-01,1.22467e-01,7.95933e-01,1.53866e-01,9.99999e-01
9.432408771e-01,1.38997e-01,8.70574e-01,1.59661e-01,9.99999e-01
9.479570815e-01,1.53672e-01,9.28234e-01,1.65553e-01,9.99999e-01
9.526968669e-01,1.66116e-01,9.68381e-01,1.71540e-01,9.99999e-01
9.574603512e-01,1.75635e-01,9.88831e-01,1.77619e-01,9.99999e-01
9.622476530e-01,1.83121e-01,9.96378e-01,1.83787e-01,9.99999e-01
9.670588912e-01,1.89934e-01,9.99439e-01,1.90040e-01,9.99999e-01
9.718941857e-01,1.96376e-01,9.99998e-01,1.96377e-01,9.99999e-01
9.767536566e-01,2.02793e-01,9.99999e-01,2.02793e-01,9.99999e-01
9.816374249e-01,2.09286e-01,9.99999e-01,2.09286e-01,9.99999e-01
9.865456120e-01,2.15853e-01,9.99999e-01,2.15853e-01,9.99999e-01
9.914783401e-01,2.22490e-01,9.99999e-01,2.22490e-01,9.99999e-01
9.964357318e-01,2.29193e-01,9.99999e-01,2.29193e-01,9.99999e-01
1.001417910e+00,2.35961e-01,9.99999e-01,2.35961e-01,9.99999e-01
1.006425000e+00,2.42788e-01,9.99999e-01,2.42788e-01,9.99999e-01
1.011457125e+00,2.49672e-01,9.99999e-01,2.49672e-01,9.99999e-01
1.016514411e+00,2.56609e-01,9.99995e-01,2.56610e-01,9.99999e-01
1.021596983e+00,2.62174e-01,9.94595e-01,2.63598e-01,9.99999e-01
1.026704968e+00,2.59405e-01,9.58513e-01,2.70633e-01,9.99999e-01
1.031838492e+00,7.39891e-02,2.66425e-01,2.77710e-01,9.99999e-01
1.036997685e+00,1.47256e-06,5.16998e-06,2.84828e-01,9.99999e-01
1.042182673e+00,2.71246e-04,9.28982e-04,2.91982e-01,9.99999e-01
1.047393587e+00,1.20142e-05,4.01586e-05,2.99169e-01,9.99999e-01
1.052630555e+00,1.53041e-10,4.99505e-10,3.06386e-01,9.99999e-01
1.057893707e+00,5.05219e-09,1.61088e-08,3.13629e-01,9.99999e-01
1.063183176e+00,7.65002e-07,2.38396e-06,3.20895e-01,9.99999e-01
1.068499092e+00,1.13096e-04,3.44613e-04,3.28181e-01,9.99999e-01
1.073841587e+00,9.86485e-04,2.94049e-03,3.35484e-01,9.99999e-01
1.079210795e+00,1.24688e-02,3.63735e-02,3.42800e-01,9.99999e-01
1.084606849e+00,4.94948e-02,1.41363e-01,3.50126e-01,9.99999e-01
1.090029883e+00,1.34661e-01,3.76717e-01,3.57460e-01,9.99999e-01
1.095480033e+00,2.24297e-01,6.14853e-01,3.64798e-01,9.99999e-01
1.100957433e+00,3.02476e-01,8.12807e-01,3.72137e-01,9.99999e-01
1.106462220e+00,3.48364e-01,9.18017e-01,3.79474e-01,9.99999e-01
1.111994531e+00,3.77306e-01,9.75436e-01,3.86807e-01,9.99999e-01
1.117554504e+00,3.92526e-01,9.95921e-01,3.94133e-01,9.99999e-01
1.123142276e+00,4.01439e-01,9.99976e-01,4.01448e-01,9.99999e-01
1.128757988e+00,4.08751e-01,9.99999e-01,4.08751e-01,9.99999e-01
1.134401778e+00,4.16038e-01,9.99999e-01,4.16038e-01,9.99999e-01
1.140073787e+00,4.23308e-01,9.99999e-01,4.23308e-01,9.99999e-01
1.145774156e+00,4.30557e-01,9.99999e-01,4.30557e-01,9.99999e-01
1.151503026e+00,4.37784e-01,9.99999e-01,4.37784e-01,9.99999e-01
1.157260541e+00,4.44985e-01,9.99999e-01,4.44985e-01,9.99999e-01
1.163046844e+00,4.52160e-01,9.99999e-01,4.52160e-01,9.99999e-01
1.168862078e+00,4.59304e-01,9.99999e-01,4.59304e-01,9.99999e-01
1.174706389e+00,4.66418e-01,9.99999e-01,4.66418e-01,9.99999e-01
1.180579921e+00,4.73497e-01,9.99999e-01,4.73497e-01,9.99999e-01
1.186482820e+00,4.77145e-01,9.92931e-01,4.80541e-01,9.99999e-01
1.192415234e+00,4.08720e-01,8.38317e-01,4.87548e-01,9.99999e-01
1.198377311e+00,2.86371e-02,5.79094e-02,4.94515e-01,9.99999e-01
1.204369197e+00,6.27469e-278,1.25133e-277,5.01442e-01,9.99999e-01
1.210391043e+00,7.71386e-211,1.51750e-210,5.08325e-01,9.99999e-01
1.216442998e+00,1.43349e-183,2.78259e-183,5.15165e-01,9.99999e-01
1.222525213e+00,1.95382e-141,3.74325e-141,5.21959e-01,9.99999e-01
1.228637839e+00,9.73031e-107,1.84040e-106,5.28705e-01,9.99999e-01
1.234781029e+00,5.97874e-70,1.11668e-69,5.35403e-01,9.99999e-01
1.240954934e+00,8.14200e-42,1.50207e-41,5.42051e-01,9.99999e-01
1.247159708e+00,4.65134e-19,8.47782e-19,5.48647e-01,9.99999e-01
1.253395507e+00,5.28983e-14,9.52793e-14,5.55192e-01,9.99999e-01
1.259662485e+00,1.66280e-07,2.96040e-07,5.61682e-01,9.99999e-01
1.265960797e+00,2.53042e-04,4.45404e-04,5.68118e-01,9.99999e-01
1.272290601e+00,4.14782e-03,7.21989e-03,5.74499e-01,9.99999e-01
1.278652054e+00,1.46820e-04,2.52779e-04,5.80823e-01,9.99999e-01
1.285045314e+00,1.06832e-17,1.81969e-17,5.87090e-01,9.99999e-01
1.291470541e+00,6.98771e-19,1.17777e-18,5.93299e-01,9.99999e-01
1.297927893e+00,3.95859e-06,6.60372e-06,5.99448e-01,9.99999e-01
1.304417533e+00,1.51541e-05,2.50258e-05,6.05538e-01,9.99999e-01
1.310939621e+00,2.64223e-09,4.32041e-09,6.11568e-01,9.99999e-01
1.317494319e+00,1.34182e-66,2.17286e-66,6.17537e-01,9.99999e-01
1.324081790e+00,3.27461e-28,5.25244e-28,6.23445e-01,9.99999e-01
1.330702199e+00,3.72842e-28,5.92480e-28,6.29291e-01,9.99999e-01
1.337355710e+00,3.69723e-25,5.82172e-25,6.35074e-01,9.99999e-01
1.344042489e+00,5.87760e-32,9.17234e-32,6.40795e-01,9.99999e-01
1.350762701e+00,4.97115e-20,7.68988e-20,6.46453e-01,9.99999e-01
1.357516515e+00,5.97096e-14,9.15724e-14,6.52048e-01,9.99999e-01
1.364304097e+00,1.97804e-07,3.00807e-07,6.57579e-01,9.99999e-01
1.371125618e+00,2.11709e-06,3.19297e-06,6.63046e-01,9.99999e-01
1.377981246e+00,4.85867e-04,7.26855e-04,6.68450e-01,9.99999e-01
1.384871152e+00,5.40444e-04,8.02096e-04,6.73789e-01,9.99999e-01
1.391795508e+00,8.06027e-03,1.18697e-02,6.79064e-01,9.99999e-01
1.398754485e+00,2.00114e-02,2.92446e-02,6.84276e-01,9.99999e-01
1.405748258e+00,7.38254e-02,1.07083e-01,6.89423e-01,9.99999e-01
1.412776999e+00,1.50928e-01,2.17317e-01,6.94506e-01,9.99999e-01
1.419840884e+00,1.22690e-02,1.75390e-02,6.99525e-01,9.99999e-01
1.426940089e+00,0.00000e+00,0.00000e+00,7.04480e-01,9.99999e-01
1.434074789e+00,0.00000e+00,0.00000e+00,7.09372e-01,9.99999e-01
1.441245163e+00,0.00000e+00,0.00000e+00,7.14199e-01,9.99999e-01
1.448451389e+00,0.00000e+00,0.00000e+00,7.18963e-01,9.99999e-01
1.455693646e+00,0.00000e+00,0.00000e+00,7.23664e-01,9.99999e-01
1.462972114e+00,0.00000e+00,0.00000e+00,7.28302e-01,9.99999e-01
1.470286975e+00,0.00000e+00,0.00000e+00,7.32877e-01,9.99999e-01
1.477638409e+00,4.11777e-159,5.58425e-159,7.37390e-01,9.99999e-01
1.485026601e+00,1.10231e-123,1.48591e-123,7.41841e-01,9.99999e-01
1.492451734e+00,7.04778e-63,9.44452e-63,7.46229e-01,9.99999e-01
1.499913993e+00,7.82101e-43,1.04203e-42,7.50556e-01,9.99999e-01
1.507413563e+00,3.50881e-43,4.64852e-43,7.54823e-01,9.99999e-01
1.514950631e+00,9.17469e-92,1.20874e-91,7.59028e-01,9.99999e-01
1.522525384e+00,4.13696e-257,5.42073e-257,7.63173e-01,9.99999e-01
1.530138011e+00,1.74131e-284,2.26953e-284,7.67258e-01,9.99999e-01
1.537788701e+00,1.97591e-122,2.56184e-122,7.71284e-01,9.99999e-01
1.545477645e+00,1.30926e-43,1.68883e-43,7.75250e-01,9.99999e-01
1.553205033e+00,1.09325e-41,1.40311e-41,7.79158e-01,9.99999e-01
1.560971058e+00,1.43165e-118,1.82839e-118,7.83008e-01,9.99999e-01
1.568775913e+00,0.00000e+00,0.00000e+00,7.86801e-01,9.99999e-01
1.576619793e+00,0.00000e+00,0.00000e+00,7.90536e-01,9.99999e-01
1.584502892e+00,0.00000e+00,0.00000e+00,7.94215e-01,9.99999e-01
1.592425406e+00,0.00000e+00,0.00000e+00,7.97837e-01,9.99999e-01
1.600387533e+00,0.00000e+00,0.00000e+00,8.01405e-01,9.99999e-01
1.608389471e+00,0.00000e+00,0.00000e+00,8.04917e-01,9.99999e-01
1.616431418e+00,0.00000e+00,0.00000e+00,8.08374e-01,9.99999e-01
1.624513575e+00,0.00000e+00,0.00000e+00,8.11778e-01,9.99999e-01
1.632636143e+00,0.00000e+00,0.00000e+00,8.15129e-01,9.99999e-01
1.640799324e+00,0.00000e+00,0.00000e+00,8.18427e-01,9.99999e-01
1.649003321e+00,2.36357e-259,2.87653e-259,8.21672e-01,9.99999e-01
1.657248337e+00,2.71056e-256,3.28606e-256,8.24866e-01,9.99999e-01
1.665534579e+00,1.17332e-180,1.41703e-180,8.28009e-01,9.99999e-01
1.673862252e+00,2.63083e-143,3.16547e-143,8.31102e-01,9.99999e-01
1.682231563e+00,6.04692e-76,7.24925e-76,8.34144e-01,9.99999e-01
1.690642721e+00,3.12337e-48,3.73100e-48,8.37138e-01,9.99999e-01
1.699095934e+00,3.55441e-23,4.23103e-23,8.40082e-01,9.99999e-01
1.707591414e+00,4.12591e-14,4.89444e-14,8.42979e-01,9.99999e-01
1.716129371e+00,5.14925e-08,6.08782e-08,8.45828e-01,9.99999e-01
1.724710018e+00,1.53142e-05,1.80458e-05,8.48630e-01,9.99999e-01
1.733333568e+00,1.63583e-03,1.92137e-03,8.51386e-01,9.99999e-01
1.742000236e+00,1.02571e-03,1.20093e-03,8.54095e-01,9.99999e-01
1.750710237e+00,7.20187e-21,8.40593e-21,8.56760e-01,9.99999e-01
1.759463788e+00,6.61076e-162,7.69247e-162,8.59381e-01,9.99999e-01
1.768261107e+00,2.92735e-159,3.39617e-159,8.61957e-01,9.99999e-01
1.777102413e+00,3.04583e-159,3.52327e-159,8.64490e-01,9.99999e-01
1.785987925e+00,7.54411e-142,8.70159e-142,8.66980e-01,9.99999e-01
1.794917864e+00,1.09268e-144,1.25678e-144,8.69428e-01,9.99999e-01
1.803892454e+00,8.72214e-131,1.00044e-130,8.71834e-01,9.99999e-01
1.812911916e+00,6.34962e-157,7.26335e-157,8.74199e-01,9.99999e-01
1.821976476e+00,2.27687e-113,2.59761e-113,8.76524e-01,9.99999e-01
1.831086358e+00,2.36801e-104,2.69456e-104,8.78808e-01,9.99999e-01
1.840241790e+00,7.59297e-62,8.61805e-62,8.81054e-01,9.99999e-01
1.849442999e+00,2.56404e-60,2.90292e-60,8.83260e-01,9.99999e-01
1.858690214e+00,7.99092e-58,9.02490e-58,8.85429e-01,9.99999e-01
1.867983665e+00,3.65272e-92,4.11546e-92,8.87559e-01,9.99999e-01
1.877323583e+00,2.63952e-304,2.96691e-304,8.89653e-01,9.99999e-01
