#,Wave/freq,Total,CO2,Rayleigh,CIA
4.000000000e-01,3.67053e-25,9.99999e-01,3.67053e-25,9.99999e-01
4.020000000e-01,1.11661e-24,9.99999e-01,1.11661e-24,9.99999e-01
4.040100000e-01,3.31907e-24,9.99999e-01,3.31907e-24,9.99999e-01
4.060300500e-01,9.65571e-24,9.99999e-01,9.65571e-24,9.99999e-01
4.080602003e-01,2.75037e-23,9.99999e-01,2.75037e-23,9.99999e-01
4.101005013e-01,7.67396e-23,9.99999e-01,7.67396e-23,9.99999e-01
4.121510038e-01,2.09819e-22,9.99999e-01,2.09819e-22,9.99999e-01
4.142117588e-01,5.62396e-22,9.99999e-01,5.62396e-22,9.99999e-01
4.162828176e-01,1.47837e-21,9.99999e-01,1.47837e-21,9.99999e-01
4.183642317e-01,3.81268e-21,9.99999e-01,3.81268e-21,9.99999e-01
4.204560528e-01,9.65054e-21,9.99999e-01,9.65054e-21,9.99999e-01
4.225583331e-01,2.39831e-20,9.99999e-01,2.39831e-20,9.99999e-01
4.246711247e-01,5.85399e-20,9.99999e-01,5.85399e-20,9.99999e-01
4.267944804e-01,1.40392e-19,9.99999e-01,1.40392e-19,9.99999e-01
4.289284528e-01,3.30924e-19,9.99999e-01,3.30924e-19,9.99999e-01
4.310730950e-01,7.66938e-19,9.99999e-01,7.66938e-19,9.99999e-01
4.332284605e-01,1.74816e-18,9.99999e-01,1.74816e-18,9.99999e-01
4.353946028e-01,3.92043e-18,9.99999e-01,3.92043e-18,9.99999e-01
4.375715758e-01,8.65284e-18,9.99999e-01,8.65284e-18,9.99999e-01
4.397594337e-01,1.88015e-17,9.99999e-01,1.88015e-17,9.99999e-01
4.419582309e-01,4.02317e-17,9.99999e-01,4.02317e-17,9.99999e-01
4.441680220e-01,8.48044e-17,9.99999e-01,8.48044e-17,9.99999e-01
4.463888621e-01,1.76146e-16,9.99999e-01,1.76146e-16,9.99999e-01
4.486208064e-01,3.60625e-16,9.99999e-01,3.60625e-16,9.99999e-01
4.508639105e-01,7.27933e-16,9.99999e-01,7.27933e-16,9.99999e-01
4.531182300e-01,1.44911e-15,9.99999e-01,1.44911e-15,9.99999e-01
4.553838212e-01,2.84582e-15,9.99999e-01,2.84582e-15,9.99999e-01
4.576607403e-01,5.51472e-15,9.99999e-01,5.51472e-15,9.99999e-01
4.599490440e-01,1.05478e-14,9.99999e-01,1.05478e-14,9.99999e-01
4.622487892e-01,1.99178e-14,9.99999e-01,1.99178e-14,9.99999e-01
4.645600332e-01,3.71419e-14,9.99999e-01,3.71419e-14,9.99999e-01
4.668828333e-01,6.84137e-14,9.99999e-01,6.84137e-14,9.99999e-01
4.692172475e-01,1.24504e-13,9.99999e-01,1.24504e-13,9.99999e-01
4.715633337e-01,2.23915e-13,9.99999e-01,2.23915e-13,9.99999e-01
4.739211504e-01,3.98062e-13,9.99999e-01,3.98062e-13,9.99999e-01
4.762907561e-01,6.99653e-13,9.99999e-01,6.99653e-13,9.99999e-01
4.786722099e-01,1.21612e-12,9.99999e-01,1.21612e-12,9.99999e-01
4.810655710e-01,2.09087e-12,9.99999e-01,2.09087e-12,9.99999e-01
4.834708988e-01,3.55656e-12,9.99999e-01,3.55656e-12,9.99999e-01
4.858882533e-01,5.98654e-12,9.99999e-01,5.98654e-12,9.99999e-01
4.883176946e-01,9.97365e-12,9.99999e-01,9.97365e-12,9.99999e-01
4.907592831e-01,1.64495e-11,9.99999e-01,1.64495e-11,9.99999e-01
4.932130795e-01,2.68634e-11,9.99999e-01,2.68634e-11,9.99999e-01
4.956791449e-01,4.34472e-11,9.99999e-01,4.34472e-11,9.99999e-01
4.981575406e-01,6.96046e-11,9.99999e-01,6.96046e-11,9.99999e-01
5.006483283e-01,1.10477e-10,9.99999e-01,1.10477e-10,9.99999e-01
5.031515699e-01,1.73756e-10,9.99999e-01,1.73756e-10,9.99999e-01
5.056673278e-01,2.70848e-10,9.99999e-01,2.70848e-10,9.99999e-01
5.081956644e-01,4.18508e-10,9.99999e-01,4.18508e-10,9.99999e-01
5.107366428e-01,6.41133e-10,9.99999e-01,6.41133e-10,9.99999e-01
5.132903260e-01,9.73944e-10,9.99999e-01,9.73944e-10,9.99999e-01
5.158567776e-01,1.46735e-09,9.99999e-01,1.46735e-09,9.99999e-01
5.184360615e-01,2.19288e-09,9.99999e-01,2.19288e-09,9.99999e-01
5.210282418e-01,3.25126e-09,9.99999e-01,3.25126e-09,9.99999e-01
5.236333830e-01,4.78310e-09,9.99999e-01,4.78310e-09,9.99999e-01
5.262515499e-01,6.98323e-09,9.99999e-01,6.98323e-09,9.99999e-01
5.288828077e-01,1.01194e-08,9.99999e-01,1.01194e-08,9.99999e-01
5.315272217e-01,1.45571e-08,9.99999e-01,1.45571e-08,9.99999e-01
5.341848578e-01,2.07909e-08,9.99999e-01,2.07909e-08,9.99999e-01
5.368557821e-01,2.94859e-08,9.99999e-01,2.94859e-08,9.99999e-01
5.395400610e-01,4.15296e-08,9.99999e-01,4.15296e-08,9.99999e-01
5.422377613e-01,5.80983e-08,9.99999e-01,5.80983e-08,9.99999e-01
5.449489501e-01,8.07401e-08,9.99999e-01,8.07401e-08,9.99999e-01
5.476736949e-01,1.11479e-07,9.99999e-01,1.11479e-07,9.99999e-01
5.504120634e-01,1.52942e-07,9.99999e-01,1.52942e-07,9.99999e-01
5.531641237e-01,2.08521e-07,9.99999e-01,2.08521e-07,9.99999e-01
5.559299443e-01,2.82561e-07,9.99999e-01,2.82561e-07,9.99999e-01
5.587095940e-01,3.80601e-07,9.99999e-01,3.80601e-07,9.99999e-01
5.615031420e-01,5.09649e-07,9.99999e-01,5.09649e-07,9.99999e-01
5.643106577e-01,6.78529e-07,9.99999e-01,6.78529e-07,9.99999e-01
5.671322110e-01,8.98276e-07,9.99999e-01,8.98276e-07,9.99999e-01
5.699678720e-01,1.18262e-06,9.99999e-01,1.18262e-06,9.99999e-01
5.728177114e-01,1.54854e-06,9.99999e-01,1.54854e-06,9.99999e-01
5.756818000e-01,2.01690e-06,9.99999e-01,2.01690e-06,9.99999e-01
5.785602090e-01,2.61325e-06,9.99999e-01,2.61325e-06,9.99999e-01
5.814530100e-01,3.36865e-06,9.99999e-01,3.36865e-06,9.99999e-01
5.843602750e-01,4.32068e-06,9.99999e-01,4.32068e-06,9.99999e-01
5.872820764e-01,5.51459e-06,9.99999e-01,5.51459e-06,9.99999e-01
5.902184868e-01,7.00456e-06,9.99999e-01,7.00456e-06,9.99999e-01
5.931695792e-01,8.85519e-06,9.99999e-01,8.85519e-06,9.99999e-01
5.961354271e-01,1.11430e-05,9.99999e-01,1.11430e-05,9.99999e-01
5.991161043e-01,1.39584e-05,9.99999e-01,1.39584e-05,9.99999e-01
6.021116848e-01,1.74076e-05,9.99999e-01,1.74076e-05,9.99999e-01
6.051222432e-01,2.16145e-05,9.99999e-01,2.16145e-05,9.99999e-01
6.081478544e-01,2.67237e-05,9.99999e-01,2.67237e-05,9.99999e-01
6.111885937e-01,3.29023e-05,9.99999e-01,3.29023e-05,9.99999e-01
6.142445367e-01,4.03434e-05,9.99999e-01,4.03434e-05,9.99999e-01
6.173157594e-01,4.92684e-05,9.99999e-01,4.92684e-05,9.99999e-01
6.204023382e-01,5.99310e-05,9.99999e-01,5.99310e-05,9.99999e-01
6.235043498e-01,7.26195e-05,9.99999e-01,7.26195e-05,9.99999e-01
6.266218716e-01,8.76612e-05,9.99999e-01,8.76612e-05,9.99999e-01
6.297549810e-01,1.05426e-04,9.99999e-01,1.05426e-04,9.99999e-01
6.329037559e-01,1.26329e-04,9.99999e-01,1.26329e-04,9.99999e-01
6.360682746e-01,1.50837e-04,9.99999e-01,1.50837e-04,9.99999e-01
6.392486160e-01,1.79470e-04,9.99999e-01,1.79470e-04,9.99999e-01
6.424448591e-01,2.12807e-04,9.99999e-01,2.12807e-04,9.99999e-01
6.456570834e-01,2.51488e-04,9.99999e-01,2.51488e-04,9.99999e-01
6.488853688e-01,2.96221e-04,9.99999e-01,2.96221e-04,9.99999e-01
6.521297956e-01,3.47784e-04,9.99999e-01,3.47784e-04,9.99999e-01
6.553904446e-01,4.07031e-04,9.99999e-01,4.07031e-04,9.99999e-01
6.586673968e-01,4.74893e-04,9.99999e-01,4.74893e-04,9.99999e-01
6.619607338e-01,5.52384e-04,9.99999e-01,5.52384e-04,9.99999e-01
6.652705375e-01,6.40605e-04,9.99999e-01,6.40605e-04,9.99999e-01
6.685968902e-01,7.40744e-04,9.99999e-01,7.40744e-04,9.99999e-01
6.719398746e-01,8.54082e-04,9.99999e-01,8.54082e-04,9.99999e-01
6.752995740e-01,9.81997e-04,9.99999e-01,9.81997e-04,9.99999e-01
6.786760719e-01,1.12596e-03,9.99999e-01,1.12596e-03,9.99999e-01
6.820694522e-01,1.28755e-03,9.99999e-01,1.28755e-03,9.99999e-01
6.854797995e-01,1.46843e-03,9.99999e-01,1.46843e-03,9.99999e-01
6.889071985e-01,1.67038e-03,9.99999e-01,1.67038e-03,9.99999e-01
6.923517345e-01,1.89527e-03,9.99999e-01,1.89527e-03,9.99999e-01
6.958134932e-01,2.14508e-03,9.99999e-01,2.14508e-03,9.99999e-01
6.992925606e-01,2.42189e-03,9.99999e-01,2.42189e-03,9.99999e-01
7.027890234e-01,2.72787e-03,9.99999e-01,2.72787e-03,9.99999e-01
7.063029686e-01,3.06529e-03,9.99999e-01,3.06529e-03,9.99999e-01
7.098344834e-01,3.43653e-03,9.99999e-01,3.43653e-03,9.99999e-01
7.133836558e-01,3.84404e-03,9.99999e-01,3.84404e-03,9.99999e-01
7.169505741e-01,4.29037e-03,9.99999e-01,4.29037e-03,9.99999e-01
7.205353270e-01,4.77814e-03,9.99999e-01,4.77814e-03,9.99999e-01
7.241380036e-01,5.31006e-03,9.99999e-01,5.31006e-03,9.99999e-01
7.277586936e-01,5.88890e-03,9.99999e-01,5.88890e-03,9.99999e-01
7.313974871e-01,6.51751e-03,9.99999e-01,6.51751e-03,9.99999e-01
7.350544745e-01,7.19878e-03,9.99999e-01,7.19878e-03,9.99999e-01
7.387297469e-01,7.93566e-03,9.99999e-01,7.93566e-03,9.99999e-01
7.424233956e-01,8.73115e-03,9.99999e-01,8.73115e-03,9.99999e-01
7.461355126e-01,9.58828e-03,9.99999e-01,9.58828e-03,9.99999e-01
7.498661902e-01,1.05101e-02,9.99999e-01,1.05101e-02,9.99999e-01
7.536155211e-01,1.14996e-02,9.99999e-01,1.14996e-02,9.99999e-01
7.573835987e-01,1.25600e-02,9.99999e-01,1.25600e-02,9.99999e-01
7.611705167e-01,1.36943e-02,9.99999e-01,1.36943e-02,9.99999e-01
7.649763693e-01,1.49056e-02,9.99999e-01,1.49056e-02,9.99999e-01
7.688012511e-01,1.61968e-02,9.99999e-01,1.61968e-02,9.99999e-01
7.726452574e-01,1.75710e-02,9.99999e-01,1.75710e-02,9.99999e-01
7.765084837e-01,1.90312e-02,9.99999e-01,1.90312e-02,9.99999e-01
7.803910261e-01,1.81060e-02,8.79775e-01,2.05803e-02,9.99999e-01
7.842929812e-01,1.05343e-02,4.74069e-01,2.22211e-02,9.99999e-01
7.882144461e-01,1.10970e-02,4.63218e-01,2.39563e-02,9.99999e-01
7.921555184e-01,1.57418e-02,6.10413e-01,2.57888e-02,9.99999e-01
7.961162960e-01,1.96938e-02,7.10428e-01,2.77210e-02,9.99999e-01
8.000968774e-01,2.47153e-02,8.30611e-01,2.97555e-02,9.99999e-01
8.040973618e-01,2.89370e-02,9.07265e-01,3.18947e-02,9.99999e-01
8.081178486e-01,3.26573e-02,9.56546e-01,3.41408e-02,9.99999e-01
8.121584379e-01,3.59914e-02,9.86172e-01,3.64960e-02,9.99999e-01
8.162192301e-01,3.88425e-02,9.96924e-01,3.89623e-02,9.99999e-01
8.203003262e-01,4.15393e-02,9.99945e-01,4.15415e-02,9.99999e-01
8.244018279e-01,4.42355e-02,9.99999e-01,4.42355e-02,9.99999e-01
8.285238370e-01,4.70457e-02,9.99999e-01,4.70457e-02,9.99999e-01
8.326664562e-01,4.99737e-02,9.99999e-01,4.99737e-02,9.99999e-01
8.368297885e-01,5.30206e-02,9.99999e-01,5.30206e-02,9.99999e-01
8.410139374e-01,5.61875e-02,9.99999e-01,5.61875e-02,9.99999e-01
8.452190071e-01,5.94754e-02,9.99999e-01,5.94754e-02,9.99999e-01
8.494451021e-01,6.28850e-02,9.99999e-01,6.28850e-02,9.99999e-01
8.536923276e-01,6.64170e-02,9.99999e-01,6.64170e-02,9.99999e-01
8.579607893e-01,7.00716e-02,9.99999e-01,7.00716e-02,9.99999e-01
8.622505932e-01,7.38491e-02,9.99999e-01,7.38491e-02,9.99999e-01
8.665618462e-01,6.58657e-02,8.47151e-01,7.77496e-02,9.99999e-01
8.708946554e-01,1.39205e-02,1.70233e-01,8.17730e-02,9.99999e-01
8.752491287e-01,1.84554e-02,2.14801e-01,8.59188e-02,9.99999e-01
8.796253743e-01,3.74977e-02,4.15778e-01,9.01868e-02,9.99999e-01
8.840235012e-01,5.90619e-02,6.24491e-01,9.45761e-02,9.99999e-01
8.884436187e-01,8.19550e-02,8.27109e-01,9.90860e-02,9.99999e-01
8.928858368e-01,9.60379e-02,9.25974e-01,1.03715e-01,9.99999e-01
8.973502660e-01,1.06430e-01,9.81255e-01,1.08463e-01,9.99999e-01
9.018370173e-01,1.13091e-01,9.97907e-01,1.13328e-01,9.99999e-01
9.063462024e-01,1.12709e-01,9.52667e-01,1.18309e-01,9.99999e-01
9.108779334e-01,1.09406e-01,8.86568e-01,1.23404e-01,9.99999e-01
9.154323231e-01,1.24957e-01,9.71593e-01,1.28610e-01,9.99999e-01
9.200094847e-01,9.86204e-02,7.36370e-01,1.33928e-01,9.99999e-01
9.246095321e-01,7.79718e-02,5.59526e-01,1.39353e-01,9.99999e-01
9.292325798e-01,9.39302e-02,6.48309e-01,1.44885e-01,9.99999e-01
9.338787427e-01,9.75024e-02,6.47770e-01,1.50520e-01,9.99999e-01
9.385481364e-01,1.12983e-01,7.23061e-01,1.56257e-01,9.99999e-01
9.432408771e-01,1.32413e-01,8.16894e-01,1.62092e-01,9.99999e-01
9.479570815e-01,1.51518e-01,9.01761e-01,1.68024e-01,9.99999e-01
9.526968669e-01,1.65573e-01,9.51298e-01,1.74049e-01,9.99999e-01
9.574603512e-01,1.76347e-01,9.78806e-01,1.80165e-01,9.99999e-01
9.622476530e-01,1.85125e-01,9.93326e-01,1.86369e-01,9.99999e-01
9.670588912e-01,1.92269e-01,9.97985e-01,1.92657e-01,9.99999e-01
9.718941857e-01,1.98998e-01,9.99852e-01,1.99027e-01,9.99999e-01
9.767536566e-01,2.05476e-01,9.99999e-01,2.05476e-01,9.99999e-01
9.816374249e-01,2.12000e-01,9.99999e-01,2.12000e-01,9.99999e-01
9.865456120e-01,2.18596e-01,9.99999e-01,2.18596e-01,9.99999e-01
9.914783401e-01,2.25261e-01,9.99999e-01,2.25261e-01,9.99999e-01
9.964357318e-01,2.31991e-01,9.99999e-01,2.31991e-01,9.99999e-01
1.001417910e+00,2.38784e-01,9.99999e-01,2.38784e-01,9.99999e-01
1.006425000e+00,2.45636e-01,9.99999e-01,2.45636e-01,9.99999e-01
1.011457125e+00,2.52543e-01,9.99999e-01,2.52543e-01,9.99999e-01
1.016514411e+00,2.59502e-01,9.99999e-01,2.59502e-01,9.99999e-01
1.021596983e+00,2.66450e-01,9.99776e-01,2.66509e-01,9.99999e-01
1.026704968e+00,2.68324e-01,9.80851e-01,2.73562e-01,9.99999e-01
1.031838492e+00,2.45334e-01,8.74141e-01,2.80657e-01,9.99999e-01
1.036997685e+00,7.43862e-03,2.58474e-02,2.87790e-01,9.99999e-01
1.042182673e+00,6.65911e-05,2.25765e-04,2.94958e-01,9.99999e-01
1.047393587e+00,1.97458e-04,6.53494e-04,3.02157e-01,9.99999e-01
1.052630555e+00,1.27429e-10,4.11876e-10,3.09385e-01,9.99999e-01
1.057893707e+00,4.61859e-10,1.45863e-09,3.16639e-01,9.99999e-01
1.063183176e+00,1.52007e-07,4.69284e-07,3.23913e-01,9.99999e-01
1.068499092e+00,3.87353e-06,1.16952e-05,3.31207e-01,9.99999e-01
1.073841587e+00,1.84768e-04,5.45819e-04,3.38515e-01,9.99999e-01
1.079210795e+00,3.27034e-03,9.45633e-03,3.45836e-01,9.99999e-01
1.084606849e+00,2.32915e-02,6.59507e-02,3.53166e-01,9.99999e-01
1.090029883e+00,8.59906e-02,2.38530e-01,3.60502e-01,9.99999e-01
1.095480033e+00,1.80178e-01,4.89825e-01,3.67840e-01,9.99999e-01
1.100957433e+00,2.64962e-01,7.06226e-01,3.75179e-01,9.99999e-01
1.106462220e+00,3.31004e-01,8.65336e-01,3.82515e-01,9.99999e-01
1.111994531e+00,3.69442e-01,9.47662e-01,3.89845e-01,9.99999e-01
1.117554504e+00,3.91944e-01,9.86848e-01,3.97167e-01,9.99999e-01
1.123142276e+00,4.04122e-01,9.99120e-01,4.04478e-01,9.99999e-01
1.128757988e+00,4.11774e-01,9.99999e-01,4.11774e-01,9.99999e-01
1.134401778e+00,4.19055e-01,9.99999e-01,4.19055e-01,9.99999e-01
1.140073787e+00,4.26316e-01,9.99999e-01,4.26316e-01,9.99999e-01
1.145774156e+00,4.33556e-01,9.99999e-01,4.33556e-01,9.99999e-01
1.151503026e+00,4.40773e-01,9.99999e-01,4.40773e-01,9.99999e-01
1.157260541e+00,4.47963e-01,9.99999e-01,4.47963e-01,9.99999e-01
1.163046844e+00,4.55126e-01,9.99999e-01,4.55126e-01,9.99999e-01
1.168862078e+00,4.62257e-01,9.99999e-01,4.62257e-01,9.99999e-01
1.174706389e+00,4.69357e-01,9.99999e-01,4.69357e-01,9.99999e-01
1.180579921e+00,4.76422e-01,9.99999e-01,4.76422e-01,9.99999e-01
1.186482820e+00,4.83443e-01,9.99982e-01,4.83451e-01,9.99999e-01
1.192415234e+00,4.60100e-01,9.38134e-01,4.90441e-01,9.99999e-01
1.198377311e+00,2.39395e-01,4.81300e-01,4.97392e-01,9.99999e-01
1.204369197e+00,5.13839e-51,1.01891e-50,5.04301e-01,9.99999e-01
1.210391043e+00,9.17029e-212,1.79399e-211,5.11167e-01,9.99999e-01
1.216442998e+00,5.08753e-183,9.82172e-183,5.17987e-01,9.99999e-01
1.222525213e+00,2.99509e-180,5.70752e-180,5.24761e-01,9.99999e-01
1.228637839e+00,1.10670e-138,2.08227e-138,5.31488e-01,9.99999e-01
1.234781029e+00,1.12754e-104,2.09516e-104,5.38165e-01,9.99999e-01
1.240954934e+00,2.47680e-56,4.54632e-56,5.44792e-01,9.99999e-01
1.247159708e+00,1.57572e-35,2.85785e-35,5.51367e-01,9.99999e-01
1.253395507e+00,7.02925e-18,1.25997e-17,5.57889e-01,9.99999e-01
1.259662485e+00,7.18668e-11,1.27343e-10,5.64357e-01,9.99999e-01
1.265960797e+00,6.26395e-06,1.09745e-05,5.70771e-01,9.99999e-01
1.272290601e+00,1.41783e-03,2.45669e-03,5.77128e-01,9.99999e-01
1.278652054e+00,2.34964e-03,4.02729e-03,5.83428e-01,9.99999e-01
1.285045314e+00,1.21916e-07,2.06753e-07,5.89671e-01,9.99999e-01
1.291470541e+00,6.81391e-24,1.14355e-23,5.95855e-01,9.99999e-01
1.297927893e+00,1.70139e-09,2.82632e-09,6.01980e-01,9.99999e-01
1.304417533e+00,1.72686e-05,2.84002e-05,6.08046e-01,9.99999e-01
1.310939621e+00,5.88870e-06,9.58992e-06,6.14050e-01,9.99999e-01
1.317494319e+00,6.56341e-71,1.05862e-70,6.19994e-01,9.99999e-01
1.324081790e+00,5.99367e-46,9.57643e-46,6.25876e-01,9.99999e-01
1.330702199e+00,2.54635e-27,4.03098e-27,6.31696e-01,9.99999e-01
1.337355710e+00,1.42548e-24,2.23620e-24,6.37454e-01,9.99999e-01
1.344042489e+00,9.84209e-25,1.53030e-24,6.43148e-01,9.99999e-01
1.350762701e+00,1.05258e-27,1.62239e-27,6.48780e-01,9.99999e-01
1.357516515e+00,3.61558e-16,5.52546e-16,6.54348e-01,9.99999e-01
1.364304097e+00,4.53331e-12,6.87018e-12,6.59853e-01,9.99999e-01
1.371125618e+00,1.41361e-06,2.12479e-06,6.65294e-01,9.99999e-01
1.377981246e+00,7.45990e-06,1.11230e-05,6.70671e-01,9.99999e-01
1.384871152e+00,8.21679e-04,1.21553e-03,6.75984e-01,9.99999e-01
1.391795508e+00,1.47883e-03,2.17082e-03,6.81233e-01,9.99999e-01
1.398754485e+00,1.29572e-02,1.88765e-02,6.86418e-01,9.99999e-01
1.405748258e+00,3.93351e-02,5.68805e-02,6.91538e-01,9.99999e-01
1.412776999e+00,1.10408e-01,1.58496e-01,6.96595e-01,9.99999e-01
1.419840884e+00,1.20920e-01,1.72352e-01,7.01587e-01,9.99999e-01
1.426940089e+00,2.96650e-03,4.19877e-03,7.06516e-01,9.99999e-01
1.434074789e+00,0.00000e+00,0.00000e+00,7.11381e-01,9.99999e-01
1.441245163e+00,0.00000e+00,0.00000e+00,7.16182e-01,9.99999e-01
1.448451389e+00,0.00000e+00,0.00000e+00,7.20920e-01,9.99999e-01
1.455693646e+00,0.00000e+00,0.00000e+00,7.25595e-01,9.99999e-01
1.462972114e+00,0.00000e+00,0.00000e+00,7.30207e-01,9.99999e-01
1.470286975e+00,0.00000e+00,0.00000e+00,7.34756e-01,9.99999e-01
1.477638409e+00,3.03024e-220,4.09911e-220,7.39243e-01,9.99999e-01
1.485026601e+00,2.30108e-121,3.09423e-121,7.43668e-01,9.99999e-01
1.492451734e+00,4.00807e-103,5.35815e-103,7.48031e-01,9.99999e-01
1.499913993e+00,4.27614e-43,5.68383e-43,7.52333e-01,9.99999e-01
1.507413563e+00,9.40399e-42,1.24297e-41,7.56573e-01,9.99999e-01
1.514950631e+00,1.19262e-43,1.56768e-43,7.60754e-01,9.99999e-01
1.522525384e+00,1.02679e-155,1.34243e-155,7.64874e-01,9.99999e-01
1.530138011e+00,0.00000e+00,0.00000e+00,7.68934e-01,9.99999e-01
1.537788701e+00,2.23666e-277,2.89372e-277,7.72935e-01,9.99999e-01
1.545477645e+00,3.19669e-56,4.11479e-56,7.76877e-01,9.99999e-01
1.553205033e+00,3.18806e-41,4.08326e-41,7.80761e-01,9.99999e-01
1.560971058e+00,3.96621e-41,5.05515e-41,7.84587e-01,9.99999e-01
1.568775913e+00,0.00000e+00,0.00000e+00,7.88356e-01,9.99999e-01
1.576619793e+00,0.00000e+00,0.00000e+00,7.92068e-01,9.99999e-01
1.584502892e+00,0.00000e+00,0.00000e+00,7.95723e-01,9.99999e-01
1.592425406e+00,0.00000e+00,0.00000e+00,7.99323e-01,9.99999e-01
1.600387533e+00,0.00000e+00,0.00000e+00,8.02867e-01,9.99999e-01
1.608389471e+00,0.00000e+00,0.00000e+00,8.06357e-01,9.99999e-01
1.616431418e+00,0.00000e+00,0.00000e+00,8.09792e-01,9.99999e-01
1.624513575e+00,0.00000e+00,0.00000e+00,8.13174e-01,9.99999e-01
1.632636143e+00,0.00000e+00,0.00000e+00,8.16503e-01,9.99999e-01
1.640799324e+00,0.00000e+00,0.00000e+00,8.19779e-01,9.99999e-01
1.649003321e+00,0.00000e+00,0.00000e+00,8.23003e-01,9.99999e-01
1.657248337e+00,2.82292e-251,3.41685e-251,8.26175e-01,9.99999e-01
1.665534579e+00,5.63635e-253,6.79653e-253,8.29297e-01,9.99999e-01
1.673862252e+00,3.25506e-160,3.91059e-160,8.32369e-01,9.99999e-01
1.682231563e+00,5.20868e-110,6.23502e-110,8.35391e-01,9.99999e-01
1.690642721e+00,8.88841e-60,1.06021e-59,8.38364e-01,9.99999e-01
1.699095934e+00,1.87922e-37,2.23374e-37,8.41289e-01,9.99999e-01
1.707591414e+00,4.87481e-18,5.77470e-18,8.44166e-01,9.99999e-01
1.716129371e+00,5.38775e-11,6.36100e-11,8.46995e-01,9.99999e-01
1.724710018e+00,1.00734e-06,1.18541e-06,8.49778e-01,9.99999e-01
1.733333568e+00,7.38576e-05,8.66349e-05,8.52515e-01,9.99999e-01
1.742000236e+00,3.61918e-03,4.23193e-03,8.55206e-01,9.99999e-01
1.750710237e+00,8.08970e-07,9.43017e-07,8.57852e-01,9.99999e-01
1.759463788e+00,7.18185e-153,8.34657e-153,8.60454e-01,9.99999e-01
1.768261107e+00,4.27997e-160,4.95933e-160,8.63012e-01,9.99999e-01
1.777102413e+00,3.67103e-156,4.24138e-156,8.65527e-01,9.99999e-01
1.785987925e+00,8.25448e-146,9.50976e-146,8.68000e-01,9.99999e-01
1.794917864e+00,4.04676e-139,4.64914e-139,8.70430e-01,9.99999e-01
1.803892454e+00,1.43650e-133,1.64581e-133,8.72819e-01,9.99999e-01
1.812911916e+00,2.89237e-128,3.30493e-128,8.75168e-01,9.99999e-01
1.821976476e+00,2.26779e-128,2.58445e-128,8.77476e-01,9.99999e-01
1.831086358e+00,1.80752e-102,2.05459e-102,8.79744e-01,9.99999e-01
1.840241790e+00,5.58423e-87,6.33151e-87,8.81973e-01,9.99999e-01
1.849442999e+00,4.31804e-60,4.88375e-60,8.84164e-01,9.99999e-01
1.858690214e+00,1.04589e-56,1.18004e-56,8.86317e-01,9.99999e-01
1.867983665e+00,3.44432e-57,3.87685e-57,8.88432e-01,9.99999e-01
1.877323583e+00,5.97566e-295,6.71037e-295,8.90510e-01,9.99999e-01
