#,Wave/freq,Total,CO2,Rayleigh,CIA
4.000000000e-01,1.25308e-05,9.99999e-01,1.25308e-05,9.99999e-01
4.020000000e-01,1.56590e-05,9.99999e-01,1.56590e-05,9.99999e-01
4.040100000e-01,1.94840e-05,9.99999e-01,1.94840e-05,9.99999e-01
4.060300500e-01,2.41390e-05,9.99999e-01,2.41390e-05,9.99999e-01
4.080602003e-01,2.97798e-05,9.99999e-01,2.97798e-05,9.99999e-01
4.101005013e-01,3.65867e-05,9.99999e-01,3.65867e-05,9.99999e-01
4.121510038e-01,4.47671e-05,9.99999e-01,4.47671e-05,9.99999e-01
4.142117588e-01,5.45586e-05,9.99999e-01,5.45586e-05,9.99999e-01
4.162828176e-01,6.62324e-05,9.99999e-01,6.62324e-05,9.99999e-01
4.183642317e-01,8.00967e-05,9.99999e-01,8.00967e-05,9.99999e-01
4.204560528e-01,9.65003e-05,9.99999e-01,9.65003e-05,9.99999e-01
4.225583331e-01,1.15836e-04,9.99999e-01,1.15836e-04,9.99999e-01
4.246711247e-01,1.38546e-04,9.99999e-01,1.38546e-04,9.99999e-01
4.267944804e-01,1.65122e-04,9.99999e-01,1.65122e-04,9.99999e-01
4.289284528e-01,1.96116e-04,9.99999e-01,1.96116e-04,9.99999e-01
4.310730950e-01,2.32138e-04,9.99999e-01,2.32138e-04,9.99999e-01
4.332284605e-01,2.73862e-04,9.99999e-01,2.73862e-04,9.99999e-01
4.353946028e-01,3.22032e-04,9.99999e-01,3.22032e-04,9.99999e-01
4.375715758e-01,3.77465e-04,9.99999e-01,3.77465e-04,9.99999e-01
4.397594337e-01,4.41054e-04,9.99999e-01,4.41054e-04,9.99999e-01
4.419582309e-01,5.13773e-04,9.99999e-01,5.13773e-04,9.99999e-01
4.441680220e-01,5.96680e-04,9.99999e-01,5.96680e-04,9.99999e-01
4.463888621e-01,6.90922e-04,9.99999e-01,6.90922e-04,9.99999e-01
4.486208064e-01,7.97733e-04,9.99999e-01,7.97733e-04,9.99999e-01
4.508639105e-01,9.18446e-04,9.99999e-01,9.18446e-04,9.99999e-01
4.531182300e-01,1.05449e-03,9.99999e-01,1.05449e-03,9.99999e-01
4.553838212e-01,1.20738e-03,9.99999e-01,1.20738e-03,9.99999e-01
4.576607403e-01,1.37875e-03,9.99999e-01,1.37875e-03,9.99999e-01
4.599490440e-01,1.57031e-03,9.99999e-01,1.57031e-03,9.99999e-01
4.622487892e-01,1.78391e-03,9.99999e-01,1.78391e-03,9.99999e-01
4.645600332e-01,2.02146e-03,9.99999e-01,2.02146e-03,9.99999e-01
4.668828333e-01,2.28499e-03,9.99999e-01,2.28499e-03,9.99999e-01
4.692172475e-01,2.57664e-03,9.99999e-01,2.57664e-03,9.99999e-01
4.715633337e-01,2.89862e-03,9.99999e-01,2.89862e-03,9.99999e-01
4.739211504e-01,3.25326e-03,9.99999e-01,3.25326e-03,9.99999e-01
4.762907561e-01,3.64298e-03,9.99999e-01,3.64298e-03,9.99999e-01
4.786722099e-01,4.07028e-03,9.99999e-01,4.07028e-03,9.99999e-01
4.810655710e-01,4.53775e-03,9.99999e-01,4.53775e-03,9.99999e-01
4.834708988e-01,5.04805e-03,9.99999e-01,5.04805e-03,9.99999e-01
4.858882533e-01,5.60393e-03,9.99999e-01,5.60393e-03,9.99999e-01
4.883176946e-01,6.20819e-03,9.99999e-01,6.20819e-03,9.99999e-01
4.907592831e-01,6.86372e-03,9.99999e-01,6.86372e-03,9.99999e-01
4.932130795e-01,7.57344e-03,9.99999e-01,7.57344e-03,9.99999e-01
4.956791449e-01,8.34031e-03,9.99999e-01,8.34031e-03,9.99999e-01
4.981575406e-01,9.16735e-03,9.99999e-01,9.16735e-03,9.99999e-01
5.006483283e-01,1.00576e-02,9.99999e-01,1.00576e-02,9.99999e-01
5.031515699e-01,1.10141e-02,9.99999e-01,1.10141e-02,9.99999e-01
5.056673278e-01,1.20400e-02,9.99999e-01,1.20400e-02,9.99999e-01
5.081956644e-01,1.31383e-02,9.99999e-01,1.31383e-02,9.99999e-01
5.107366428e-01,1.43121e-02,9.99999e-01,1.43121e-02,9.99999e-01
5.132903260e-01,1.55644e-02,9.99999e-01,1.55644e-02,9.99999e-01
5.158567776e-01,1.68983e-02,9.99999e-01,1.68983e-02,9.99999e-01
5.184360615e-01,1.83167e-02,9.99999e-01,1.83167e-02,9.99999e-01
5.210282418e-01,1.98225e-02,9.99999e-01,1.98225e-02,9.99999e-01
5.236333830e-01,2.14188e-02,9.99999e-01,2.14188e-02,9.99999e-01
5.262515499e-01,2.31082e-02,9.99999e-01,2.31082e-02,9.99999e-01
5.288828077e-01,2.48935e-02,9.99999e-01,2.48935e-02,9.99999e-01
5.315272217e-01,2.67773e-02,9.99999e-01,2.67773e-02,9.99999e-01
5.341848578e-01,2.87622e-02,9.99999e-01,2.87622e-02,9.99999e-01
5.368557821e-01,3.08506e-02,9.99999e-01,3.08506e-02,9.99999e-01
5.395400610e-01,3.30449e-02,9.99999e-01,3.30449e-02,9.99999e-01
5.422377613e-01,3.53473e-02,9.99999e-01,3.53473e-02,9.99999e-01
5.449489501e-01,3.77598e-02,9.99999e-01,3.77598e-02,9.99999e-01
5.476736949e-01,4.02844e-02,9.99999e-01,4.02844e-02,9.99999e-01
5.504120634e-01,4.29229e-02,9.99999e-01,4.29229e-02,9.99999e-01
5.531641237e-01,4.56769e-02,9.99999e-01,4.56769e-02,9.99999e-01
5.559299443e-01,4.85480e-02,9.99999e-01,4.85480e-02,9.99999e-01
5.587095940e-01,5.15374e-02,9.99999e-01,5.15374e-02,9.99999e-01
5.615031420e-01,5.46464e-02,9.99999e-01,5.46464e-02,9.99999e-01
5.643106577e-01,5.78759e-02,9.99999e-01,5.78759e-02,9.99999e-01
5.671322110e-01,6.12268e-02,9.99999e-01,6.12268e-02,9.99999e-01
5.699678720e-01,6.46997e-02,9.99999e-01,6.46997e-02,9.99999e-01
5.728177114e-01,6.82951e-02,9.99999e-01,6.82951e-02,9.99999e-01
5.756818000e-01,7.20134e-02,9.99999e-01,7.20134e-02,9.99999e-01
5.785602090e-01,7.58547e-02,9.99999e-01,7.58547e-02,9.99999e-01
5.814530100e-01,7.98189e-02,9.99999e-01,7.98189e-02,9.99999e-01
5.843602750e-01,8.39057e-02,9.99999e-01,8.39057e-02,9.99999e-01
5.872820764e-01,8.81149e-02,9.99999e-01,8.81149e-02,9.99999e-01
5.902184868e-01,9.24458e-02,9.99999e-01,9.24458e-02,9.99999e-01
5.931695792e-01,9.68977e-02,9.99999e-01,9.68977e-02,9.99999e-01
5.961354271e-01,1.01470e-01,9.99999e-01,1.01470e-01,9.99999e-01
5.991161043e-01,1.06161e-01,9.99999e-01,1.06161e-01,9.99999e-01
6.021116848e-01,1.10969e-01,9.99999e-01,1.10969e-01,9.99999e-01
6.051222432e-01,1.15895e-01,9.99999e-01,1.15895e-01,9.99999e-01
6.081478544e-01,1.20934e-01,9.99999e-01,1.20934e-01,9.99999e-01
6.111885937e-01,1.26087e-01,9.99999e-01,1.26087e-01,9.99999e-01
6.142445367e-01,1.31352e-01,9.99999e-01,1.31352e-01,9.99999e-01
6.173157594e-01,1.36725e-01,9.99999e-01,1.36725e-01,9.99999e-01
6.204023382e-01,1.42206e-01,9.99999e-01,1.42206e-01,9.99999e-01
6.235043498e-01,1.47792e-01,9.99999e-01,1.47792e-01,9.99999e-01
6.266218716e-01,1.53480e-01,9.99999e-01,1.53480e-01,9.99999e-01
6.297549810e-01,1.59268e-01,9.99999e-01,1.59268e-01,9.99999e-01
6.329037559e-01,1.65154e-01,9.99999e-01,1.65154e-01,9.99999e-01
6.360682746e-01,1.71134e-01,9.99999e-01,1.71134e-01,9.99999e-01
6.392486160e-01,1.77207e-01,9.99999e-01,1.77207e-01,9.99999e-01
6.424448591e-01,1.83369e-01,9.99999e-01,1.83369e-01,9.99999e-01
6.456570834e-01,1.89617e-01,9.99999e-01,1.89617e-01,9.99999e-01
6.488853688e-01,1.95948e-01,9.99999e-01,1.95948e-01,9.99999e-01
6.521297956e-01,2.02359e-01,9.99999e-01,2.02359e-01,9.99999e-01
6.553904446e-01,2.08847e-01,9.99999e-01,2.08847e-01,9.99999e-01
6.586673968e-01,2.15409e-01,9.99999e-01,2.15409e-01,9.99999e-01
6.619607338e-01,2.22041e-01,9.99999e-01,2.22041e-01,9.99999e-01
6.652705375e-01,2.28740e-01,9.99999e-01,2.28740e-01,9.99999e-01
6.685968902e-01,2.35503e-01,9.99999e-01,2.35503e-01,9.99999e-01
6.719398746e-01,2.42327e-01,9.99999e-01,2.42327e-01,9.99999e-01
6.752995740e-01,2.49207e-01,9.99999e-01,2.49207e-01,9.99999e-01
6.786760719e-01,2.56142e-01,9.99999e-01,2.56142e-01,9.99999e-01
6.820694522e-01,2.63126e-01,9.99999e-01,2.63126e-01,9.99999e-01
6.854797995e-01,2.70158e-01,9.99999e-01,2.70158e-01,9.99999e-01
6.889071985e-01,2.77233e-01,9.99999e-01,2.77233e-01,9.99999e-01
6.923517345e-01,2.84348e-01,9.99999e-01,2.84348e-01,9.99999e-01
6.958134932e-01,2.91499e-01,9.99999e-01,2.91499e-01,9.99999e-01
6.992925606e-01,2.98684e-01,9.99999e-01,2.98684e-01,9.99999e-01
7.027890234e-01,3.05899e-01,9.99999e-01,3.05899e-01,9.99999e-01
7.063029686e-01,3.13140e-01,9.99999e-01,3.13140e-01,9.99999e-01
7.098344834e-01,3.20405e-01,9.99999e-01,3.20405e-01,9.99999e-01
7.133836558e-01,3.27690e-01,9.99999e-01,3.27690e-01,9.99999e-01
7.169505741e-01,3.34992e-01,9.99999e-01,3.34992e-01,9.99999e-01
7.205353270e-01,3.42307e-01,9.99999e-01,3.42307e-01,9.99999e-01
7.241380036e-01,3.49633e-01,9.99999e-01,3.49633e-01,9.99999e-01
7.277586936e-01,3.56966e-01,9.99999e-01,3.56966e-01,9.99999e-01
7.313974871e-01,3.64304e-01,9.99999e-01,3.64304e-01,9.99999e-01
7.350544745e-01,3.71643e-01,9.99999e-01,3.71643e-01,9.99999e-01
7.387297469e-01,3.78981e-01,9.99999e-01,3.78981e-01,9.99999e-01
7.424233956e-01,3.86314e-01,9.99999e-01,3.86314e-01,9.99999e-01
7.461355126e-01,3.93640e-01,9.99999e-01,3.93640e-01,9.99999e-01
7.498661902e-01,4.00956e-01,9.99999e-01,4.00956e-01,9.99999e-01
7.536155211e-01,4.08260e-01,9.99999e-01,4.08260e-01,9.99999e-01
7.573835987e-01,4.15549e-01,9.99999e-01,4.15549e-01,9.99999e-01
7.611705167e-01,4.22819e-01,9.99999e-01,4.22819e-01,9.99999e-01
7.649763693e-01,4.30070e-01,9.99999e-01,4.30070e-01,9.99999e-01
7.688012511e-01,4.37298e-01,9.99999e-01,4.37298e-01,9.99999e-01
7.726452574e-01,4.44502e-01,9.99999e-01,4.44502e-01,9.99999e-01
7.765084837e-01,4.50551e-01,9.97505e-01,4.51678e-01,9.99999e-01
7.803910261e-01,3.88291e-01,8.46272e-01,4.58825e-01,9.99999e-01
7.842929812e-01,4.11980e-01,8.84189e-01,4.65940e-01,9.99999e-01
7.882144461e-01,4.12971e-01,8.73048e-01,4.73022e-01,9.99999e-01
7.921555184e-01,4.38461e-01,9.13329e-01,4.80068e-01,9.99999e-01
7.961162960e-01,4.62217e-01,9.48959e-01,4.87078e-01,9.99999e-01
8.000968774e-01,4.80901e-01,9.73389e-01,4.94048e-01,9.99999e-01
8.040973618e-01,4.94831e-01,9.87730e-01,5.00977e-01,9.99999e-01
8.081178486e-01,5.05397e-01,9.95142e-01,5.07864e-01,9.99999e-01
8.121584379e-01,5.14041e-01,9.98707e-01,5.14706e-01,9.99999e-01
8.162192301e-01,5.21457e-01,9.99912e-01,5.21503e-01,9.99999e-01
8.203003262e-01,5.28253e-01,9.99999e-01,5.28253e-01,9.99999e-01
8.244018279e-01,5.34954e-01,9.99999e-01,5.34954e-01,9.99999e-01
8.285238370e-01,5.41605e-01,9.99999e-01,5.41605e-01,9.99999e-01
8.326664562e-01,5.48205e-01,9.99999e-01,5.48205e-01,9.99999e-01
8.368297885e-01,5.54753e-01,9.99999e-01,5.54753e-01,9.99999e-01
8.410139374e-01,5.61247e-01,9.99999e-01,5.61247e-01,9.99999e-01
8.452190071e-01,5.67687e-01,9.99999e-01,5.67687e-01,9.99999e-01
8.494451021e-01,5.74071e-01,9.99999e-01,5.74071e-01,9.99999e-01
8.536923276e-01,5.80399e-01,9.99999e-01,5.80399e-01,9.99999e-01
8.579607893e-01,5.86670e-01,9.99999e-01,5.86670e-01,9.99999e-01
8.622505932e-01,5.92268e-01,9.98962e-01,5.92883e-01,9.99999e-01
8.665618462e-01,3.93729e-01,6.57270e-01,5.99036e-01,9.99999e-01
8.708946554e-01,3.93390e-01,6.50090e-01,6.05130e-01,9.99999e-01
8.752491287e-01,4.69156e-01,7.67642e-01,6.11164e-01,9.99999e-01
8.796253743e-01,5.42671e-01,8.79335e-01,6.17137e-01,9.99999e-01
8.840235012e-01,5.88523e-01,9.44584e-01,6.23049e-01,9.99999e-01
8.884436187e-01,6.14880e-01,9.77708e-01,6.28899e-01,9.99999e-01
8.928858368e-01,6.30376e-01,9.93207e-01,6.34687e-01,9.99999e-01
8.973502660e-01,6.39570e-01,9.98685e-01,6.40412e-01,9.99999e-01
9.018370173e-01,6.45424e-01,9.98992e-01,6.46074e-01,9.99999e-01
9.063462024e-01,6.34542e-01,9.73712e-01,6.51673e-01,9.99999e-01
9.108779334e-01,6.49433e-01,9.88168e-01,6.57208e-01,9.99999e-01
9.154323231e-01,6.49777e-01,9.80528e-01,6.62680e-01,9.99999e-01
9.200094847e-01,5.82812e-01,8.72358e-01,6.68088e-01,9.99999e-01
9.246095321e-01,6.14406e-01,9.12350e-01,6.73432e-01,9.99999e-01
9.292325798e-01,6.12520e-01,9.02474e-01,6.78711e-01,9.99999e-01
9.338787427e-01,6.28963e-01,9.19634e-01,6.83927e-01,9.99999e-01
9.385481364e-01,6.58239e-01,9.55244e-01,6.89079e-01,9.99999e-01
9.432408771e-01,6.75157e-01,9.72616e-01,6.94166e-01,9.99999e-01
9.479570815e-01,6.88873e-01,9.85245e-01,6.99189e-01,9.99999e-01
9.526968669e-01,6.99655e-01,9.93618e-01,7.04149e-01,9.99999e-01
9.574603512e-01,7.07460e-01,9.97765e-01,7.09044e-01,9.99999e-01
9.622476530e-01,7.13361e-01,9.99277e-01,7.13876e-01,9.99999e-01
9.670588912e-01,7.18565e-01,9.99887e-01,7.18645e-01,9.99999e-01
9.718941857e-01,7.23350e-01,9.99999e-01,7.23350e-01,9.99999e-01
9.767536566e-01,7.27992e-01,9.99999e-01,7.27992e-01,9.99999e-01
9.816374249e-01,7.32572e-01,9.99999e-01,7.32572e-01,9.99999e-01
9.865456120e-01,7.37088e-01,9.99999e-01,7.37088e-01,9.99999e-01
9.914783401e-01,7.41543e-01,9.99999e-01,7.41543e-01,9.99999e-01
9.964357318e-01,7.45936e-01,9.99999e-01,7.45936e-01,9.99999e-01
1.001417910e+00,7.50267e-01,9.99999e-01,7.50267e-01,9.99999e-01
1.006425000e+00,7.54537e-01,9.99999e-01,7.54537e-01,9.99999e-01
1.011457125e+00,7.58747e-01,9.99999e-01,7.58747e-01,9.99999e-01
1.016514411e+00,7.62895e-01,9.99998e-01,7.62896e-01,9.99999e-01
1.021596983e+00,7.66155e-01,9.98918e-01,7.66985e-01,9.99999e-01
1.026704968e+00,7.64345e-01,9.91349e-01,7.71015e-01,9.99999e-01
1.031838492e+00,3.77065e-01,4.86544e-01,7.74985e-01,9.99999e-01
1.036997685e+00,3.61700e-02,4.64374e-02,7.78897e-01,9.99999e-01
1.042182673e+00,1.43327e-01,1.83106e-01,7.82751e-01,9.99999e-01
1.047393587e+00,1.21155e-02,1.54034e-02,7.86547e-01,9.99999e-01
1.052630555e+00,2.05273e-03,2.59745e-03,7.90286e-01,9.99999e-01
1.057893707e+00,7.43782e-03,9.36788e-03,7.93969e-01,9.99999e-01
1.063183176e+00,4.36854e-02,5.47713e-02,7.97595e-01,9.99999e-01
1.068499092e+00,1.26216e-01,1.57541e-01,8.01166e-01,9.99999e-01
1.073841587e+00,2.08651e-01,2.59296e-01,8.04682e-01,9.99999e-01
1.079210795e+00,3.94677e-01,4.88375e-01,8.08143e-01,9.99999e-01
1.084606849e+00,5.40139e-01,6.65563e-01,8.11551e-01,9.99999e-01
1.090029883e+00,6.67650e-01,8.19297e-01,8.14905e-01,9.99999e-01
1.095480033e+00,7.41860e-01,9.06689e-01,8.18206e-01,9.99999e-01
1.100957433e+00,7.87985e-01,9.59254e-01,8.21455e-01,9.99999e-01
1.106462220e+00,8.10678e-01,9.83052e-01,8.24653e-01,9.99999e-01
1.111994531e+00,8.23700e-01,9.95047e-01,8.27799e-01,9.99999e-01
1.117554504e+00,8.30219e-01,9.99185e-01,8.30895e-01,9.99999e-01
1.123142276e+00,8.33937e-01,9.99994e-01,8.33941e-01,9.99999e-01
1.128757988e+00,8.36938e-01,9.99999e-01,8.36938e-01,9.99999e-01
1.134401778e+00,8.39886e-01,9.99999e-01,8.39886e-01,9.99999e-01
1.140073787e+00,8.42785e-01,9.99999e-01,8.42785e-01,9.99999e-01
1.145774156e+00,8.45637e-01,9.99999e-01,8.45637e-01,9.99999e-01
1.151503026e+00,8.48443e-01,9.99999e-01,8.48443e-01,9.99999e-01
1.157260541e+00,8.51202e-01,9.99999e-01,8.51202e-01,9.99999e-01
1.163046844e+00,8.53915e-01,9.99999e-01,8.53915e-01,9.99999e-01
1.168862078e+00,8.56582e-01,9.99999e-01,8.56582e-01,9.99999e-01
1.174706389e+00,8.59206e-01,9.99999e-01,8.59206e-01,9.99999e-01
1.180579921e+00,8.61785e-01,9.99999e-01,8.61785e-01,9.99999e-01
1.186482820e+00,8.63084e-01,9.98568e-01,8.64321e-01,9.99999e-01
1.192415234e+00,8.31709e-01,9.59500e-01,8.66814e-01,9.99999e-01
1.198377311e+00,7.57147e-02,8.71019e-02,8.69264e-01,9.99999e-01
1.204369197e+00,4.03810e-57,4.63259e-57,8.71673e-01,9.99999e-01
1.210391043e+00,9.38190e-44,1.07339e-43,8.74041e-01,9.99999e-01
1.216442998e+00,2.43197e-38,2.77505e-38,8.76368e-01,9.99999e-01
1.222525213e+00,6.00639e-30,6.83587e-30,8.78656e-01,9.99999e-01
1.228637839e+00,4.75413e-23,5.39687e-23,8.80904e-01,9.99999e-01
1.234781029e+00,1.00279e-15,1.13552e-15,8.83113e-01,9.99999e-01
1.240954934e+00,7.36923e-10,8.32413e-10,8.85284e-01,9.99999e-01
1.247159708e+00,2.49376e-05,2.81013e-05,8.87417e-01,9.99999e-01
1.253395507e+00,8.34413e-04,9.38055e-04,8.89513e-01,9.99999e-01
1.259662485e+00,1.87831e-02,2.10674e-02,8.91573e-01,9.99999e-01
1.265960797e+00,1.40566e-01,1.57304e-01,8.93596e-01,9.99999e-01
1.272290601e+00,3.18174e-01,3.55269e-01,8.95584e-01,9.99999e-01
1.278652054e+00,5.00930e-02,5.58116e-02,8.97537e-01,9.99999e-01
1.285045314e+00,2.66109e-05,2.95855e-05,8.99456e-01,9.99999e-01
1.291470541e+00,4.64488e-05,5.15330e-05,9.01340e-01,9.99999e-01
1.297927893e+00,5.33445e-02,5.90622e-02,9.03191e-01,9.99999e-01
1.304417533e+00,7.41122e-02,8.18910e-02,9.05010e-01,9.99999e-01
1.310939621e+00,1.18182e-03,1.30329e-03,9.06796e-01,9.99999e-01
1.317494319e+00,5.77119e-15,6.35209e-15,9.08550e-01,9.99999e-01
1.324081790e+00,5.35063e-07,5.87805e-07,9.10272e-01,9.99999e-01
1.330702199e+00,7.17610e-07,7.86883e-07,9.11964e-01,9.99999e-01
1.337355710e+00,2.37540e-06,2.59996e-06,9.13626e-01,9.99999e-01
1.344042489e+00,1.47596e-07,1.61262e-07,9.15258e-01,9.99999e-01
1.350762701e+00,1.87033e-05,2.03993e-05,9.16860e-01,9.99999e-01
1.357516515e+00,1.14791e-03,1.24985e-03,9.18433e-01,9.99999e-01
1.364304097e+00,1.81632e-02,1.97431e-02,9.19978e-01,9.99999e-01
1.371125618e+00,6.80653e-02,7.38640e-02,9.21495e-01,9.99999e-01
1.377981246e+00,1.78804e-01,1.93724e-01,9.22984e-01,9.99999e-01
1.384871152e+00,2.18717e-01,2.36592e-01,9.24446e-01,9.99999e-01
1.391795508e+00,3.68994e-01,3.98532e-01,9.25882e-01,9.99999e-01
1.398754485e+00,4.48049e-01,4.83180e-01,9.27291e-01,9.99999e-01
1.405748258e+00,5.91712e-01,6.37156e-01,9.28675e-01,9.99999e-01
1.412776999e+00,6.83988e-01,7.35444e-01,9.30033e-01,9.99999e-01
1.419840884e+00,1.74667e-01,1.87538e-01,9.31367e-01,9.99999e-01
1.426940089e+00,9.58672e-96,1.02787e-95,9.32676e-01,9.99999e-01
1.434074789e+00,0.00000e+00,0.00000e+00,9.33961e-01,9.99999e-01
1.441245163e+00,0.00000e+00,0.00000e+00,9.35222e-01,9.99999e-01
1.448451389e+00,0.00000e+00,0.00000e+00,9.36460e-01,9.99999e-01
1.455693646e+00,2.85209e-224,3.04166e-224,9.37675e-01,9.99999e-01
1.462972114e+00,1.08262e-103,1.15311e-103,9.38868e-01,9.99999e-01
1.470286975e+00,1.30068e-68,1.38365e-68,9.40038e-01,9.99999e-01
1.477638409e+00,1.77916e-33,1.89033e-33,9.41187e-01,9.99999e-01
1.485026601e+00,6.14190e-26,6.51788e-26,9.42314e-01,9.99999e-01
1.492451734e+00,2.55564e-14,2.70891e-14,9.43421e-01,9.99999e-01
1.499913993e+00,1.89939e-09,2.01099e-09,9.44507e-01,9.99999e-01
1.507413563e+00,5.86956e-10,6.20741e-10,9.45573e-01,9.99999e-01
1.514950631e+00,4.55521e-20,4.81208e-20,9.46619e-01,9.99999e-01
1.522525384e+00,5.56730e-53,5.87487e-53,9.47645e-01,9.99999e-01
1.530138011e+00,2.00195e-58,2.11030e-58,9.48652e-01,9.99999e-01
1.537788701e+00,3.60558e-26,3.79679e-26,9.49640e-01,9.99999e-01
1.545477645e+00,5.24709e-10,5.51970e-10,9.50610e-01,9.99999e-01
1.553205033e+00,2.51559e-09,2.64365e-09,9.51561e-01,9.99999e-01
1.560971058e+00,2.06698e-25,2.17007e-25,9.52495e-01,9.99999e-01
1.568775913e+00,0.00000e+00,0.00000e+00,9.53411e-01,9.99999e-01
1.576619793e+00,0.00000e+00,0.00000e+00,9.54310e-01,9.99999e-01
1.584502892e+00,5.10826e-175,5.34788e-175,9.55192e-01,9.99999e-01
1.592425406e+00,5.01332e-175,5.24374e-175,9.56057e-01,9.99999e-01
1.600387533e+00,0.00000e+00,0.00000e+00,9.56906e-01,9.99999e-01
1.608389471e+00,0.00000e+00,0.00000e+00,9.57739e-01,9.99999e-01
1.616431418e+00,9.55999e-300,9.97331e-300,9.58556e-01,9.99999e-01
1.624513575e+00,1.11613e-181,1.16341e-181,9.59358e-01,9.99999e-01
1.632636143e+00,1.54784e-89,1.61208e-89,9.60145e-01,9.99999e-01
1.640799324e+00,6.69299e-68,6.96521e-68,9.60916e-01,9.99999e-01
1.649003321e+00,1.98604e-53,2.06519e-53,9.61673e-01,9.99999e-01
1.657248337e+00,1.05852e-52,1.09986e-52,9.62416e-01,9.99999e-01
1.665534579e+00,9.16444e-38,9.51511e-38,9.63144e-01,9.99999e-01
1.673862252e+00,2.57064e-30,2.66702e-30,9.63859e-01,9.99999e-01
1.682231563e+00,6.40573e-17,6.64108e-17,9.64560e-01,9.99999e-01
1.690642721e+00,4.22787e-11,4.38008e-11,9.65248e-01,9.99999e-01
1.699095934e+00,2.72205e-06,2.81808e-06,9.65922e-01,9.99999e-01
1.707591414e+00,6.32717e-04,6.54590e-04,9.66584e-01,9.99999e-01
1.716129371e+00,1.91358e-02,1.97841e-02,9.67233e-01,9.99999e-01
1.724710018e+00,8.91426e-02,9.21018e-02,9.67870e-01,9.99999e-01
1.733333568e+00,2.36710e-01,2.44410e-01,9.68494e-01,9.99999e-01
1.742000236e+00,8.62926e-02,8.90433e-02,9.69107e-01,9.99999e-01
1.750710237e+00,5.87941e-06,6.06307e-06,9.69708e-01,9.99999e-01
1.759463788e+00,5.91076e-34,6.09169e-34,9.70297e-01,9.99999e-01
1.768261107e+00,1.65205e-33,1.70160e-33,9.70875e-01,9.99999e-01
1.777102413e+00,2.68298e-33,2.76185e-33,9.71442e-01,9.99999e-01
1.785987925e+00,9.89894e-30,1.01841e-29,9.71998e-01,9.99999e-01
1.794917864e+00,2.31561e-30,2.38098e-30,9.72544e-01,9.99999e-01
1.803892454e+00,1.59033e-27,1.63433e-27,9.73079e-01,9.99999e-01
1.812911916e+00,9.97671e-33,1.02472e-32,9.73603e-01,9.99999e-01
1.821976476e+00,2.25132e-24,2.31114e-24,9.74118e-01,9.99999e-01
1.831086358e+00,5.33850e-22,5.47750e-22,9.74623e-01,9.99999e-01
1.840241790e+00,4.06793e-14,4.17173e-14,9.75118e-01,9.99999e-01
1.849442999e+00,5.43739e-13,5.57336e-13,9.75603e-01,9.99999e-01
1.858690214e+00,1.18923e-12,1.21837e-12,9.76079e-01,9.99999e-01
1.867983665e+00,3.75159e-20,3.84169e-20,9.76546e-01,9.99999e-01
1.877323583e+00,2.28082e-62,2.33450e-62,9.77004e-01,9.99999e-01
