#,Wave/freq,Total,CO2,Rayleigh,CIA
4.000000000e-01,1.70787e-07,9.99999e-01,1.70787e-07,9.99999e-01
4.020000000e-01,2.32420e-07,9.99999e-01,2.32420e-07,9.99999e-01
4.040100000e-01,3.14272e-07,9.99999e-01,3.14272e-07,9.99999e-01
4.060300500e-01,4.22425e-07,9.99999e-01,4.22425e-07,9.99999e-01
4.080602003e-01,5.64491e-07,9.99999e-01,5.64491e-07,9.99999e-01
4.101005013e-01,7.50028e-07,9.99999e-01,7.50028e-07,9.99999e-01
4.121510038e-01,9.90968e-07,9.99999e-01,9.90968e-07,9.99999e-01
4.142117588e-01,1.30212e-06,9.99999e-01,1.30212e-06,9.99999e-01
4.162828176e-01,1.70178e-06,9.99999e-01,1.70178e-06,9.99999e-01
4.183642317e-01,2.21236e-06,9.99999e-01,2.21236e-06,9.99999e-01
4.204560528e-01,2.86128e-06,9.99999e-01,2.86128e-06,9.99999e-01
4.225583331e-01,3.68177e-06,9.99999e-01,3.68177e-06,9.99999e-01
4.246711247e-01,4.71401e-06,9.99999e-01,4.71401e-06,9.99999e-01
4.267944804e-01,6.00626e-06,9.99999e-01,6.00626e-06,9.99999e-01
4.289284528e-01,7.61622e-06,9.99999e-01,7.61622e-06,9.99999e-01
4.310730950e-01,9.61253e-06,9.99999e-01,9.61253e-06,9.99999e-01
4.332284605e-01,1.20764e-05,9.99999e-01,1.20764e-05,9.99999e-01
4.353946028e-01,1.51037e-05,9.99999e-01,1.51037e-05,9.99999e-01
4.375715758e-01,1.88065e-05,9.99999e-01,1.88065e-05,9.99999e-01
4.397594337e-01,2.33159e-05,9.99999e-01,2.33159e-05,9.99999e-01
4.419582309e-01,2.87841e-05,9.99999e-01,2.87841e-05,9.99999e-01
4.441680220e-01,3.53871e-05,9.99999e-01,3.53871e-05,9.99999e-01
4.463888621e-01,4.33278e-05,9.99999e-01,4.33278e-05,9.99999e-01
4.486208064e-01,5.28386e-05,9.99999e-01,5.28386e-05,9.99999e-01
4.508639105e-01,6.41850e-05,9.99999e-01,6.41850e-05,9.99999e-01
4.531182300e-01,7.76689e-05,9.99999e-01,7.76689e-05,9.99999e-01
4.553838212e-01,9.36322e-05,9.99999e-01,9.36322e-05,9.99999e-01
4.576607403e-01,1.12460e-04,9.99999e-01,1.12460e-04,9.99999e-01
4.599490440e-01,1.34587e-04,9.99999e-01,1.34587e-04,9.99999e-01
4.622487892e-01,1.60496e-04,9.99999e-01,1.60496e-04,9.99999e-01
4.645600332e-01,1.90728e-04,9.99999e-01,1.90728e-04,9.99999e-01
4.668828333e-01,2.25884e-04,9.99999e-01,2.25884e-04,9.99999e-01
4.692172475e-01,2.66628e-04,9.99999e-01,2.66628e-04,9.99999e-01
4.715633337e-01,3.13692e-04,9.99999e-01,3.13692e-04,9.99999e-01
4.739211504e-01,3.67880e-04,9.99999e-01,3.67880e-04,9.99999e-01
4.762907561e-01,4.30073e-04,9.99999e-01,4.30073e-04,9.99999e-01
4.786722099e-01,5.01231e-04,9.99999e-01,5.01231e-04,9.99999e-01
4.810655710e-01,5.82398e-04,9.99999e-01,5.82398e-04,9.99999e-01
4.834708988e-01,6.74707e-04,9.99999e-01,6.74707e-04,9.99999e-01
4.858882533e-01,7.79377e-04,9.99999e-01,7.79377e-04,9.99999e-01
4.883176946e-01,8.97725e-04,9.99999e-01,8.97725e-04,9.99999e-01
4.907592831e-01,1.03116e-03,9.99999e-01,1.03116e-03,9.99999e-01
4.932130795e-01,1.18119e-03,9.99999e-01,1.18119e-03,9.99999e-01
4.956791449e-01,1.34943e-03,9.99999e-01,1.34943e-03,9.99999e-01
4.981575406e-01,1.53757e-03,9.99999e-01,1.53757e-03,9.99999e-01
5.006483283e-01,1.74744e-03,9.99999e-01,1.74744e-03,9.99999e-01
5.031515699e-01,1.98095e-03,9.99999e-01,1.98095e-03,9.99999e-01
5.056673278e-01,2.24009e-03,9.99999e-01,2.24009e-03,9.99999e-01
5.081956644e-01,2.52700e-03,9.99999e-01,2.52700e-03,9.99999e-01
5.107366428e-01,2.84387e-03,9.99999e-01,2.84387e-03,9.99999e-01
5.132903260e-01,3.19302e-03,9.99999e-01,3.19302e-03,9.99999e-01
5.158567776e-01,3.57684e-03,9.99999e-01,3.57684e-03,9.99999e-01
5.184360615e-01,3.99783e-03,9.99999e-01,3.99783e-03,9.99999e-01
5.210282418e-01,4.45855e-03,9.99999e-01,4.45855e-03,9.99999e-01
5.236333830e-01,4.96167e-03,9.99999e-01,4.96167e-03,9.99999e-01
5.262515499e-01,5.50992e-03,9.99999e-01,5.50992e-03,9.99999e-01
5.288828077e-01,6.10609e-03,9.99999e-01,6.10609e-03,9.99999e-01
5.315272217e-01,6.75305e-03,9.99999e-01,6.75305e-03,9.99999e-01
5.341848578e-01,7.45371e-03,9.99999e-01,7.45371e-03,9.99999e-01
5.368557821e-01,8.21105e-03,9.99999e-01,8.21105e-03,9.99999e-01
5.395400610e-01,9.02806e-03,9.99999e-01,9.02806e-03,9.99999e-01
5.422377613e-01,9.90778e-03,9.99999e-01,9.90778e-03,9.99999e-01
5.449489501e-01,1.08533e-02,9.99999e-01,1.08533e-02,9.99999e-01
5.476736949e-01,1.18676e-02,9.99999e-01,1.18676e-02,9.99999e-01
5.504120634e-01,1.29539e-02,9.99999e-01,1.29539e-02,9.99999e-01
5.531641237e-01,1.41151e-02,9.99999e-01,1.41151e-02,9.99999e-01
5.559299443e-01,1.53544e-02,9.99999e-01,1.53544e-02,9.99999e-01
5.587095940e-01,1.66747e-02,9.99999e-01,1.66747e-02,9.99999e-01
5.615031420e-01,1.80791e-02,9.99999e-01,1.80791e-02,9.99999e-01
5.643106577e-01,1.95705e-02,9.99999e-01,1.95705e-02,9.99999e-01
5.671322110e-01,2.11518e-02,9.99999e-01,2.11518e-02,9.99999e-01
5.699678720e-01,2.28258e-02,9.99999e-01,2.28258e-02,9.99999e-01
5.728177114e-01,2.45953e-02,9.99999e-01,2.45953e-02,9.99999e-01
5.756818000e-01,2.64628e-02,9.99999e-01,2.64628e-02,9.99999e-01
5.785602090e-01,2.84311e-02,9.99999e-01,2.84311e-02,9.99999e-01
5.814530100e-01,3.05024e-02,9.99999e-01,3.05024e-02,9.99999e-01
5.843602750e-01,3.26793e-02,9.99999e-01,3.26793e-02,9.99999e-01
5.872820764e-01,3.49639e-02,9.99999e-01,3.49639e-02,9.99999e-01
5.902184868e-01,3.73582e-02,9.99999e-01,3.73582e-02,9.99999e-01
5.931695792e-01,3.98644e-02,9.99999e-01,3.98644e-02,9.99999e-01
5.961354271e-01,4.24842e-02,9.99999e-01,4.24842e-02,9.99999e-01
5.991161043e-01,4.52192e-02,9.99999e-01,4.52192e-02,9.99999e-01
6.021116848e-01,4.80711e-02,9.99999e-01,4.80711e-02,9.99999e-01
6.051222432e-01,5.10411e-02,9.99999e-01,5.10411e-02,9.99999e-01
6.081478544e-01,5.41304e-02,9.99999e-01,5.41304e-02,9.99999e-01
6.111885937e-01,5.73402e-02,9.99999e-01,5.73402e-02,9.99999e-01
6.142445367e-01,6.06712e-02,9.99999e-01,6.06712e-02,9.99999e-01
6.173157594e-01,6.41242e-02,9.99999e-01,6.41242e-02,9.99999e-01
6.204023382e-01,6.76996e-02,9.99999e-01,6.76996e-02,9.99999e-01
6.235043498e-01,7.13978e-02,9.99999e-01,7.13978e-02,9.99999e-01
6.266218716e-01,7.52190e-02,9.99999e-01,7.52190e-02,9.99999e-01
6.297549810e-01,7.91631e-02,9.99999e-01,7.91631e-02,9.99999e-01
6.329037559e-01,8.32300e-02,9.99999e-01,8.32300e-02,9.99999e-01
6.360682746e-01,8.74192e-02,9.99999e-01,8.74192e-02,9.99999e-01
6.392486160e-01,9.17303e-02,9.99999e-01,9.17303e-02,9.99999e-01
6.424448591e-01,9.61625e-02,9.99999e-01,9.61625e-02,9.99999e-01
6.456570834e-01,1.00715e-01,9.99999e-01,1.00715e-01,9.99999e-01
6.488853688e-01,1.05387e-01,9.99999e-01,1.05387e-01,9.99999e-01
6.521297956e-01,1.10176e-01,9.99999e-01,1.10176e-01,9.99999e-01
6.553904446e-01,1.15082e-01,9.99999e-01,1.15082e-01,9.99999e-01
6.586673968e-01,1.20104e-01,9.99999e-01,1.20104e-01,9.99999e-01
6.619607338e-01,1.25238e-01,9.99999e-01,1.25238e-01,9.99999e-01
6.652705375e-01,1.30485e-01,9.99999e-01,1.30485e-01,9.99999e-01
6.685968902e-01,1.35840e-01,9.99999e-01,1.35840e-01,9.99999e-01
6.719398746e-01,1.41304e-01,9.99999e-01,1.41304e-01,9.99999e-01
6.752995740e-01,1.46872e-01,9.99999e-01,1.46872e-01,9.99999e-01
6.786760719e-01,1.52544e-01,9.99999e-01,1.52544e-01,9.99999e-01
6.820694522e-01,1.58316e-01,9.99999e-01,1.58316e-01,9.99999e-01
6.854797995e-01,1.64186e-01,9.99999e-01,1.64186e-01,9.99999e-01
6.889071985e-01,1.70151e-01,9.99999e-01,1.70151e-01,9.99999e-01
6.923517345e-01,1.76209e-01,9.99999e-01,1.76209e-01,9.99999e-01
6.958134932e-01,1.82357e-01,9.99999e-01,1.82357e-01,9.99999e-01
6.992925606e-01,1.88591e-01,9.99999e-01,1.88591e-01,9.99999e-01
7.027890234e-01,1.94908e-01,9.99999e-01,1.94908e-01,9.99999e-01
7.063029686e-01,2.01307e-01,9.99999e-01,2.01307e-01,9.99999e-01
7.098344834e-01,2.07782e-01,9.99999e-01,2.07782e-01,9.99999e-01
7.133836558e-01,2.14332e-01,9.99999e-01,2.14332e-01,9.99999e-01
7.169505741e-01,2.20953e-01,9.99999e-01,2.20953e-01,9.99999e-01
7.205353270e-01,2.27642e-01,9.99999e-01,2.27642e-01,9.99999e-01
7.241380036e-01,2.34395e-01,9.99999e-01,2.34395e-01,9.99999e-01
7.277586936e-01,2.41209e-01,9.99999e-01,2.41209e-01,9.99999e-01
7.313974871e-01,2.48080e-01,9.99999e-01,2.48080e-01,9.99999e-01
7.350544745e-01,2.55006e-01,9.99999e-01,2.55006e-01,9.99999e-01
7.387297469e-01,2.61983e-01,9.99999e-01,2.61983e-01,9.99999e-01
7.424233956e-01,2.69007e-01,9.99999e-01,2.69007e-01,9.99999e-01
7.461355126e-01,2.76075e-01,9.99999e-01,2.76075e-01,9.99999e-01
7.498661902e-01,2.83183e-01,9.99999e-01,2.83183e-01,9.99999e-01
7.536155211e-01,2.90329e-01,9.99999e-01,2.90329e-01,9.99999e-01
7.573835987e-01,2.97509e-01,9.99999e-01,2.97509e-01,9.99999e-01
7.611705167e-01,3.04719e-01,9.99999e-01,3.04719e-01,9.99999e-01
7.649763693e-01,3.11956e-01,9.99999e-01,3.11956e-01,9.99999e-01
7.688012511e-01,3.19217e-01,9.99999e-01,3.19217e-01,9.99999e-01
7.726452574e-01,3.26499e-01,9.99999e-01,3.26499e-01,9.99999e-01
7.765084837e-01,3.33798e-01,9.99999e-01,3.33798e-01,9.99999e-01
7.803910261e-01,3.25859e-01,9.55286e-01,3.41112e-01,9.99999e-01
7.842929812e-01,2.77951e-01,7.97711e-01,3.48436e-01,9.99999e-01
7.882144461e-01,2.80313e-01,7.87907e-01,3.55768e-01,9.99999e-01
7.921555184e-01,3.15399e-01,8.68615e-01,3.63105e-01,9.99999e-01
7.961162960e-01,3.36596e-01,9.08627e-01,3.70444e-01,9.99999e-01
8.000968774e-01,3.58708e-01,9.49508e-01,3.77783e-01,9.99999e-01
8.040973618e-01,3.74834e-01,9.73299e-01,3.85117e-01,9.99999e-01
8.081178486e-01,3.87636e-01,9.87747e-01,3.92444e-01,9.99999e-01
8.121584379e-01,3.98221e-01,9.96144e-01,3.99762e-01,9.99999e-01
8.162192301e-01,4.06721e-01,9.99146e-01,4.07068e-01,9.99999e-01
8.203003262e-01,4.14353e-01,9.99984e-01,4.14359e-01,9.99999e-01
8.244018279e-01,4.21633e-01,9.99999e-01,4.21633e-01,9.99999e-01
8.285238370e-01,4.28888e-01,9.99999e-01,4.28888e-01,9.99999e-01
8.326664562e-01,4.36120e-01,9.99999e-01,4.36120e-01,9.99999e-01
8.368297885e-01,4.43327e-01,9.99999e-01,4.43327e-01,9.99999e-01
8.410139374e-01,4.50508e-01,9.99999e-01,4.50508e-01,9.99999e-01
8.452190071e-01,4.57660e-01,9.99999e-01,4.57660e-01,9.99999e-01
8.494451021e-01,4.64780e-01,9.99999e-01,4.64780e-01,9.99999e-01
8.536923276e-01,4.71868e-01,9.99999e-01,4.71868e-01,9.99999e-01
8.579607893e-01,4.78920e-01,9.99999e-01,4.78920e-01,9.99999e-01
8.622505932e-01,4.85936e-01,9.99999e-01,4.85936e-01,9.99999e-01
8.665618462e-01,4.49730e-01,9.12392e-01,4.92912e-01,9.99999e-01
8.708946554e-01,2.84876e-01,5.69924e-01,4.99848e-01,9.99999e-01
8.752491287e-01,3.19585e-01,6.30666e-01,5.06742e-01,9.99999e-01
8.796253743e-01,3.97580e-01,7.74116e-01,5.13592e-01,9.99999e-01
8.840235012e-01,4.55474e-01,8.75244e-01,5.20396e-01,9.99999e-01
8.884436187e-01,4.99927e-01,9.48351e-01,5.27154e-01,9.99999e-01
8.928858368e-01,5.22575e-01,9.78855e-01,5.33863e-01,9.99999e-01
8.973502660e-01,5.37691e-01,9.94762e-01,5.40522e-01,9.99999e-01
9.018370173e-01,5.46813e-01,9.99419e-01,5.47131e-01,9.99999e-01
9.063462024e-01,5.46020e-01,9.86152e-01,5.53687e-01,9.99999e-01
9.108779334e-01,5.41682e-01,9.66959e-01,5.60190e-01,9.99999e-01
9.154323231e-01,5.62110e-01,9.92005e-01,5.66639e-01,9.99999e-01
9.200094847e-01,5.14552e-01,8.97944e-01,5.73033e-01,9.99999e-01
9.246095321e-01,4.91796e-01,8.48845e-01,5.79370e-01,9.99999e-01
9.292325798e-01,5.16581e-01,8.82064e-01,5.85650e-01,9.99999e-01
9.338787427e-01,5.22943e-01,8.83540e-01,5.91872e-01,9.99999e-01
9.385481364e-01,5.45932e-01,9.12874e-01,5.98035e-01,9.99999e-01
9.432408771e-01,5.71094e-01,9.45302e-01,6.04139e-01,9.99999e-01
9.479570815e-01,5.92919e-01,9.71705e-01,6.10183e-01,9.99999e-01
9.526968669e-01,6.07674e-01,9.86216e-01,6.16166e-01,9.99999e-01
9.574603512e-01,6.18403e-01,9.94075e-01,6.22088e-01,9.99999e-01
9.622476530e-01,6.26784e-01,9.98145e-01,6.27948e-01,9.99999e-01
9.670588912e-01,6.33392e-01,9.99441e-01,6.33746e-01,9.99999e-01
9.718941857e-01,6.39455e-01,9.99958e-01,6.39481e-01,9.99999e-01
9.767536566e-01,6.45154e-01,9.99999e-01,6.45154e-01,9.99999e-01
9.816374249e-01,6.50763e-01,9.99999e-01,6.50763e-01,9.99999e-01
9.865456120e-01,6.56309e-01,9.99999e-01,6.56309e-01,9.99999e-01
9.914783401e-01,6.61791e-01,9.99999e-01,6.61791e-01,9.99999e-01
9.964357318e-01,6.67209e-01,9.99999e-01,6.67209e-01,9.99999e-01
1.001417910e+00,6.72563e-01,9.99999e-01,6.72563e-01,9.99999e-01
1.006425000e+00,6.77854e-01,9.99999e-01,6.77854e-01,9.99999e-01
1.011457125e+00,6.83080e-01,9.99999e-01,6.83080e-01,9.99999e-01
1.016514411e+00,6.88242e-01,9.99999e-01,6.88242e-01,9.99999e-01
1.021596983e+00,6.93297e-01,9.99937e-01,6.93340e-01,9.99999e-01
1.026704968e+00,6.94599e-01,9.94594e-01,6.98373e-01,9.99999e-01
1.031838492e+00,6.66870e-01,9.48142e-01,7.03343e-01,9.99999e-01
1.036997685e+00,7.66462e-02,1.08219e-01,7.08249e-01,9.99999e-01
1.042182673e+00,3.28004e-02,4.59974e-02,7.13092e-01,9.99999e-01
1.047393587e+00,5.14157e-02,7.16224e-02,7.17870e-01,9.99999e-01
1.052630555e+00,3.32467e-04,4.60106e-04,7.22586e-01,9.99999e-01
1.057893707e+00,9.91610e-04,1.36353e-03,7.27238e-01,9.99999e-01
1.063183176e+00,5.44206e-03,7.43624e-03,7.31828e-01,9.99999e-01
1.068499092e+00,2.25006e-02,3.05567e-02,7.36355e-01,9.99999e-01
1.073841587e+00,8.02122e-02,1.08275e-01,7.40820e-01,9.99999e-01
1.079210795e+00,1.82378e-01,2.44730e-01,7.45223e-01,9.99999e-01
1.084606849e+00,3.42353e-01,4.56736e-01,7.49564e-01,9.99999e-01
1.090029883e+00,5.01678e-01,6.65492e-01,7.53844e-01,9.99999e-01
1.095480033e+00,6.19808e-01,8.17619e-01,7.58063e-01,9.99999e-01
1.100957433e+00,6.91674e-01,9.07443e-01,7.62222e-01,9.99999e-01
1.106462220e+00,7.36082e-01,9.60539e-01,7.66321e-01,9.99999e-01
1.111994531e+00,7.58950e-01,9.85188e-01,7.70361e-01,9.99999e-01
1.117554504e+00,7.71501e-01,9.96332e-01,7.74341e-01,9.99999e-01
1.123142276e+00,7.78073e-01,9.99755e-01,7.78262e-01,9.99999e-01
1.128757988e+00,7.82125e-01,9.99999e-01,7.82126e-01,9.99999e-01
1.134401778e+00,7.85931e-01,9.99999e-01,7.85931e-01,9.99999e-01
1.140073787e+00,7.89680e-01,9.99999e-01,7.89680e-01,9.99999e-01
1.145774156e+00,7.93371e-01,9.99999e-01,7.93371e-01,9.99999e-01
1.151503026e+00,7.97007e-01,9.99999e-01,7.97007e-01,9.99999e-01
1.157260541e+00,8.00587e-01,9.99999e-01,8.00587e-01,9.99999e-01
1.163046844e+00,8.04112e-01,9.99999e-01,8.04112e-01,9.99999e-01
1.168862078e+00,8.07582e-01,9.99999e-01,8.07582e-01,9.99999e-01
1.174706389e+00,8.10998e-01,9.99999e-01,8.10998e-01,9.99999e-01
1.180579921e+00,8.14361e-01,9.99999e-01,8.14361e-01,9.99999e-01
1.186482820e+00,8.17667e-01,9.99994e-01,8.17671e-01,9.99999e-01
1.192415234e+00,8.05496e-01,9.81201e-01,8.20928e-01,9.99999e-01
1.198377311e+00,4.54665e-01,5.51687e-01,8.24134e-01,9.99999e-01
1.204369197e+00,9.30478e-16,1.12473e-15,8.27289e-01,9.99999e-01
1.210391043e+00,2.77844e-60,3.34593e-60,8.30393e-01,9.99999e-01
1.216442998e+00,2.54189e-52,3.04984e-52,8.33447e-01,9.99999e-01
1.222525213e+00,1.48829e-51,1.77929e-51,8.36452e-01,9.99999e-01
1.228637839e+00,6.53945e-40,7.79054e-40,8.39408e-01,9.99999e-01
1.234781029e+00,1.45375e-30,1.72589e-30,8.42315e-01,9.99999e-01
1.240954934e+00,4.86259e-17,5.75335e-17,8.45175e-01,9.99999e-01
1.247159708e+00,4.24830e-11,5.00986e-11,8.47988e-01,9.99999e-01
1.253395507e+00,6.55648e-06,7.70667e-06,8.50754e-01,9.99999e-01
1.259662485e+00,6.26429e-04,7.33974e-04,8.53475e-01,9.99999e-01
1.265960797e+00,1.73036e-02,2.02109e-02,8.56150e-01,9.99999e-01
1.272290601e+00,1.38893e-01,1.61733e-01,8.58780e-01,9.99999e-01
1.278652054e+00,1.39650e-01,1.62126e-01,8.61367e-01,9.99999e-01
1.285045314e+00,1.72371e-03,1.99524e-03,8.63909e-01,9.99999e-01
1.291470541e+00,1.13331e-07,1.30805e-07,8.66409e-01,9.99999e-01
1.297927893e+00,6.28485e-04,7.23338e-04,8.68867e-01,9.99999e-01
1.304417533e+00,3.97976e-02,4.56770e-02,8.71283e-01,9.99999e-01
1.310939621e+00,1.00690e-02,1.15251e-02,8.73657e-01,9.99999e-01
1.317494319e+00,4.57301e-21,5.22038e-21,8.75991e-01,9.99999e-01
1.324081790e+00,3.07478e-14,3.50088e-14,8.78285e-01,9.99999e-01
1.330702199e+00,1.95738e-08,2.22294e-08,8.80539e-01,9.99999e-01
1.337355710e+00,4.86866e-08,5.51529e-08,8.82755e-01,9.99999e-01
1.344042489e+00,1.81414e-08,2.05003e-08,8.84932e-01,9.99999e-01
1.350762701e+00,1.06263e-08,1.19791e-08,8.87071e-01,9.99999e-01
1.357516515e+00,9.81750e-06,1.10411e-05,8.89174e-01,9.99999e-01
1.364304097e+00,4.06143e-04,4.55706e-04,8.91239e-01,9.99999e-01
1.371125618e+00,1.66951e-02,1.86899e-02,8.93268e-01,9.99999e-01
1.377981246e+00,3.22540e-02,3.60275e-02,8.95262e-01,9.99999e-01
1.384871152e+00,1.29666e-01,1.44520e-01,8.97221e-01,9.99999e-01
1.391795508e+00,1.49888e-01,1.66700e-01,8.99145e-01,9.99999e-01
1.398754485e+00,2.96941e-01,3.29555e-01,9.01035e-01,9.99999e-01
1.405748258e+00,3.99041e-01,4.41959e-01,9.02891e-01,9.99999e-01
1.412776999e+00,5.39141e-01,5.95923e-01,9.04715e-01,9.99999e-01
1.419840884e+00,4.92779e-01,5.43602e-01,9.06506e-01,9.99999e-01
1.426940089e+00,3.39906e-02,3.74236e-02,9.08265e-01,9.99999e-01
1.434074789e+00,0.00000e+00,0.00000e+00,9.09993e-01,9.99999e-01
1.441245163e+00,0.00000e+00,0.00000e+00,9.11690e-01,9.99999e-01
1.448451389e+00,0.00000e+00,0.00000e+00,9.13357e-01,9.99999e-01
1.455693646e+00,0.00000e+00,0.00000e+00,9.14993e-01,9.99999e-01
1.462972114e+00,8.32343e-238,9.08076e-238,9.16600e-01,9.99999e-01
1.470286975e+00,3.55333e-99,3.86998e-99,9.18178e-01,9.99999e-01
1.477638409e+00,1.23673e-62,1.34467e-62,9.19728e-01,9.99999e-01
1.485026601e+00,3.06016e-35,3.32174e-35,9.21249e-01,9.99999e-01
1.492451734e+00,4.81159e-30,5.21444e-30,9.22743e-01,9.99999e-01
1.499913993e+00,1.50720e-13,1.63080e-13,9.24209e-01,9.99999e-01
1.507413563e+00,2.69834e-12,2.91508e-12,9.25649e-01,9.99999e-01
1.514950631e+00,1.02100e-13,1.10133e-13,9.27063e-01,9.99999e-01
1.522525384e+00,9.28648e-45,1.00021e-44,9.28451e-01,9.99999e-01
1.530138011e+00,8.94612e-106,9.62140e-106,9.29813e-01,9.99999e-01
1.537788701e+00,1.87497e-78,2.01360e-78,9.31151e-01,9.99999e-01
1.545477645e+00,3.36686e-17,3.61071e-17,9.32464e-01,9.99999e-01
1.553205033e+00,2.25133e-12,2.41106e-12,9.33752e-01,9.99999e-01
1.560971058e+00,8.69358e-13,9.29776e-13,9.35018e-01,9.99999e-01
1.568775913e+00,7.03609e-267,7.51511e-267,9.36259e-01,9.99999e-01
1.576619793e+00,0.00000e+00,0.00000e+00,9.37478e-01,9.99999e-01
1.584502892e+00,0.00000e+00,0.00000e+00,9.38674e-01,9.99999e-01
1.592425406e+00,6.65280e-238,7.07858e-238,9.39848e-01,9.99999e-01
1.600387533e+00,0.00000e+00,0.00000e+00,9.41001e-01,9.99999e-01
1.608389471e+00,0.00000e+00,0.00000e+00,9.42132e-01,9.99999e-01
1.616431418e+00,0.00000e+00,0.00000e+00,9.43242e-01,9.99999e-01
1.624513575e+00,3.67929e-302,3.89618e-302,9.44331e-01,9.99999e-01
1.632636143e+00,1.87117e-224,1.97924e-224,9.45400e-01,9.99999e-01
1.640799324e+00,6.12383e-92,6.47032e-92,9.46449e-01,9.99999e-01
1.649003321e+00,6.13801e-92,6.47826e-92,9.47479e-01,9.99999e-01
1.657248337e+00,3.18166e-71,3.35445e-71,9.48489e-01,9.99999e-01
1.665534579e+00,1.07998e-71,1.13744e-71,9.49480e-01,9.99999e-01
1.673862252e+00,5.31497e-46,5.59204e-46,9.50453e-01,9.99999e-01
1.682231563e+00,4.35859e-32,4.58120e-32,9.51407e-01,9.99999e-01
1.690642721e+00,3.49142e-18,3.66613e-18,9.52344e-01,9.99999e-01
1.699095934e+00,9.30310e-12,9.75921e-12,9.53263e-01,9.99999e-01
1.707591414e+00,1.78779e-06,1.87366e-06,9.54164e-01,9.99999e-01
1.716129371e+00,5.16571e-04,5.40883e-04,9.55049e-01,9.99999e-01
1.724710018e+00,1.38207e-02,1.44580e-02,9.55917e-01,9.99999e-01
1.733333568e+00,6.05118e-02,6.32460e-02,9.56769e-01,9.99999e-01
1.742000236e+00,1.89229e-01,1.97606e-01,9.57604e-01,9.99999e-01
1.750710237e+00,2.52825e-03,2.63793e-03,9.58424e-01,9.99999e-01
1.759463788e+00,6.52367e-44,6.80095e-44,9.59228e-01,9.99999e-01
1.768261107e+00,5.67317e-46,5.90943e-46,9.60017e-01,9.99999e-01
1.777102413e+00,1.31833e-44,1.37213e-44,9.60791e-01,9.99999e-01
1.785987925e+00,5.22511e-42,5.43404e-42,9.61551e-01,9.99999e-01
1.794917864e+00,4.10260e-40,4.26334e-40,9.62296e-01,9.99999e-01
1.803892454e+00,1.26001e-38,1.30838e-38,9.63026e-01,9.99999e-01
1.812911916e+00,4.28125e-37,4.44231e-37,9.63743e-01,9.99999e-01
1.821976476e+00,3.47850e-37,3.60673e-37,9.64447e-01,9.99999e-01
1.831086358e+00,5.19916e-30,5.38696e-30,9.65136e-01,9.99999e-01
1.840241790e+00,1.34307e-25,1.39061e-25,9.65813e-01,9.99999e-01
1.849442999e+00,7.43037e-18,7.68809e-18,9.66477e-01,9.99999e-01
1.858690214e+00,1.04962e-16,1.08529e-16,9.67128e-01,9.99999e-01
1.867983665e+00,2.34069e-17,2.41865e-17,9.67767e-01,9.99999e-01
1.877323583e+00,2.55136e-83,2.63463e-83,9.68393e-01,9.99999e-01
