#,Wave/freq,Total,CO2,Rayleigh,CIA
4.000000000e-01,6.88242e-15,9.99999e-01,6.88242e-15,9.99999e-01
4.020000000e-01,1.31028e-14,9.99999e-01,1.31028e-14,9.99999e-01
4.040100000e-01,2.46366e-14,9.99999e-01,2.46366e-14,9.99999e-01
4.060300500e-01,4.57488e-14,9.99999e-01,4.57488e-14,9.99999e-01
4.080602003e-01,8.39210e-14,9.99999e-01,8.39210e-14,9.99999e-01
4.101005013e-01,1.52110e-13,9.99999e-01,1.52110e-13,9.99999e-01
4.121510038e-01,2.72484e-13,9.99999e-01,2.72484e-13,9.99999e-01
4.142117588e-01,4.82530e-13,9.99999e-01,4.82530e-13,9.99999e-01
4.162828176e-01,8.44899e-13,9.99999e-01,8.44899e-13,9.99999e-01
4.183642317e-01,1.46312e-12,9.99999e-01,1.46312e-12,9.99999e-01
4.204560528e-01,2.50637e-12,9.99999e-01,2.50637e-12,9.99999e-01
4.225583331e-01,4.24808e-12,9.99999e-01,4.24808e-12,9.99999e-01
4.246711247e-01,7.12548e-12,9.99999e-01,7.12548e-12,9.99999e-01
4.267944804e-01,1.18304e-11,9.99999e-01,1.18304e-11,9.99999e-01
4.289284528e-01,1.94462e-11,9.99999e-01,1.94462e-11,9.99999e-01
4.310730950e-01,3.16524e-11,9.99999e-01,3.16524e-11,9.99999e-01
4.332284605e-01,5.10269e-11,9.99999e-01,5.10269e-11,9.99999e-01
4.353946028e-01,8.14884e-11,9.99999e-01,8.14884e-11,9.99999e-01
4.375715758e-01,1.28937e-10,9.99999e-01,1.28937e-10,9.99999e-01
4.397594337e-01,2.02172e-10,9.99999e-01,2.02172e-10,9.99999e-01
4.419582309e-01,3.14201e-10,9.99999e-01,3.14201e-10,9.99999e-01
4.441680220e-01,4.84073e-10,9.99999e-01,4.84073e-10,9.99999e-01
4.463888621e-01,7.39447e-10,9.99999e-01,7.39447e-10,9.99999e-01
4.486208064e-01,1.12013e-09,9.99999e-01,1.12013e-09,9.99999e-01
4.508639105e-01,1.68294e-09,9.99999e-01,1.68294e-09,9.99999e-01
4.531182300e-01,2.50827e-09,9.99999e-01,2.50827e-09,9.99999e-01
4.553838212e-01,3.70901e-09,9.99999e-01,3.70901e-09,9.99999e-01
4.576607403e-01,5.44235e-09,9.99999e-01,5.44235e-09,9.99999e-01
4.599490440e-01,7.92547e-09,9.99999e-01,7.92547e-09,9.99999e-01
4.622487892e-01,1.14562e-08,9.99999e-01,1.14562e-08,9.99999e-01
4.645600332e-01,1.64397e-08,9.99999e-01,1.64397e-08,9.99999e-01
4.668828333e-01,2.34233e-08,9.99999e-01,2.34233e-08,9.99999e-01
4.692172475e-01,3.31411e-08,9.99999e-01,3.31411e-08,9.99999e-01
4.715633337e-01,4.65702e-08,9.99999e-01,4.65702e-08,9.99999e-01
4.739211504e-01,6.50027e-08,9.99999e-01,6.50027e-08,9.99999e-01
4.762907561e-01,9.01350e-08,9.99999e-01,9.01350e-08,9.99999e-01
4.786722099e-01,1.24180e-07,9.99999e-01,1.24180e-07,9.99999e-01
4.810655710e-01,1.70005e-07,9.99999e-01,1.70005e-07,9.99999e-01
4.834708988e-01,2.31300e-07,9.99999e-01,2.31300e-07,9.99999e-01
4.858882533e-01,3.12788e-07,9.99999e-01,3.12788e-07,9.99999e-01
4.883176946e-01,4.20470e-07,9.99999e-01,4.20470e-07,9.99999e-01
4.907592831e-01,5.61930e-07,9.99999e-01,5.61930e-07,9.99999e-01
4.932130795e-01,7.46692e-07,9.99999e-01,7.46692e-07,9.99999e-01
4.956791449e-01,9.86648e-07,9.99999e-01,9.86648e-07,9.99999e-01
4.981575406e-01,1.29656e-06,9.99999e-01,1.29656e-06,9.99999e-01
5.006483283e-01,1.69465e-06,9.99999e-01,1.69465e-06,9.99999e-01
5.031515699e-01,2.20328e-06,9.99999e-01,2.20328e-06,9.99999e-01
5.056673278e-01,2.84976e-06,9.99999e-01,2.84976e-06,9.99999e-01
5.081956644e-01,3.66724e-06,9.99999e-01,3.66724e-06,9.99999e-01
5.107366428e-01,4.69577e-06,9.99999e-01,4.69577e-06,9.99999e-01
5.132903260e-01,5.98348e-06,9.99999e-01,5.98348e-06,9.99999e-01
5.158567776e-01,7.58791e-06,9.99999e-01,7.58791e-06,9.99999e-01
5.184360615e-01,9.57750e-06,9.99999e-01,9.57750e-06,9.99999e-01
5.210282418e-01,1.20333e-05,9.99999e-01,1.20333e-05,9.99999e-01
5.236333830e-01,1.50508e-05,9.99999e-01,1.50508e-05,9.99999e-01
5.262515499e-01,1.87419e-05,9.99999e-01,1.87419e-05,9.99999e-01
5.288828077e-01,2.32374e-05,9.99999e-01,2.32374e-05,9.99999e-01
5.315272217e-01,2.86891e-05,9.99999e-01,2.86891e-05,9.99999e-01
5.341848578e-01,3.52727e-05,9.99999e-01,3.52727e-05,9.99999e-01
5.368557821e-01,4.31905e-05,9.99999e-01,4.31905e-05,9.99999e-01
5.395400610e-01,5.26744e-05,9.99999e-01,5.26744e-05,9.99999e-01
5.422377613e-01,6.39895e-05,9.99999e-01,6.39895e-05,9.99999e-01
5.449489501e-01,7.74370e-05,9.99999e-01,7.74370e-05,9.99999e-01
5.476736949e-01,9.33581e-05,9.99999e-01,9.33581e-05,9.99999e-01
5.504120634e-01,1.12138e-04,9.99999e-01,1.12138e-04,9.99999e-01
5.531641237e-01,1.34208e-04,9.99999e-01,1.34208e-04,9.99999e-01
5.559299443e-01,1.60053e-04,9.99999e-01,1.60053e-04,9.99999e-01
5.587095940e-01,1.90213e-04,9.99999e-01,1.90213e-04,9.99999e-01
5.615031420e-01,2.25286e-04,9.99999e-01,2.25286e-04,9.99999e-01
5.643106577e-01,2.65936e-04,9.99999e-01,2.65936e-04,9.99999e-01
5.671322110e-01,3.12893e-04,9.99999e-01,3.12893e-04,9.99999e-01
5.699678720e-01,3.66962e-04,9.99999e-01,3.66962e-04,9.99999e-01
5.728177114e-01,4.29020e-04,9.99999e-01,4.29020e-04,9.99999e-01
5.756818000e-01,5.00029e-04,9.99999e-01,5.00029e-04,9.99999e-01
5.785602090e-01,5.81029e-04,9.99999e-01,5.81029e-04,9.99999e-01
5.814530100e-01,6.73152e-04,9.99999e-01,6.73152e-04,9.99999e-01
5.843602750e-01,7.77617e-04,9.99999e-01,7.77617e-04,9.99999e-01
5.872820764e-01,8.95737e-04,9.99999e-01,8.95737e-04,9.99999e-01
5.902184868e-01,1.02892e-03,9.99999e-01,1.02892e-03,9.99999e-01
5.931695792e-01,1.17868e-03,9.99999e-01,1.17868e-03,9.99999e-01
5.961354271e-01,1.34661e-03,9.99999e-01,1.34661e-03,9.99999e-01
5.991161043e-01,1.53443e-03,9.99999e-01,1.53443e-03,9.99999e-01
6.021116848e-01,1.74394e-03,9.99999e-01,1.74394e-03,9.99999e-01
6.051222432e-01,1.97705e-03,9.99999e-01,1.97705e-03,9.99999e-01
6.081478544e-01,2.23578e-03,9.99999e-01,2.23578e-03,9.99999e-01
6.111885937e-01,2.52223e-03,9.99999e-01,2.52223e-03,9.99999e-01
6.142445367e-01,2.83861e-03,9.99999e-01,2.83861e-03,9.99999e-01
6.173157594e-01,3.18722e-03,9.99999e-01,3.18722e-03,9.99999e-01
6.204023382e-01,3.57048e-03,9.99999e-01,3.57048e-03,9.99999e-01
6.235043498e-01,3.99086e-03,9.99999e-01,3.99086e-03,9.99999e-01
6.266218716e-01,4.45093e-03,9.99999e-01,4.45093e-03,9.99999e-01
6.297549810e-01,4.95336e-03,9.99999e-01,4.95336e-03,9.99999e-01
6.329037559e-01,5.50087e-03,9.99999e-01,5.50087e-03,9.99999e-01
6.360682746e-01,6.09626e-03,9.99999e-01,6.09626e-03,9.99999e-01
6.392486160e-01,6.74239e-03,9.99999e-01,6.74239e-03,9.99999e-01
6.424448591e-01,7.44218e-03,9.99999e-01,7.44218e-03,9.99999e-01
6.456570834e-01,8.19859e-03,9.99999e-01,8.19859e-03,9.99999e-01
6.488853688e-01,9.01464e-03,9.99999e-01,9.01464e-03,9.99999e-01
6.521297956e-01,9.89334e-03,9.99999e-01,9.89334e-03,9.99999e-01
6.553904446e-01,1.08378e-02,9.99999e-01,1.08378e-02,9.99999e-01
6.586673968e-01,1.18510e-02,9.99999e-01,1.18510e-02,9.99999e-01
6.619607338e-01,1.29361e-02,9.99999e-01,1.29361e-02,9.99999e-01
6.652705375e-01,1.40961e-02,9.99999e-01,1.40961e-02,9.99999e-01
6.685968902e-01,1.53341e-02,9.99999e-01,1.53341e-02,9.99999e-01
6.719398746e-01,1.66532e-02,9.99999e-01,1.66532e-02,9.99999e-01
6.752995740e-01,1.80562e-02,9.99999e-01,1.80562e-02,9.99999e-01
6.786760719e-01,1.95462e-02,9.99999e-01,1.95462e-02,9.99999e-01
6.820694522e-01,2.11261e-02,9.99999e-01,2.11261e-02,9.99999e-01
6.854797995e-01,2.27986e-02,9.99999e-01,2.27986e-02,9.99999e-01
6.889071985e-01,2.45665e-02,9.99999e-01,2.45665e-02,9.99999e-01
6.923517345e-01,2.64325e-02,9.99999e-01,2.64325e-02,9.99999e-01
6.958134932e-01,2.83991e-02,9.99999e-01,2.83991e-02,9.99999e-01
6.992925606e-01,3.04688e-02,9.99999e-01,3.04688e-02,9.99999e-01
7.027890234e-01,3.26440e-02,9.99999e-01,3.26440e-02,9.99999e-01
7.063029686e-01,3.49268e-02,9.99999e-01,3.49268e-02,9.99999e-01
7.098344834e-01,3.73194e-02,9.99999e-01,3.73194e-02,9.99999e-01
7.133836558e-01,3.98238e-02,9.99999e-01,3.98238e-02,9.99999e-01
7.169505741e-01,4.24418e-02,9.99999e-01,4.24418e-02,9.99999e-01
7.205353270e-01,4.51750e-02,9.99999e-01,4.51750e-02,9.99999e-01
7.241380036e-01,4.80250e-02,9.99999e-01,4.80250e-02,9.99999e-01
7.277586936e-01,5.09931e-02,9.99999e-01,5.09931e-02,9.99999e-01
7.313974871e-01,5.40806e-02,9.99999e-01,5.40806e-02,9.99999e-01
7.350544745e-01,5.72884e-02,9.99999e-01,5.72884e-02,9.99999e-01
7.387297469e-01,6.06175e-02,9.99999e-01,6.06175e-02,9.99999e-01
7.424233956e-01,6.40685e-02,9.99999e-01,6.40685e-02,9.99999e-01
7.461355126e-01,6.76420e-02,9.99999e-01,6.76420e-02,9.99999e-01
7.498661902e-01,7.13383e-02,9.99999e-01,7.13383e-02,9.99999e-01
7.536155211e-01,7.51575e-02,9.99999e-01,7.51575e-02,9.99999e-01
7.573835987e-01,7.90997e-02,9.99999e-01,7.90997e-02,9.99999e-01
7.611705167e-01,8.31646e-02,9.99999e-01,8.31646e-02,9.99999e-01
7.649763693e-01,8.73519e-02,9.99999e-01,8.73519e-02,9.99999e-01
7.688012511e-01,9.16611e-02,9.99999e-01,9.16611e-02,9.99999e-01
7.726452574e-01,9.60913e-02,9.99999e-01,9.60913e-02,9.99999e-01
7.765084837e-01,9.99639e-02,9.93262e-01,1.00642e-01,9.99999e-01
7.803910261e-01,6.90100e-02,6.55292e-01,1.05312e-01,9.99999e-01
7.842929812e-01,7.79705e-02,7.08182e-01,1.10099e-01,9.99999e-01
7.882144461e-01,7.89684e-02,6.86658e-01,1.15004e-01,9.99999e-01
7.921555184e-01,9.27957e-02,7.73147e-01,1.20023e-01,9.99999e-01
7.961162960e-01,1.07667e-01,8.60263e-01,1.25156e-01,9.99999e-01
8.000968774e-01,1.20645e-01,9.25186e-01,1.30401e-01,9.99999e-01
8.040973618e-01,1.31004e-01,9.65003e-01,1.35755e-01,9.99999e-01
8.081178486e-01,1.39246e-01,9.86046e-01,1.41216e-01,9.99999e-01
8.121584379e-01,1.46236e-01,9.96272e-01,1.46783e-01,9.99999e-01
8.162192301e-01,1.52415e-01,9.99747e-01,1.52453e-01,9.99999e-01
8.203003262e-01,1.58224e-01,9.99999e-01,1.58224e-01,9.99999e-01
8.244018279e-01,1.64092e-01,9.99999e-01,1.64092e-01,9.99999e-01
8.285238370e-01,1.70056e-01,9.99999e-01,1.70056e-01,9.99999e-01
8.326664562e-01,1.76113e-01,9.99999e-01,1.76113e-01,9.99999e-01
8.368297885e-01,1.82259e-01,9.99999e-01,1.82259e-01,9.99999e-01
8.410139374e-01,1.88491e-01,9.99999e-01,1.88491e-01,9.99999e-01
8.452190071e-01,1.94808e-01,9.99999e-01,1.94808e-01,9.99999e-01
8.494451021e-01,2.01205e-01,9.99999e-01,2.01205e-01,9.99999e-01
8.536923276e-01,2.07679e-01,9.99999e-01,2.07679e-01,9.99999e-01
8.579607893e-01,2.14228e-01,9.99999e-01,2.14228e-01,9.99999e-01
8.622505932e-01,2.20199e-01,9.97062e-01,2.20848e-01,9.99999e-01
8.665618462e-01,9.06749e-02,3.98509e-01,2.27535e-01,9.99999e-01
8.708946554e-01,7.52295e-02,3.21099e-01,2.34287e-01,9.99999e-01
8.752491287e-01,1.14349e-01,4.74281e-01,2.41100e-01,9.99999e-01
8.796253743e-01,1.71434e-01,6.91346e-01,2.47971e-01,9.99999e-01
8.840235012e-01,2.16336e-01,8.48722e-01,2.54896e-01,9.99999e-01
8.884436187e-01,2.45383e-01,9.37035e-01,2.61872e-01,9.99999e-01
8.928858368e-01,2.63660e-01,9.80530e-01,2.68895e-01,9.99999e-01
8.973502660e-01,2.74917e-01,9.96210e-01,2.75962e-01,9.99999e-01
9.018370173e-01,2.82266e-01,9.97156e-01,2.83070e-01,9.99999e-01
9.063462024e-01,2.68903e-01,9.26563e-01,2.90216e-01,9.99999e-01
9.108779334e-01,2.87374e-01,9.66304e-01,2.97395e-01,9.99999e-01
9.154323231e-01,2.90486e-01,9.53649e-01,3.04605e-01,9.99999e-01
9.200094847e-01,2.12352e-01,6.80962e-01,3.11841e-01,9.99999e-01
9.246095321e-01,2.45162e-01,7.68285e-01,3.19102e-01,9.99999e-01
9.292325798e-01,2.45123e-01,7.51027e-01,3.26384e-01,9.99999e-01
9.338787427e-01,2.62690e-01,7.87245e-01,3.33683e-01,9.99999e-01
9.385481364e-01,2.98893e-01,8.76528e-01,3.40996e-01,9.99999e-01
9.432408771e-01,3.21549e-01,9.23143e-01,3.48320e-01,9.99999e-01
9.479570815e-01,3.40721e-01,9.58018e-01,3.55652e-01,9.99999e-01
9.526968669e-01,3.56341e-01,9.81683e-01,3.62989e-01,9.99999e-01
9.574603512e-01,3.67944e-01,9.93560e-01,3.70328e-01,9.99999e-01
9.622476530e-01,3.76879e-01,9.97915e-01,3.77666e-01,9.99999e-01
9.670588912e-01,3.84877e-01,9.99677e-01,3.85001e-01,9.99999e-01
9.718941857e-01,3.92328e-01,9.99998e-01,3.92328e-01,9.99999e-01
9.767536566e-01,3.99647e-01,9.99999e-01,3.99647e-01,9.99999e-01
9.816374249e-01,4.06953e-01,9.99999e-01,4.06953e-01,9.99999e-01
9.865456120e-01,4.14244e-01,9.99999e-01,4.14244e-01,9.99999e-01
9.914783401e-01,4.21518e-01,9.99999e-01,4.21518e-01,9.99999e-01
9.964357318e-01,4.28773e-01,9.99999e-01,4.28773e-01,9.99999e-01
1.001417910e+00,4.36005e-01,9.99999e-01,4.36005e-01,9.99999e-01
1.006425000e+00,4.43213e-01,9.99999e-01,4.43213e-01,9.99999e-01
1.011457125e+00,4.50394e-01,9.99999e-01,4.50394e-01,9.99999e-01
1.016514411e+00,4.57546e-01,9.99997e-01,4.57547e-01,9.99999e-01
1.021596983e+00,4.63220e-01,9.96882e-01,4.64668e-01,9.99999e-01
1.026704968e+00,4.60234e-01,9.75576e-01,4.71756e-01,9.99999e-01
1.031838492e+00,1.59214e-01,3.32521e-01,4.78809e-01,9.99999e-01
1.036997685e+00,2.03276e-04,4.18414e-04,4.85825e-01,9.99999e-01
1.042182673e+00,6.42317e-03,1.30340e-02,4.92802e-01,9.99999e-01
1.047393587e+00,3.48348e-04,6.97059e-04,4.99739e-01,9.99999e-01
1.052630555e+00,5.62383e-07,1.11004e-06,5.06633e-01,9.99999e-01
1.057893707e+00,5.16133e-06,1.00516e-05,5.13484e-01,9.99999e-01
1.063183176e+00,2.12006e-04,4.07478e-04,5.20289e-01,9.99999e-01
1.068499092e+00,4.28157e-03,8.12368e-03,5.27047e-01,9.99999e-01
1.073841587e+00,1.41565e-02,2.65223e-02,5.33757e-01,9.99999e-01
1.079210795e+00,7.44235e-02,1.37715e-01,5.40417e-01,9.99999e-01
1.084606849e+00,1.72895e-01,3.16063e-01,5.47026e-01,9.99999e-01
1.090029883e+00,3.13413e-01,5.66152e-01,5.53584e-01,9.99999e-01
1.095480033e+00,4.22684e-01,7.54674e-01,5.60088e-01,9.99999e-01
1.100957433e+00,5.02612e-01,8.87163e-01,5.66537e-01,9.99999e-01
1.106462220e+00,5.45373e-01,9.51897e-01,5.72932e-01,9.99999e-01
1.111994531e+00,5.71031e-01,9.85776e-01,5.79270e-01,9.99999e-01
1.117554504e+00,5.84175e-01,9.97650e-01,5.85551e-01,9.99999e-01
1.123142276e+00,5.91766e-01,9.99986e-01,5.91774e-01,9.99999e-01
1.128757988e+00,5.97938e-01,9.99999e-01,5.97938e-01,9.99999e-01
1.134401778e+00,6.04043e-01,9.99999e-01,6.04043e-01,9.99999e-01
1.140073787e+00,6.10088e-01,9.99999e-01,6.10088e-01,9.99999e-01
1.145774156e+00,6.16072e-01,9.99999e-01,6.16072e-01,9.99999e-01
1.151503026e+00,6.21995e-01,9.99999e-01,6.21995e-01,9.99999e-01
1.157260541e+00,6.27856e-01,9.99999e-01,6.27856e-01,9.99999e-01
1.163046844e+00,6.33655e-01,9.99999e-01,6.33655e-01,9.99999e-01
1.168862078e+00,6.39391e-01,9.99999e-01,6.39391e-01,9.99999e-01
1.174706389e+00,6.45064e-01,9.99999e-01,6.45064e-01,9.99999e-01
1.180579921e+00,6.50675e-01,9.99999e-01,6.50675e-01,9.99999e-01
1.186482820e+00,6.53530e-01,9.95898e-01,6.56221e-01,9.99999e-01
1.192415234e+00,5.94951e-01,8.99118e-01,6.61705e-01,9.99999e-01
1.198377311e+00,4.75578e-02,7.12877e-02,6.67124e-01,9.99999e-01
1.204369197e+00,9.02911e-161,1.34266e-160,6.72479e-01,9.99999e-01
1.210391043e+00,3.30007e-122,4.86901e-122,6.77770e-01,9.99999e-01
1.216442998e+00,1.59486e-106,2.33508e-106,6.82997e-01,9.99999e-01
1.222525213e+00,2.72338e-82,3.95747e-82,6.88160e-01,9.99999e-01
1.228637839e+00,2.43544e-62,3.51303e-62,6.93259e-01,9.99999e-01
1.234781029e+00,3.49025e-41,4.99824e-41,6.98294e-01,9.99999e-01
1.240954934e+00,5.69218e-25,8.09392e-25,7.03265e-01,9.99999e-01
1.247159708e+00,6.76124e-12,9.54745e-12,7.08172e-01,9.99999e-01
1.253395507e+00,9.69498e-09,1.35971e-08,7.13015e-01,9.99999e-01
1.259662485e+00,4.45384e-05,6.20489e-05,7.17795e-01,9.99999e-01
1.265960797e+00,5.95734e-03,8.24531e-03,7.22512e-01,9.99999e-01
1.272290601e+00,4.00877e-02,5.51287e-02,7.27165e-01,9.99999e-01
1.278652054e+00,2.55555e-03,3.49235e-03,7.31756e-01,9.99999e-01
1.285045314e+00,3.92043e-11,5.32462e-11,7.36284e-01,9.99999e-01
1.291470541e+00,1.04215e-11,1.40689e-11,7.40750e-01,9.99999e-01
1.297927893e+00,4.91267e-04,6.59283e-04,7.45154e-01,9.99999e-01
1.304417533e+00,1.25300e-03,1.67178e-03,7.49496e-01,9.99999e-01
1.310939621e+00,2.62639e-06,3.48430e-06,7.53777e-01,9.99999e-01
1.317494319e+00,2.98299e-39,3.93535e-39,7.57997e-01,9.99999e-01
1.324081790e+00,4.49150e-17,5.89313e-17,7.62157e-01,9.99999e-01
1.330702199e+00,5.55027e-17,7.24335e-17,7.66257e-01,9.99999e-01
1.337355710e+00,2.76752e-15,3.59279e-15,7.70297e-01,9.99999e-01
1.344042489e+00,3.19272e-19,4.12347e-19,7.74278e-01,9.99999e-01
1.350762701e+00,1.90144e-12,2.44338e-12,7.78201e-01,9.99999e-01
1.357516515e+00,1.30157e-08,1.66427e-08,7.82065e-01,9.99999e-01
1.364304097e+00,5.56410e-05,7.08016e-05,7.85871e-01,9.99999e-01
1.371125618e+00,4.88908e-04,6.19167e-04,7.89621e-01,9.99999e-01
1.377981246e+00,9.81229e-03,1.23687e-02,7.93313e-01,9.99999e-01
1.384871152e+00,1.27559e-02,1.60058e-02,7.96950e-01,9.99999e-01
1.391795508e+00,5.94874e-02,7.43099e-02,8.00531e-01,9.99999e-01
1.398754485e+00,1.01564e-01,1.26315e-01,8.04056e-01,9.99999e-01
1.405748258e+00,2.21386e-01,2.74152e-01,8.07527e-01,9.99999e-01
1.412776999e+00,3.35347e-01,4.13526e-01,8.10944e-01,9.99999e-01
1.419840884e+00,3.90160e-02,4.79131e-02,8.14308e-01,9.99999e-01
1.426940089e+00,2.38008e-272,2.91099e-272,8.17619e-01,9.99999e-01
1.434074789e+00,0.00000e+00,0.00000e+00,8.20877e-01,9.99999e-01
1.441245163e+00,0.00000e+00,0.00000e+00,8.24084e-01,9.99999e-01
1.448451389e+00,0.00000e+00,0.00000e+00,8.27239e-01,9.99999e-01
1.455693646e+00,0.00000e+00,0.00000e+00,8.30344e-01,9.99999e-01
1.462972114e+00,2.60792e-295,3.12925e-295,8.33399e-01,9.99999e-01
1.470286975e+00,3.95080e-194,4.72355e-194,8.36405e-01,9.99999e-01
1.477638409e+00,1.83681e-92,2.18834e-92,8.39361e-01,9.99999e-01
1.485026601e+00,6.09817e-72,7.24016e-72,8.42269e-01,9.99999e-01
1.492451734e+00,4.05588e-37,4.79911e-37,8.45130e-01,9.99999e-01
1.499913993e+00,3.41833e-25,4.03131e-25,8.47944e-01,9.99999e-01
1.507413563e+00,1.08158e-25,1.27139e-25,8.50711e-01,9.99999e-01
1.514950631e+00,9.81698e-54,1.15029e-53,8.53432e-01,9.99999e-01
1.522525384e+00,8.23076e-149,9.61416e-149,8.56108e-01,9.99999e-01
1.530138011e+00,1.53184e-164,1.78383e-164,8.58739e-01,9.99999e-01
1.537788701e+00,2.35482e-71,2.73394e-71,8.61326e-01,9.99999e-01
1.545477645e+00,7.30821e-26,8.45984e-26,8.63870e-01,9.99999e-01
1.553205033e+00,1.24526e-24,1.43732e-24,8.66370e-01,9.99999e-01
1.560971058e+00,3.67274e-69,4.22722e-69,8.68828e-01,9.99999e-01
1.568775913e+00,0.00000e+00,0.00000e+00,8.71245e-01,9.99999e-01
1.576619793e+00,0.00000e+00,0.00000e+00,8.73620e-01,9.99999e-01
1.584502892e+00,0.00000e+00,0.00000e+00,8.75954e-01,9.99999e-01
1.592425406e+00,0.00000e+00,0.00000e+00,8.78249e-01,9.99999e-01
1.600387533e+00,0.00000e+00,0.00000e+00,8.80504e-01,9.99999e-01
1.608389471e+00,0.00000e+00,0.00000e+00,8.82720e-01,9.99999e-01
1.616431418e+00,0.00000e+00,0.00000e+00,8.84898e-01,9.99999e-01
1.624513575e+00,0.00000e+00,0.00000e+00,8.87038e-01,9.99999e-01
1.632636143e+00,2.02659e-254,2.27927e-254,8.89141e-01,9.99999e-01
1.640799324e+00,3.29999e-192,3.70283e-192,8.91207e-01,9.99999e-01
1.649003321e+00,4.19203e-150,4.69308e-150,8.93236e-01,9.99999e-01
1.657248337e+00,2.42879e-148,2.71303e-148,8.95231e-01,9.99999e-01
1.665534579e+00,7.51147e-105,8.37221e-105,8.97190e-01,9.99999e-01
1.673862252e+00,2.25115e-83,2.50374e-83,8.99114e-01,9.99999e-01
1.682231563e+00,1.22874e-44,1.36375e-44,9.01005e-01,9.99999e-01
1.690642721e+00,1.19593e-28,1.32460e-28,9.02862e-01,9.99999e-01
1.699095934e+00,2.75417e-14,3.04434e-14,9.04686e-01,9.99999e-01
1.707591414e+00,7.34353e-09,8.10116e-09,9.06478e-01,9.99999e-01
1.716129371e+00,2.87165e-05,3.16178e-05,9.08238e-01,9.99999e-01
1.724710018e+00,1.29012e-03,1.41777e-03,9.09966e-01,9.99999e-01
1.733333568e+00,2.09853e-02,2.30187e-02,9.11664e-01,9.99999e-01
1.742000236e+00,9.61800e-03,1.05307e-02,9.13330e-01,9.99999e-01
1.750710237e+00,5.83040e-13,6.37224e-13,9.14967e-01,9.99999e-01
1.759463788e+00,4.47212e-94,4.87916e-94,9.16575e-01,9.99999e-01
1.768261107e+00,1.45475e-92,1.58443e-92,9.18153e-01,9.99999e-01
1.777102413e+00,1.53274e-92,1.66656e-92,9.19703e-01,9.99999e-01
1.785987925e+00,1.68178e-82,1.82559e-82,9.21225e-01,9.99999e-01
1.794917864e+00,3.79483e-84,4.11265e-84,9.22719e-01,9.99999e-01
1.803892454e+00,3.86900e-76,4.18638e-76,9.24186e-01,9.99999e-01
1.812911916e+00,3.58956e-91,3.87798e-91,9.25627e-01,9.99999e-01
1.821976476e+00,3.60943e-66,3.89349e-66,9.27041e-01,9.99999e-01
1.831086358e+00,8.54756e-61,9.20647e-61,9.28429e-01,9.99999e-01
1.840241790e+00,1.55769e-36,1.67531e-36,9.29792e-01,9.99999e-01
1.849442999e+00,2.47772e-35,2.66098e-35,9.31130e-01,9.99999e-01
1.858690214e+00,5.73989e-34,6.15574e-34,9.32443e-01,9.99999e-01
1.867983665e+00,5.71733e-54,6.12308e-54,9.33732e-01,9.99999e-01
1.877323583e+00,6.21753e-176,6.64978e-176,9.34998e-01,9.99999e-01
