#,Wave/freq,Total,CO2,Rayleigh,CIA
4.000000000e-01,9.23410e-21,9.99999e-01,9.23410e-21,9.99999e-01
4.020000000e-01,2.29594e-20,9.99999e-01,2.29594e-20,9.99999e-01
4.040100000e-01,5.60894e-20,9.99999e-01,5.60894e-20,9.99999e-01
4.060300500e-01,1.34629e-19,9.99999e-01,1.34629e-19,9.99999e-01
4.080602003e-01,3.17603e-19,9.99999e-01,3.17603e-19,9.99999e-01
4.101005013e-01,7.36662e-19,9.99999e-01,7.36662e-19,9.99999e-01
4.121510038e-01,1.68049e-18,9.99999e-01,1.68049e-18,9.99999e-01
4.142117588e-01,3.77161e-18,9.99999e-01,3.77161e-18,9.99999e-01
4.162828176e-01,8.33073e-18,9.99999e-01,8.33073e-18,9.99999e-01
4.183642317e-01,1.81152e-17,9.99999e-01,1.81152e-17,9.99999e-01
4.204560528e-01,3.87916e-17,9.99999e-01,3.87916e-17,9.99999e-01
4.225583331e-01,8.18277e-17,9.99999e-01,8.18277e-17,9.99999e-01
4.246711247e-01,1.70083e-16,9.99999e-01,1.70083e-16,9.99999e-01
4.267944804e-01,3.48453e-16,9.99999e-01,3.48453e-16,9.99999e-01
4.289284528e-01,7.03841e-16,9.99999e-01,7.03841e-16,9.99999e-01
4.310730950e-01,1.40209e-15,9.99999e-01,1.40209e-15,9.99999e-01
4.332284605e-01,2.75526e-15,9.99999e-01,2.75526e-15,9.99999e-01
4.353946028e-01,5.34264e-15,9.99999e-01,5.34264e-15,9.99999e-01
4.375715758e-01,1.02251e-14,9.99999e-01,1.02251e-14,9.99999e-01
4.397594337e-01,1.93202e-14,9.99999e-01,1.93202e-14,9.99999e-01
4.419582309e-01,3.60493e-14,9.99999e-01,3.60493e-14,9.99999e-01
4.441680220e-01,6.64403e-14,9.99999e-01,6.64403e-14,9.99999e-01
4.463888621e-01,1.20982e-13,9.99999e-01,1.20982e-13,9.99999e-01
4.486208064e-01,2.17705e-13,9.99999e-01,2.17705e-13,9.99999e-01
4.508639105e-01,3.87238e-13,9.99999e-01,3.87238e-13,9.99999e-01
4.531182300e-01,6.80998e-13,9.99999e-01,6.80998e-13,9.99999e-01
4.553838212e-01,1.18433e-12,9.99999e-01,1.18433e-12,9.99999e-01
4.576607403e-01,2.03728e-12,9.99999e-01,2.03728e-12,9.99999e-01
4.599490440e-01,3.46717e-12,9.99999e-01,3.46717e-12,9.99999e-01
4.622487892e-01,5.83901e-12,9.99999e-01,5.83901e-12,9.99999e-01
4.645600332e-01,9.73266e-12,9.99999e-01,9.73266e-12,9.99999e-01
4.668828333e-01,1.60598e-11,9.99999e-01,1.60598e-11,9.99999e-01
4.692172475e-01,2.62394e-11,9.99999e-01,2.62394e-11,9.99999e-01
4.715633337e-01,4.24577e-11,9.99999e-01,4.24577e-11,9.99999e-01
4.739211504e-01,6.80503e-11,9.99999e-01,6.80503e-11,9.99999e-01
4.762907561e-01,1.08058e-10,9.99999e-01,1.08058e-10,9.99999e-01
4.786722099e-01,1.70027e-10,9.99999e-01,1.70027e-10,9.99999e-01
4.810655710e-01,2.65148e-10,9.99999e-01,2.65148e-10,9.99999e-01
4.834708988e-01,4.09872e-10,9.99999e-01,4.09872e-10,9.99999e-01
4.858882533e-01,6.28162e-10,9.99999e-01,6.28162e-10,9.99999e-01
4.883176946e-01,9.54624e-10,9.99999e-01,9.54624e-10,9.99999e-01
4.907592831e-01,1.43881e-09,9.99999e-01,1.43881e-09,9.99999e-01
4.932130795e-01,2.15107e-09,9.99999e-01,2.15107e-09,9.99999e-01
4.956791449e-01,3.19048e-09,9.99999e-01,3.19048e-09,9.99999e-01
4.981575406e-01,4.69544e-09,9.99999e-01,4.69544e-09,9.99999e-01
5.006483283e-01,6.85774e-09,9.99999e-01,6.85774e-09,9.99999e-01
5.031515699e-01,9.94115e-09,9.99999e-01,9.94115e-09,9.99999e-01
5.056673278e-01,1.43056e-08,9.99999e-01,1.43056e-08,9.99999e-01
5.081956644e-01,2.04388e-08,9.99999e-01,2.04388e-08,9.99999e-01
5.107366428e-01,2.89963e-08,9.99999e-01,2.89963e-08,9.99999e-01
5.132903260e-01,4.08536e-08,9.99999e-01,4.08536e-08,9.99999e-01
5.158567776e-01,5.71711e-08,9.99999e-01,5.71711e-08,9.99999e-01
5.184360615e-01,7.94768e-08,9.99999e-01,7.94768e-08,9.99999e-01
5.210282418e-01,1.09769e-07,9.99999e-01,1.09769e-07,9.99999e-01
5.236333830e-01,1.50642e-07,9.99999e-01,1.50642e-07,9.99999e-01
5.262515499e-01,2.05446e-07,9.99999e-01,2.05446e-07,9.99999e-01
5.288828077e-01,2.78477e-07,9.99999e-01,2.78477e-07,9.99999e-01
5.315272217e-01,3.75207e-07,9.99999e-01,3.75207e-07,9.99999e-01
5.341848578e-01,5.02568e-07,9.99999e-01,5.02568e-07,9.99999e-01
5.368557821e-01,6.69286e-07,9.99999e-01,6.69286e-07,9.99999e-01
5.395400610e-01,8.86281e-07,9.99999e-01,8.86281e-07,9.99999e-01
5.422377613e-01,1.16714e-06,9.99999e-01,1.16714e-06,9.99999e-01
5.449489501e-01,1.52866e-06,9.99999e-01,1.52866e-06,9.99999e-01
5.476736949e-01,1.99152e-06,9.99999e-01,1.99152e-06,9.99999e-01
5.504120634e-01,2.58101e-06,9.99999e-01,2.58101e-06,9.99999e-01
5.531641237e-01,3.32791e-06,9.99999e-01,3.32791e-06,9.99999e-01
5.559299443e-01,4.26945e-06,9.99999e-01,4.26945e-06,9.99999e-01
5.587095940e-01,5.45049e-06,9.99999e-01,5.45049e-06,9.99999e-01
5.615031420e-01,6.92475e-06,9.99999e-01,6.92475e-06,9.99999e-01
5.643106577e-01,8.75626e-06,9.99999e-01,8.75626e-06,9.99999e-01
5.671322110e-01,1.10210e-05,9.99999e-01,1.10210e-05,9.99999e-01
5.699678720e-01,1.38086e-05,9.99999e-01,1.38086e-05,9.99999e-01
5.728177114e-01,1.72244e-05,9.99999e-01,1.72244e-05,9.99999e-01
5.756818000e-01,2.13915e-05,9.99999e-01,2.13915e-05,9.99999e-01
5.785602090e-01,2.64533e-05,9.99999e-01,2.64533e-05,9.99999e-01
5.814530100e-01,3.25760e-05,9.99999e-01,3.25760e-05,9.99999e-01
5.843602750e-01,3.99511e-05,9.99999e-01,3.99511e-05,9.99999e-01
5.872820764e-01,4.87989e-05,9.99999e-01,4.87989e-05,9.99999e-01
5.902184868e-01,5.93710e-05,9.99999e-01,5.93710e-05,9.99999e-01
5.931695792e-01,7.19543e-05,9.99999e-01,7.19543e-05,9.99999e-01
5.961354271e-01,8.68741e-05,9.99999e-01,8.68741e-05,9.99999e-01
5.991161043e-01,1.04498e-04,9.99999e-01,1.04498e-04,9.99999e-01
6.021116848e-01,1.25239e-04,9.99999e-01,1.25239e-04,9.99999e-01
6.051222432e-01,1.49561e-04,9.99999e-01,1.49561e-04,9.99999e-01
6.081478544e-01,1.77982e-04,9.99999e-01,1.77982e-04,9.99999e-01
6.111885937e-01,2.11077e-04,9.99999e-01,2.11077e-04,9.99999e-01
6.142445367e-01,2.49483e-04,9.99999e-01,2.49483e-04,9.99999e-01
6.173157594e-01,2.93906e-04,9.99999e-01,2.93906e-04,9.99999e-01
6.204023382e-01,3.45120e-04,9.99999e-01,3.45120e-04,9.99999e-01
6.235043498e-01,4.03975e-04,9.99999e-01,4.03975e-04,9.99999e-01
6.266218716e-01,4.71397e-04,9.99999e-01,4.71397e-04,9.99999e-01
6.297549810e-01,5.48398e-04,9.99999e-01,5.48398e-04,9.99999e-01
6.329037559e-01,6.36073e-04,9.99999e-01,6.36073e-04,9.99999e-01
6.360682746e-01,7.35606e-04,9.99999e-01,7.35606e-04,9.99999e-01
6.392486160e-01,8.48275e-04,9.99999e-01,8.48275e-04,9.99999e-01
6.424448591e-01,9.75452e-04,9.99999e-01,9.75452e-04,9.99999e-01
6.456570834e-01,1.11860e-03,9.99999e-01,1.11860e-03,9.99999e-01
6.488853688e-01,1.27930e-03,9.99999e-01,1.27930e-03,9.99999e-01
6.521297956e-01,1.45921e-03,9.99999e-01,1.45921e-03,9.99999e-01
6.553904446e-01,1.66009e-03,9.99999e-01,1.66009e-03,9.99999e-01
6.586673968e-01,1.88383e-03,9.99999e-01,1.88383e-03,9.99999e-01
6.619607338e-01,2.13239e-03,9.99999e-01,2.13239e-03,9.99999e-01
6.652705375e-01,2.40784e-03,9.99999e-01,2.40784e-03,9.99999e-01
6.685968902e-01,2.71236e-03,9.99999e-01,2.71236e-03,9.99999e-01
6.719398746e-01,3.04821e-03,9.99999e-01,3.04821e-03,9.99999e-01
6.752995740e-01,3.41776e-03,9.99999e-01,3.41776e-03,9.99999e-01
6.786760719e-01,3.82346e-03,9.99999e-01,3.82346e-03,9.99999e-01
6.820694522e-01,4.26785e-03,9.99999e-01,4.26785e-03,9.99999e-01
6.854797995e-01,4.75355e-03,9.99999e-01,4.75355e-03,9.99999e-01
6.889071985e-01,5.28327e-03,9.99999e-01,5.28327e-03,9.99999e-01
6.923517345e-01,5.85977e-03,9.99999e-01,5.85977e-03,9.99999e-01
6.958134932e-01,6.48591e-03,9.99999e-01,6.48591e-03,9.99999e-01
6.992925606e-01,7.16456e-03,9.99999e-01,7.16456e-03,9.99999e-01
7.027890234e-01,7.89869e-03,9.99999e-01,7.89869e-03,9.99999e-01
7.063029686e-01,8.69128e-03,9.99999e-01,8.69128e-03,9.99999e-01
7.098344834e-01,9.54535e-03,9.99999e-01,9.54535e-03,9.99999e-01
7.133836558e-01,1.04640e-02,9.99999e-01,1.04640e-02,9.99999e-01
7.169505741e-01,1.14502e-02,9.99999e-01,1.14502e-02,9.99999e-01
7.205353270e-01,1.25071e-02,9.99999e-01,1.25071e-02,9.99999e-01
7.241380036e-01,1.36377e-02,9.99999e-01,1.36377e-02,9.99999e-01
7.277586936e-01,1.48451e-02,9.99999e-01,1.48451e-02,9.99999e-01
7.313974871e-01,1.61324e-02,9.99999e-01,1.61324e-02,9.99999e-01
7.350544745e-01,1.75026e-02,9.99999e-01,1.75026e-02,9.99999e-01
7.387297469e-01,1.89586e-02,9.99999e-01,1.89586e-02,9.99999e-01
7.424233956e-01,2.05033e-02,9.99999e-01,2.05033e-02,9.99999e-01
7.461355126e-01,2.21396e-02,9.99999e-01,2.21396e-02,9.99999e-01
7.498661902e-01,2.38702e-02,9.99999e-01,2.38702e-02,9.99999e-01
7.536155211e-01,2.56979e-02,9.99999e-01,2.56979e-02,9.99999e-01
7.573835987e-01,2.76252e-02,9.99999e-01,2.76252e-02,9.99999e-01
7.611705167e-01,2.96547e-02,9.99999e-01,2.96547e-02,9.99999e-01
7.649763693e-01,3.17888e-02,9.99999e-01,3.17888e-02,9.99999e-01
7.688012511e-01,3.40296e-02,9.99999e-01,3.40296e-02,9.99999e-01
7.726452574e-01,3.63795e-02,9.99999e-01,3.63795e-02,9.99999e-01
7.765084837e-01,3.84850e-02,9.90849e-01,3.88404e-02,9.99999e-01
7.803910261e-01,2.37281e-02,5.72945e-01,4.14141e-02,9.99999e-01
7.842929812e-01,2.72781e-02,6.18514e-01,4.41025e-02,9.99999e-01
7.882144461e-01,2.78690e-02,5.94130e-01,4.69071e-02,9.99999e-01
7.921555184e-01,3.47579e-02,6.97538e-01,4.98293e-02,9.99999e-01
7.961162960e-01,4.27644e-02,8.08852e-01,5.28704e-02,9.99999e-01
8.000968774e-01,5.02035e-02,8.95985e-01,5.60315e-02,9.99999e-01
8.040973618e-01,5.64015e-02,9.50903e-01,5.93136e-02,9.99999e-01
8.081178486e-01,6.14841e-02,9.80337e-01,6.27173e-02,9.99999e-01
8.121584379e-01,6.58945e-02,9.94734e-01,6.62433e-02,9.99999e-01
8.162192301e-01,6.98671e-02,9.99643e-01,6.98920e-02,9.99999e-01
8.203003262e-01,7.36636e-02,9.99999e-01,7.36636e-02,9.99999e-01
8.244018279e-01,7.75581e-02,9.99999e-01,7.75581e-02,9.99999e-01
8.285238370e-01,8.15755e-02,9.99999e-01,8.15755e-02,9.99999e-01
8.326664562e-01,8.57155e-02,9.99999e-01,8.57155e-02,9.99999e-01
8.368297885e-01,8.99775e-02,9.99999e-01,8.99775e-02,9.99999e-01
8.410139374e-01,9.43610e-02,9.99999e-01,9.43610e-02,9.99999e-01
8.452190071e-01,9.88650e-02,9.99999e-01,9.88650e-02,9.99999e-01
8.494451021e-01,1.03489e-01,9.99999e-01,1.03489e-01,9.99999e-01
8.536923276e-01,1.08231e-01,9.99999e-01,1.08231e-01,9.99999e-01
8.579607893e-01,1.13090e-01,9.99999e-01,1.13090e-01,9.99999e-01
8.622505932e-01,1.17581e-01,9.95896e-01,1.18065e-01,9.99999e-01
8.665618462e-01,3.93062e-02,3.19161e-01,1.23155e-01,9.99999e-01
8.708946554e-01,2.74297e-02,2.13700e-01,1.28356e-01,9.99999e-01
8.752491287e-01,4.72503e-02,3.53490e-01,1.33668e-01,9.99999e-01
8.796253743e-01,8.27010e-02,5.94593e-01,1.39088e-01,9.99999e-01
8.840235012e-01,1.14744e-01,7.93447e-01,1.44615e-01,9.99999e-01
8.884436187e-01,1.37056e-01,9.12214e-01,1.50245e-01,9.99999e-01
8.928858368e-01,1.51704e-01,9.72605e-01,1.55977e-01,9.99999e-01
8.973502660e-01,1.60942e-01,9.94647e-01,1.61808e-01,9.99999e-01
9.018370173e-01,1.67070e-01,9.96036e-01,1.67735e-01,9.99999e-01
9.063462024e-01,1.56078e-01,8.98261e-01,1.73756e-01,9.99999e-01
9.108779334e-01,1.71371e-01,9.52760e-01,1.79867e-01,9.99999e-01
9.154323231e-01,1.75048e-01,9.40777e-01,1.86067e-01,9.99999e-01
9.200094847e-01,1.12622e-01,5.85501e-01,1.92351e-01,9.99999e-01
9.246095321e-01,1.37041e-01,6.89626e-01,1.98717e-01,9.99999e-01
9.292325798e-01,1.37898e-01,6.72140e-01,2.05162e-01,9.99999e-01
9.338787427e-01,1.51285e-01,7.14677e-01,2.11683e-01,9.99999e-01
9.385481364e-01,1.81236e-01,8.30307e-01,2.18275e-01,9.99999e-01
9.432408771e-01,2.00925e-01,8.93248e-01,2.24937e-01,9.99999e-01
9.479570815e-01,2.18041e-01,9.41193e-01,2.31664e-01,9.99999e-01
9.526968669e-01,2.32302e-01,9.74201e-01,2.38454e-01,9.99999e-01
9.574603512e-01,2.43072e-01,9.90905e-01,2.45303e-01,9.99999e-01
9.622476530e-01,2.51464e-01,9.97053e-01,2.52207e-01,9.99999e-01
9.670588912e-01,2.59046e-01,9.99543e-01,2.59164e-01,9.99999e-01
9.718941857e-01,2.66169e-01,9.99998e-01,2.66169e-01,9.99999e-01
9.767536566e-01,2.73220e-01,9.99999e-01,2.73220e-01,9.99999e-01
9.816374249e-01,2.80312e-01,9.99999e-01,2.80312e-01,9.99999e-01
9.865456120e-01,2.87444e-01,9.99999e-01,2.87444e-01,9.99999e-01
9.914783401e-01,2.94610e-01,9.99999e-01,2.94610e-01,9.99999e-01
9.964357318e-01,3.01808e-01,9.99999e-01,3.01808e-01,9.99999e-01
1.001417910e+00,3.09035e-01,9.99999e-01,3.09035e-01,9.99999e-01
1.006425000e+00,3.16287e-01,9.99999e-01,3.16287e-01,9.99999e-01
1.011457125e+00,3.23561e-01,9.99999e-01,3.23561e-01,9.99999e-01
1.016514411e+00,3.30852e-01,9.99996e-01,3.30854e-01,9.99999e-01
1.021596983e+00,3.36673e-01,9.95598e-01,3.38161e-01,9.99999e-01
1.026704968e+00,3.33708e-01,9.65918e-01,3.45482e-01,9.99999e-01
1.031838492e+00,1.02095e-01,2.89376e-01,3.52811e-01,9.99999e-01
1.036997685e+00,1.18544e-05,3.29155e-05,3.60147e-01,9.99999e-01
1.042182673e+00,1.06080e-03,2.88664e-03,3.67485e-01,9.99999e-01
1.047393587e+00,5.21082e-05,1.39020e-04,3.74824e-01,9.99999e-01
1.052630555e+00,5.49943e-09,1.43904e-08,3.82160e-01,9.99999e-01
1.057893707e+00,9.95614e-08,2.55619e-07,3.89491e-01,9.99999e-01
1.063183176e+00,8.77931e-06,2.21245e-05,3.96813e-01,9.99999e-01
1.068499092e+00,5.51549e-04,1.36480e-03,4.04124e-01,9.99999e-01
1.073841587e+00,3.04844e-03,7.40951e-03,4.11422e-01,9.99999e-01
1.079210795e+00,2.70528e-02,6.46110e-02,4.18703e-01,9.99999e-01
1.084606849e+00,8.53506e-02,2.00370e-01,4.25965e-01,9.99999e-01
1.090029883e+00,1.94934e-01,4.49978e-01,4.33207e-01,9.99999e-01
1.095480033e+00,2.96212e-01,6.72560e-01,4.40424e-01,9.99999e-01
1.100957433e+00,3.78055e-01,8.44596e-01,4.47616e-01,9.99999e-01
1.106462220e+00,4.24189e-01,9.32735e-01,4.54780e-01,9.99999e-01
1.111994531e+00,4.52658e-01,9.79962e-01,4.61913e-01,9.99999e-01
1.117554504e+00,4.67458e-01,9.96680e-01,4.69014e-01,9.99999e-01
1.123142276e+00,4.76072e-01,9.99980e-01,4.76081e-01,9.99999e-01
1.128757988e+00,4.83112e-01,9.99999e-01,4.83112e-01,9.99999e-01
1.134401778e+00,4.90104e-01,9.99999e-01,4.90104e-01,9.99999e-01
1.140073787e+00,4.97057e-01,9.99999e-01,4.97057e-01,9.99999e-01
1.145774156e+00,5.03968e-01,9.99999e-01,5.03968e-01,9.99999e-01
1.151503026e+00,5.10835e-01,9.99999e-01,5.10835e-01,9.99999e-01
1.157260541e+00,5.17658e-01,9.99999e-01,5.17658e-01,9.99999e-01
1.163046844e+00,5.24435e-01,9.99999e-01,5.24435e-01,9.99999e-01
1.168862078e+00,5.31164e-01,9.99999e-01,5.31164e-01,9.99999e-01
1.174706389e+00,5.37843e-01,9.99999e-01,5.37843e-01,9.99999e-01
1.180579921e+00,5.44472e-01,9.99999e-01,5.44472e-01,9.99999e-01
1.186482820e+00,5.47870e-01,9.94228e-01,5.51050e-01,9.99999e-01
1.192415234e+00,4.81826e-01,8.64145e-01,5.57575e-01,9.99999e-01
1.198377311e+00,3.57026e-02,6.32973e-02,5.64046e-01,9.99999e-01
1.204369197e+00,1.87024e-226,3.27847e-226,5.70462e-01,9.99999e-01
1.210391043e+00,6.70756e-172,1.16285e-171,5.76822e-01,9.99999e-01
1.216442998e+00,1.01428e-149,1.73939e-149,5.83125e-01,9.99999e-01
1.222525213e+00,1.88646e-115,3.20081e-115,5.89370e-01,9.99999e-01
1.228637839e+00,3.12034e-87,5.23936e-87,5.95558e-01,9.99999e-01
1.234781029e+00,2.59879e-57,4.31917e-57,6.01685e-01,9.99999e-01
1.240954934e+00,2.00792e-34,3.30384e-34,6.07754e-01,9.99999e-01
1.247159708e+00,6.43273e-16,1.04808e-15,6.13761e-01,9.99999e-01
1.253395507e+00,1.04836e-11,1.69169e-11,6.19708e-01,9.99999e-01
1.259662485e+00,1.81808e-06,2.90617e-06,6.25593e-01,9.99999e-01
1.265960797e+00,9.80250e-04,1.55246e-03,6.31416e-01,9.99999e-01
1.272290601e+00,1.11614e-02,1.75169e-02,6.37177e-01,9.99999e-01
1.278652054e+00,5.02988e-04,7.82404e-04,6.42874e-01,9.99999e-01
1.285045314e+00,8.18196e-15,1.26166e-14,6.48509e-01,9.99999e-01
1.291470541e+00,9.56155e-16,1.46183e-15,6.54080e-01,9.99999e-01
1.297927893e+00,3.12364e-05,4.73574e-05,6.59588e-01,9.99999e-01
1.304417533e+00,1.03827e-04,1.56123e-04,6.65032e-01,9.99999e-01
1.310939621e+00,5.48029e-08,8.17450e-08,6.70412e-01,9.99999e-01
1.317494319e+00,1.38760e-54,2.05349e-54,6.75728e-01,9.99999e-01
1.324081790e+00,2.48142e-23,3.64389e-23,6.80980e-01,9.99999e-01
1.330702199e+00,2.92297e-23,4.25983e-23,6.86168e-01,9.99999e-01
1.337355710e+00,7.82036e-21,1.13127e-20,6.91292e-01,9.99999e-01
1.344042489e+00,2.21533e-26,3.18133e-26,6.96352e-01,9.99999e-01
1.350762701e+00,1.04894e-16,1.49561e-16,7.01347e-01,9.99999e-01
1.357516515e+00,1.27933e-11,1.81136e-11,7.06279e-01,9.99999e-01
1.364304097e+00,2.27312e-06,3.19642e-06,7.11147e-01,9.99999e-01
1.371125618e+00,2.27865e-05,3.18268e-05,7.15951e-01,9.99999e-01
1.377981246e+00,1.78053e-03,2.47058e-03,7.20692e-01,9.99999e-01
1.384871152e+00,2.15239e-03,2.96730e-03,7.25370e-01,9.99999e-01
1.391795508e+00,1.92701e-02,2.63979e-02,7.29985e-01,9.99999e-01
1.398754485e+00,4.05704e-02,5.52325e-02,7.34537e-01,9.99999e-01
1.405748258e+00,1.19408e-01,1.61574e-01,7.39027e-01,9.99999e-01
1.412776999e+00,2.14150e-01,2.88047e-01,7.43455e-01,9.99999e-01
1.419840884e+00,1.96722e-02,2.63059e-02,7.47821e-01,9.99999e-01
1.426940089e+00,0.00000e+00,0.00000e+00,7.52126e-01,9.99999e-01
1.434074789e+00,0.00000e+00,0.00000e+00,7.56370e-01,9.99999e-01
1.441245163e+00,0.00000e+00,0.00000e+00,7.60553e-01,9.99999e-01
1.448451389e+00,0.00000e+00,0.00000e+00,7.64676e-01,9.99999e-01
1.455693646e+00,0.00000e+00,0.00000e+00,7.68739e-01,9.99999e-01
1.462972114e+00,0.00000e+00,0.00000e+00,7.72743e-01,9.99999e-01
1.470286975e+00,1.37182e-273,1.76624e-273,7.76688e-01,9.99999e-01
1.477638409e+00,7.87404e-130,1.00875e-129,7.80575e-01,9.99999e-01
1.485026601e+00,5.75931e-101,7.34227e-101,7.84404e-01,9.99999e-01
1.492451734e+00,1.46322e-51,1.85647e-51,7.88175e-01,9.99999e-01
1.499913993e+00,4.27631e-35,5.40012e-35,7.91890e-01,9.99999e-01
1.507413563e+00,1.63134e-35,2.05059e-35,7.95548e-01,9.99999e-01
1.514950631e+00,4.67560e-75,5.85071e-75,7.99150e-01,9.99999e-01
1.522525384e+00,1.57546e-209,1.96270e-209,8.02697e-01,9.99999e-01
1.530138011e+00,8.69650e-232,1.07872e-231,8.06189e-01,9.99999e-01
1.537788701e+00,5.45327e-100,6.73552e-100,8.09627e-01,9.99999e-01
1.545477645e+00,8.00344e-36,9.84419e-36,8.13012e-01,9.99999e-01
1.553205033e+00,3.27342e-34,4.00985e-34,8.16343e-01,9.99999e-01
1.560971058e+00,7.27133e-97,8.87156e-97,8.19621e-01,9.99999e-01
1.568775913e+00,0.00000e+00,0.00000e+00,8.22848e-01,9.99999e-01
1.576619793e+00,0.00000e+00,0.00000e+00,8.26023e-01,9.99999e-01
1.584502892e+00,0.00000e+00,0.00000e+00,8.29148e-01,9.99999e-01
1.592425406e+00,0.00000e+00,0.00000e+00,8.32222e-01,9.99999e-01
1.600387533e+00,0.00000e+00,0.00000e+00,8.35246e-01,9.99999e-01
1.608389471e+00,0.00000e+00,0.00000e+00,8.38222e-01,9.99999e-01
1.616431418e+00,0.00000e+00,0.00000e+00,8.41149e-01,9.99999e-01
1.624513575e+00,0.00000e+00,0.00000e+00,8.44028e-01,9.99999e-01
1.632636143e+00,0.00000e+00,0.00000e+00,8.46859e-01,9.99999e-01
1.640799324e+00,6.97778e-271,8.21259e-271,8.49644e-01,9.99999e-01
1.649003321e+00,2.35185e-211,2.75915e-211,8.52383e-01,9.99999e-01
1.657248337e+00,7.25333e-209,8.48265e-209,8.55077e-01,9.99999e-01
1.665534579e+00,2.36681e-147,2.75940e-147,8.57725e-01,9.99999e-01
1.673862252e+00,5.62855e-117,6.54231e-117,8.60329e-01,9.99999e-01
1.682231563e+00,3.43386e-62,3.97949e-62,8.62889e-01,9.99999e-01
1.690642721e+00,1.22321e-39,1.41345e-39,8.65407e-01,9.99999e-01
1.699095934e+00,2.85504e-19,3.28966e-19,8.67881e-01,9.99999e-01
1.707591414e+00,8.05672e-12,9.25725e-12,8.70314e-01,9.99999e-01
1.716129371e+00,7.55902e-07,8.66159e-07,8.72705e-01,9.99999e-01
1.724710018e+00,1.03909e-04,1.18745e-04,8.75055e-01,9.99999e-01
1.733333568e+00,4.95011e-03,5.64201e-03,8.77365e-01,9.99999e-01
1.742000236e+00,2.72389e-03,3.09661e-03,8.79635e-01,9.99999e-01
1.750710237e+00,2.14546e-17,2.43286e-17,8.81866e-01,9.99999e-01
1.759463788e+00,4.16356e-132,4.70959e-132,8.84059e-01,9.99999e-01
1.768261107e+00,5.84769e-130,6.59850e-130,8.86213e-01,9.99999e-01
1.777102413e+00,6.06391e-130,6.82618e-130,8.88330e-01,9.99999e-01
1.785987925e+00,8.71958e-116,9.79275e-116,8.90411e-01,9.99999e-01
1.794917864e+00,4.24495e-118,4.75649e-118,8.92454e-01,9.99999e-01
1.803892454e+00,8.65659e-107,9.67797e-107,8.94462e-01,9.99999e-01
1.812911916e+00,4.76769e-128,5.31849e-128,8.96435e-01,9.99999e-01
1.821976476e+00,1.23791e-92,1.37795e-92,8.98373e-01,9.99999e-01
1.831086358e+00,3.11292e-85,3.45774e-85,9.00277e-01,9.99999e-01
1.840241790e+00,9.99815e-51,1.10826e-50,9.02147e-01,9.99999e-01
1.849442999e+00,2.33455e-49,2.58251e-49,9.03984e-01,9.99999e-01
1.858690214e+00,2.33287e-47,2.57551e-47,9.05788e-01,9.99999e-01
1.867983665e+00,2.19765e-75,2.42150e-75,9.07560e-01,9.99999e-01
1.877323583e+00,6.65767e-248,7.32174e-248,9.09300e-01,9.99999e-01
