#,Wave/freq,Total,CO2,Rayleigh,CIA
4.000000000e-01,5.69701e-07,9.99999e-01,5.69701e-07,9.99999e-01
4.020000000e-01,7.57038e-07,9.99999e-01,7.57038e-07,9.99999e-01
4.040100000e-01,1.00005e-06,9.99999e-01,1.00005e-06,9.99999e-01
4.060300500e-01,1.31382e-06,9.99999e-01,1.31382e-06,9.99999e-01
4.080602003e-01,1.71675e-06,9.99999e-01,1.71675e-06,9.99999e-01
4.101005013e-01,2.23145e-06,9.99999e-01,2.23145e-06,9.99999e-01
4.121510038e-01,2.88547e-06,9.99999e-01,2.88547e-06,9.99999e-01
4.142117588e-01,3.71228e-06,9.99999e-01,3.71228e-06,9.99999e-01
4.162828176e-01,4.75230e-06,9.99999e-01,4.75230e-06,9.99999e-01
4.183642317e-01,6.05408e-06,9.99999e-01,6.05408e-06,9.99999e-01
4.204560528e-01,7.67566e-06,9.99999e-01,7.67566e-06,9.99999e-01
4.225583331e-01,9.68606e-06,9.99999e-01,9.68606e-06,9.99999e-01
4.246711247e-01,1.21670e-05,9.99999e-01,1.21670e-05,9.99999e-01
4.267944804e-01,1.52147e-05,9.99999e-01,1.52147e-05,9.99999e-01
4.289284528e-01,1.89420e-05,9.99999e-01,1.89420e-05,9.99999e-01
4.310730950e-01,2.34805e-05,9.99999e-01,2.34805e-05,9.99999e-01
4.332284605e-01,2.89833e-05,9.99999e-01,2.89833e-05,9.99999e-01
4.353946028e-01,3.56272e-05,9.99999e-01,3.56272e-05,9.99999e-01
4.375715758e-01,4.36159e-05,9.99999e-01,4.36159e-05,9.99999e-01
4.397594337e-01,5.31830e-05,9.99999e-01,5.31830e-05,9.99999e-01
4.419582309e-01,6.45951e-05,9.99999e-01,6.45951e-05,9.99999e-01
4.441680220e-01,7.81553e-05,9.99999e-01,7.81553e-05,9.99999e-01
4.463888621e-01,9.42069e-05,9.99999e-01,9.42069e-05,9.99999e-01
4.486208064e-01,1.13137e-04,9.99999e-01,1.13137e-04,9.99999e-01
4.508639105e-01,1.35380e-04,9.99999e-01,1.35380e-04,9.99999e-01
4.531182300e-01,1.61424e-04,9.99999e-01,1.61424e-04,9.99999e-01
4.553838212e-01,1.91809e-04,9.99999e-01,1.91809e-04,9.99999e-01
4.576607403e-01,2.27139e-04,9.99999e-01,2.27139e-04,9.99999e-01
4.599490440e-01,2.68080e-04,9.99999e-01,2.68080e-04,9.99999e-01
4.622487892e-01,3.15366e-04,9.99999e-01,3.15366e-04,9.99999e-01
4.645600332e-01,3.69804e-04,9.99999e-01,3.69804e-04,9.99999e-01
4.668828333e-01,4.32277e-04,9.99999e-01,4.32277e-04,9.99999e-01
4.692172475e-01,5.03749e-04,9.99999e-01,5.03749e-04,9.99999e-01
4.715633337e-01,5.85267e-04,9.99999e-01,5.85267e-04,9.99999e-01
4.739211504e-01,6.77964e-04,9.99999e-01,6.77964e-04,9.99999e-01
4.762907561e-01,7.83066e-04,9.99999e-01,7.83066e-04,9.99999e-01
4.786722099e-01,9.01890e-04,9.99999e-01,9.01890e-04,9.99999e-01
4.810655710e-01,1.03585e-03,9.99999e-01,1.03585e-03,9.99999e-01
4.834708988e-01,1.18646e-03,9.99999e-01,1.18646e-03,9.99999e-01
4.858882533e-01,1.35532e-03,9.99999e-01,1.35532e-03,9.99999e-01
4.883176946e-01,1.54416e-03,9.99999e-01,1.54416e-03,9.99999e-01
4.907592831e-01,1.75478e-03,9.99999e-01,1.75478e-03,9.99999e-01
4.932130795e-01,1.98910e-03,9.99999e-01,1.98910e-03,9.99999e-01
4.956791449e-01,2.24913e-03,9.99999e-01,2.24913e-03,9.99999e-01
4.981575406e-01,2.53699e-03,9.99999e-01,2.53699e-03,9.99999e-01
5.006483283e-01,2.85489e-03,9.99999e-01,2.85489e-03,9.99999e-01
5.031515699e-01,3.20515e-03,9.99999e-01,3.20515e-03,9.99999e-01
5.056673278e-01,3.59016e-03,9.99999e-01,3.59016e-03,9.99999e-01
5.081956644e-01,4.01242e-03,9.99999e-01,4.01242e-03,9.99999e-01
5.107366428e-01,4.47450e-03,9.99999e-01,4.47450e-03,9.99999e-01
5.132903260e-01,4.97907e-03,9.99999e-01,4.97907e-03,9.99999e-01
5.158567776e-01,5.52886e-03,9.99999e-01,5.52886e-03,9.99999e-01
5.184360615e-01,6.12666e-03,9.99999e-01,6.12666e-03,9.99999e-01
5.210282418e-01,6.77535e-03,9.99999e-01,6.77535e-03,9.99999e-01
5.236333830e-01,7.47784e-03,9.99999e-01,7.47784e-03,9.99999e-01
5.262515499e-01,8.23710e-03,9.99999e-01,8.23710e-03,9.99999e-01
5.288828077e-01,9.05614e-03,9.99999e-01,9.05614e-03,9.99999e-01
5.315272217e-01,9.93799e-03,9.99999e-01,9.93799e-03,9.99999e-01
5.341848578e-01,1.08857e-02,9.99999e-01,1.08857e-02,9.99999e-01
5.368557821e-01,1.19024e-02,9.99999e-01,1.19024e-02,9.99999e-01
5.395400610e-01,1.29911e-02,9.99999e-01,1.29911e-02,9.99999e-01
5.422377613e-01,1.41548e-02,9.99999e-01,1.41548e-02,9.99999e-01
5.449489501e-01,1.53967e-02,9.99999e-01,1.53967e-02,9.99999e-01
5.476736949e-01,1.67198e-02,9.99999e-01,1.67198e-02,9.99999e-01
5.504120634e-01,1.81271e-02,9.99999e-01,1.81271e-02,9.99999e-01
5.531641237e-01,1.96214e-02,9.99999e-01,1.96214e-02,9.99999e-01
5.559299443e-01,2.12057e-02,9.99999e-01,2.12057e-02,9.99999e-01
5.587095940e-01,2.28828e-02,9.99999e-01,2.28828e-02,9.99999e-01
5.615031420e-01,2.46554e-02,9.99999e-01,2.46554e-02,9.99999e-01
5.643106577e-01,2.65263e-02,9.99999e-01,2.65263e-02,9.99999e-01
5.671322110e-01,2.84979e-02,9.99999e-01,2.84979e-02,9.99999e-01
5.699678720e-01,3.05727e-02,9.99999e-01,3.05727e-02,9.99999e-01
5.728177114e-01,3.27531e-02,9.99999e-01,3.27531e-02,9.99999e-01
5.756818000e-01,3.50413e-02,9.99999e-01,3.50413e-02,9.99999e-01
5.785602090e-01,3.74393e-02,9.99999e-01,3.74393e-02,9.99999e-01
5.814530100e-01,3.99492e-02,9.99999e-01,3.99492e-02,9.99999e-01
5.843602750e-01,4.25728e-02,9.99999e-01,4.25728e-02,9.99999e-01
5.872820764e-01,4.53117e-02,9.99999e-01,4.53117e-02,9.99999e-01
5.902184868e-01,4.81674e-02,9.99999e-01,4.81674e-02,9.99999e-01
5.931695792e-01,5.11413e-02,9.99999e-01,5.11413e-02,9.99999e-01
5.961354271e-01,5.42347e-02,9.99999e-01,5.42347e-02,9.99999e-01
5.991161043e-01,5.74484e-02,9.99999e-01,5.74484e-02,9.99999e-01
6.021116848e-01,6.07835e-02,9.99999e-01,6.07835e-02,9.99999e-01
6.051222432e-01,6.42405e-02,9.99999e-01,6.42405e-02,9.99999e-01
6.081478544e-01,6.78200e-02,9.99999e-01,6.78200e-02,9.99999e-01
6.111885937e-01,7.15222e-02,9.99999e-01,7.15222e-02,9.99999e-01
6.142445367e-01,7.53475e-02,9.99999e-01,7.53475e-02,9.99999e-01
6.173157594e-01,7.92957e-02,9.99999e-01,7.92957e-02,9.99999e-01
6.204023382e-01,8.33666e-02,9.99999e-01,8.33666e-02,9.99999e-01
6.235043498e-01,8.75599e-02,9.99999e-01,8.75599e-02,9.99999e-01
6.266218716e-01,9.18750e-02,9.99999e-01,9.18750e-02,9.99999e-01
6.297549810e-01,9.63111e-02,9.99999e-01,9.63111e-02,9.99999e-01
6.329037559e-01,1.00868e-01,9.99999e-01,1.00868e-01,9.99999e-01
6.360682746e-01,1.05543e-01,9.99999e-01,1.05543e-01,9.99999e-01
6.392486160e-01,1.10337e-01,9.99999e-01,1.10337e-01,9.99999e-01
6.424448591e-01,1.15247e-01,9.99999e-01,1.15247e-01,9.99999e-01
6.456570834e-01,1.20272e-01,9.99999e-01,1.20272e-01,9.99999e-01
6.488853688e-01,1.25410e-01,9.99999e-01,1.25410e-01,9.99999e-01
6.521297956e-01,1.30660e-01,9.99999e-01,1.30660e-01,9.99999e-01
6.553904446e-01,1.36019e-01,9.99999e-01,1.36019e-01,9.99999e-01
6.586673968e-01,1.41486e-01,9.99999e-01,1.41486e-01,9.99999e-01
6.619607338e-01,1.47058e-01,9.99999e-01,1.47058e-01,9.99999e-01
6.652705375e-01,1.52733e-01,9.99999e-01,1.52733e-01,9.99999e-01
6.685968902e-01,1.58509e-01,9.99999e-01,1.58509e-01,9.99999e-01
6.719398746e-01,1.64382e-01,9.99999e-01,1.64382e-01,9.99999e-01
6.752995740e-01,1.70350e-01,9.99999e-01,1.70350e-01,9.99999e-01
6.786760719e-01,1.76411e-01,9.99999e-01,1.76411e-01,9.99999e-01
6.820694522e-01,1.82561e-01,9.99999e-01,1.82561e-01,9.99999e-01
6.854797995e-01,1.88798e-01,9.99999e-01,1.88798e-01,9.99999e-01
6.889071985e-01,1.95119e-01,9.99999e-01,1.95119e-01,9.99999e-01
6.923517345e-01,2.01520e-01,9.99999e-01,2.01520e-01,9.99999e-01
6.958134932e-01,2.07998e-01,9.99999e-01,2.07998e-01,9.99999e-01
6.992925606e-01,2.14550e-01,9.99999e-01,2.14550e-01,9.99999e-01
7.027890234e-01,2.21173e-01,9.99999e-01,2.21173e-01,9.99999e-01
7.063029686e-01,2.27864e-01,9.99999e-01,2.27864e-01,9.99999e-01
7.098344834e-01,2.34619e-01,9.99999e-01,2.34619e-01,9.99999e-01
7.133836558e-01,2.41435e-01,9.99999e-01,2.41435e-01,9.99999e-01
7.169505741e-01,2.48308e-01,9.99999e-01,2.48308e-01,9.99999e-01
7.205353270e-01,2.55236e-01,9.99999e-01,2.55236e-01,9.99999e-01
7.241380036e-01,2.62214e-01,9.99999e-01,2.62214e-01,9.99999e-01
7.277586936e-01,2.69240e-01,9.99999e-01,2.69240e-01,9.99999e-01
7.313974871e-01,2.76309e-01,9.99999e-01,2.76309e-01,9.99999e-01
7.350544745e-01,2.83419e-01,9.99999e-01,2.83419e-01,9.99999e-01
7.387297469e-01,2.90566e-01,9.99999e-01,2.90566e-01,9.99999e-01
7.424233956e-01,2.97747e-01,9.99999e-01,2.97747e-01,9.99999e-01
7.461355126e-01,3.04958e-01,9.99999e-01,3.04958e-01,9.99999e-01
7.498661902e-01,3.12196e-01,9.99999e-01,3.12196e-01,9.99999e-01
7.536155211e-01,3.19458e-01,9.99999e-01,3.19458e-01,9.99999e-01
7.573835987e-01,3.26740e-01,9.99999e-01,3.26740e-01,9.99999e-01
7.611705167e-01,3.34040e-01,9.99999e-01,3.34040e-01,9.99999e-01
7.649763693e-01,3.41354e-01,9.99999e-01,3.41354e-01,9.99999e-01
7.688012511e-01,3.48678e-01,9.99999e-01,3.48678e-01,9.99999e-01
7.726452574e-01,3.56011e-01,9.99999e-01,3.56011e-01,9.99999e-01
7.765084837e-01,3.63348e-01,9.99999e-01,3.63348e-01,9.99999e-01
7.803910261e-01,3.54640e-01,9.56710e-01,3.70687e-01,9.99999e-01
7.842929812e-01,3.06949e-01,8.11980e-01,3.78025e-01,9.99999e-01
7.882144461e-01,3.08910e-01,8.01614e-01,3.85359e-01,9.99999e-01
7.921555184e-01,3.44710e-01,8.77824e-01,3.92686e-01,9.99999e-01
7.961162960e-01,3.66301e-01,9.15742e-01,4.00004e-01,9.99999e-01
8.000968774e-01,3.88355e-01,9.53463e-01,4.07310e-01,9.99999e-01
8.040973618e-01,4.04451e-01,9.75518e-01,4.14600e-01,9.99999e-01
8.081178486e-01,4.17120e-01,9.88730e-01,4.21874e-01,9.99999e-01
8.121584379e-01,4.27617e-01,9.96479e-01,4.29127e-01,9.99999e-01
8.162192301e-01,4.36019e-01,9.99221e-01,4.36358e-01,9.99999e-01
8.203003262e-01,4.43559e-01,9.99986e-01,4.43565e-01,9.99999e-01
8.244018279e-01,4.50745e-01,9.99999e-01,4.50745e-01,9.99999e-01
8.285238370e-01,4.57896e-01,9.99999e-01,4.57896e-01,9.99999e-01
8.326664562e-01,4.65015e-01,9.99999e-01,4.65015e-01,9.99999e-01
8.368297885e-01,4.72102e-01,9.99999e-01,4.72102e-01,9.99999e-01
8.410139374e-01,4.79153e-01,9.99999e-01,4.79153e-01,9.99999e-01
8.452190071e-01,4.86167e-01,9.99999e-01,4.86167e-01,9.99999e-01
8.494451021e-01,4.93142e-01,9.99999e-01,4.93142e-01,9.99999e-01
8.536923276e-01,5.00077e-01,9.99999e-01,5.00077e-01,9.99999e-01
8.579607893e-01,5.06969e-01,9.99999e-01,5.06969e-01,9.99999e-01
8.622505932e-01,5.13818e-01,9.99999e-01,5.13818e-01,9.99999e-01
8.665618462e-01,4.75364e-01,9.13071e-01,5.20620e-01,9.99999e-01
8.708946554e-01,3.12905e-01,5.93324e-01,5.27376e-01,9.99999e-01
8.752491287e-01,3.49018e-01,6.53489e-01,5.34084e-01,9.99999e-01
8.796253743e-01,4.27270e-01,7.90154e-01,5.40742e-01,9.99999e-01
8.840235012e-01,4.84234e-01,8.84690e-01,5.47348e-01,9.99999e-01
8.884436187e-01,5.27666e-01,9.52632e-01,5.53903e-01,9.99999e-01
8.928858368e-01,5.49521e-01,9.80579e-01,5.60404e-01,9.99999e-01
8.973502660e-01,5.64143e-01,9.95220e-01,5.66852e-01,9.99999e-01
9.018370173e-01,5.72940e-01,9.99471e-01,5.73243e-01,9.99999e-01
9.063462024e-01,5.72024e-01,9.86964e-01,5.79579e-01,9.99999e-01
9.108779334e-01,5.68041e-01,9.69590e-01,5.85857e-01,9.99999e-01
9.154323231e-01,5.87764e-01,9.92714e-01,5.92077e-01,9.99999e-01
9.200094847e-01,5.40683e-01,9.03791e-01,5.98238e-01,9.99999e-01
9.246095321e-01,5.19727e-01,8.59989e-01,6.04340e-01,9.99999e-01
9.292325798e-01,5.43158e-01,8.89865e-01,6.10382e-01,9.99999e-01
9.338787427e-01,5.49916e-01,8.92194e-01,6.16363e-01,9.99999e-01
9.385481364e-01,5.72179e-01,9.19482e-01,6.22283e-01,9.99999e-01
9.432408771e-01,5.96550e-01,9.49706e-01,6.28141e-01,9.99999e-01
9.479570815e-01,6.17418e-01,9.73941e-01,6.33937e-01,9.99999e-01
9.526968669e-01,6.31567e-01,9.87332e-01,6.39670e-01,9.99999e-01
9.574603512e-01,6.41830e-01,9.94560e-01,6.45340e-01,9.99999e-01
9.622476530e-01,6.49840e-01,9.98298e-01,6.50948e-01,9.99999e-01
9.670588912e-01,6.56156e-01,9.99488e-01,6.56491e-01,9.99999e-01
9.718941857e-01,6.61947e-01,9.99962e-01,6.61971e-01,9.99999e-01
9.767536566e-01,6.67387e-01,9.99999e-01,6.67387e-01,9.99999e-01
9.816374249e-01,6.72739e-01,9.99999e-01,6.72739e-01,9.99999e-01
9.865456120e-01,6.78028e-01,9.99999e-01,6.78028e-01,9.99999e-01
9.914783401e-01,6.83252e-01,9.99999e-01,6.83252e-01,9.99999e-01
9.964357318e-01,6.88411e-01,9.99999e-01,6.88411e-01,9.99999e-01
1.001417910e+00,6.93507e-01,9.99999e-01,6.93507e-01,9.99999e-01
1.006425000e+00,6.98539e-01,9.99999e-01,6.98539e-01,9.99999e-01
1.011457125e+00,7.03507e-01,9.99999e-01,7.03507e-01,9.99999e-01
1.016514411e+00,7.08411e-01,9.99999e-01,7.08411e-01,9.99999e-01
1.021596983e+00,7.13205e-01,9.99935e-01,7.13251e-01,9.99999e-01
1.026704968e+00,7.14368e-01,9.94903e-01,7.18027e-01,9.99999e-01
1.031838492e+00,6.85166e-01,9.48009e-01,7.22741e-01,9.99999e-01
1.036997685e+00,8.34740e-02,1.14758e-01,7.27391e-01,9.99999e-01
1.042182673e+00,4.19116e-02,5.72579e-02,7.31979e-01,9.99999e-01
1.047393587e+00,6.10831e-02,8.29365e-02,7.36504e-01,9.99999e-01
1.052630555e+00,5.47417e-04,7.38787e-04,7.40966e-01,9.99999e-01
1.057893707e+00,1.60521e-03,2.15358e-03,7.45367e-01,9.99999e-01
1.063183176e+00,7.85668e-03,1.04797e-02,7.49707e-01,9.99999e-01
1.068499092e+00,2.97627e-02,3.94738e-02,7.53985e-01,9.99999e-01
1.073841587e+00,9.72278e-02,1.28235e-01,7.58202e-01,9.99999e-01
1.079210795e+00,2.07618e-01,2.72337e-01,7.62359e-01,9.99999e-01
1.084606849e+00,3.72427e-01,4.85907e-01,7.66456e-01,9.99999e-01
1.090029883e+00,5.29481e-01,6.87197e-01,7.70493e-01,9.99999e-01
1.095480033e+00,6.43526e-01,8.30923e-01,7.74471e-01,9.99999e-01
1.100957433e+00,7.11888e-01,9.14562e-01,7.78391e-01,9.99999e-01
1.106462220e+00,7.53852e-01,9.63694e-01,7.82252e-01,9.99999e-01
1.111994531e+00,7.75354e-01,9.86384e-01,7.86056e-01,9.99999e-01
1.117554504e+00,7.87153e-01,9.96645e-01,7.89803e-01,9.99999e-01
1.123142276e+00,7.93317e-01,9.99777e-01,7.93492e-01,9.99999e-01
1.128757988e+00,7.97126e-01,9.99999e-01,7.97126e-01,9.99999e-01
1.134401778e+00,8.00704e-01,9.99999e-01,8.00704e-01,9.99999e-01
1.140073787e+00,8.04227e-01,9.99999e-01,8.04227e-01,9.99999e-01
1.145774156e+00,8.07696e-01,9.99999e-01,8.07696e-01,9.99999e-01
1.151503026e+00,8.11110e-01,9.99999e-01,8.11110e-01,9.99999e-01
1.157260541e+00,8.14471e-01,9.99999e-01,8.14471e-01,9.99999e-01
1.163046844e+00,8.17779e-01,9.99999e-01,8.17779e-01,9.99999e-01
1.168862078e+00,8.21035e-01,9.99999e-01,8.21035e-01,9.99999e-01
1.174706389e+00,8.24239e-01,9.99999e-01,8.24239e-01,9.99999e-01
1.180579921e+00,8.27392e-01,9.99999e-01,8.27392e-01,9.99999e-01
1.186482820e+00,8.30489e-01,9.99992e-01,8.30495e-01,9.99999e-01
1.192415234e+00,8.18652e-01,9.82129e-01,8.33547e-01,9.99999e-01
1.198377311e+00,4.62815e-01,5.53242e-01,8.36550e-01,9.99999e-01
1.204369197e+00,1.02538e-14,1.22141e-14,8.39504e-01,9.99999e-01
1.210391043e+00,8.33911e-56,9.89910e-56,8.42410e-01,9.99999e-01
1.216442998e+00,1.85455e-48,2.19404e-48,8.45269e-01,9.99999e-01
1.222525213e+00,9.49254e-48,1.11930e-47,8.48080e-01,9.99999e-01
1.228637839e+00,5.63200e-37,6.61930e-37,8.50845e-01,9.99999e-01
1.234781029e+00,1.46817e-23,1.72004e-23,8.53564e-01,9.99999e-01
1.240954934e+00,7.52687e-16,8.79063e-16,8.56238e-01,9.99999e-01
1.247159708e+00,2.28616e-08,2.66183e-08,8.58867e-01,9.99999e-01
1.253395507e+00,1.56755e-05,1.81966e-05,8.61451e-01,9.99999e-01
1.259662485e+00,1.06565e-03,1.23340e-03,8.63993e-01,9.99999e-01
1.265960797e+00,2.34156e-02,2.70235e-02,8.66491e-01,9.99999e-01
1.272290601e+00,1.61824e-01,1.86230e-01,8.68947e-01,9.99999e-01
1.278652054e+00,1.57999e-01,1.81324e-01,8.71362e-01,9.99999e-01
1.285045314e+00,2.30285e-03,2.63564e-03,8.73735e-01,9.99999e-01
1.291470541e+00,3.60269e-07,4.11234e-07,8.76068e-01,9.99999e-01
1.297927893e+00,9.78920e-04,1.11449e-03,8.78360e-01,9.99999e-01
1.304417533e+00,5.10490e-02,5.79698e-02,8.80613e-01,9.99999e-01
1.310939621e+00,1.24721e-02,1.41274e-02,8.82828e-01,9.99999e-01
1.317494319e+00,1.45048e-19,1.63896e-19,8.85003e-01,9.99999e-01
1.324081790e+00,2.80131e-13,3.15768e-13,8.87142e-01,9.99999e-01
1.330702199e+00,7.28342e-08,8.19058e-08,8.89242e-01,9.99999e-01
1.337355710e+00,1.57269e-07,1.76447e-07,8.91307e-01,9.99999e-01
1.344042489e+00,5.51961e-08,6.17865e-08,8.93335e-01,9.99999e-01
1.350762701e+00,4.10846e-08,4.58878e-08,8.95327e-01,9.99999e-01
1.357516515e+00,2.18976e-05,2.44042e-05,8.97285e-01,9.99999e-01
1.364304097e+00,7.32406e-04,8.14501e-04,8.99208e-01,9.99999e-01
1.371125618e+00,2.26656e-02,2.51533e-02,9.01097e-01,9.99999e-01
1.377981246e+00,4.20340e-02,4.65517e-02,9.02952e-01,9.99999e-01
1.384871152e+00,1.51791e-01,1.67766e-01,9.04775e-01,9.99999e-01
1.391795508e+00,1.73853e-01,1.91771e-01,9.06565e-01,9.99999e-01
1.398754485e+00,3.26599e-01,3.59562e-01,9.08323e-01,9.99999e-01
1.405748258e+00,4.28992e-01,4.71393e-01,9.10050e-01,9.99999e-01
1.412776999e+00,5.66299e-01,6.21114e-01,9.11746e-01,9.99999e-01
1.419840884e+00,5.12330e-01,5.60896e-01,9.13411e-01,9.99999e-01
1.426940089e+00,3.73584e-02,4.08267e-02,9.15047e-01,9.99999e-01
1.434074789e+00,0.00000e+00,0.00000e+00,9.16653e-01,9.99999e-01
1.441245163e+00,0.00000e+00,0.00000e+00,9.18230e-01,9.99999e-01
1.448451389e+00,0.00000e+00,0.00000e+00,9.19778e-01,9.99999e-01
1.455693646e+00,0.00000e+00,0.00000e+00,9.21299e-01,9.99999e-01
1.462972114e+00,1.23974e-219,1.34346e-219,9.22792e-01,9.99999e-01
1.470286975e+00,1.06766e-91,1.15516e-91,9.24257e-01,9.99999e-01
1.477638409e+00,5.63587e-58,6.08824e-58,9.25697e-01,9.99999e-01
1.485026601e+00,1.08908e-32,1.17470e-32,9.27109e-01,9.99999e-01
1.492451734e+00,7.29374e-28,7.85542e-28,9.28496e-01,9.99999e-01
1.499913993e+00,1.17220e-12,1.26062e-12,9.29858e-01,9.99999e-01
1.507413563e+00,2.02994e-11,2.17993e-11,9.31195e-01,9.99999e-01
1.514950631e+00,7.83098e-13,8.39776e-13,9.32507e-01,9.99999e-01
1.522525384e+00,1.76786e-41,1.89320e-41,9.33795e-01,9.99999e-01
1.530138011e+00,8.71414e-98,9.31933e-98,9.35059e-01,9.99999e-01
1.537788701e+00,1.42296e-72,1.51977e-72,9.36300e-01,9.99999e-01
1.545477645e+00,4.79316e-16,5.11260e-16,9.37518e-01,9.99999e-01
1.553205033e+00,1.69092e-11,1.80132e-11,9.38714e-01,9.99999e-01
1.560971058e+00,5.96197e-12,6.34328e-12,9.39887e-01,9.99999e-01
1.568775913e+00,1.83437e-246,1.94930e-246,9.41039e-01,9.99999e-01
1.576619793e+00,0.00000e+00,0.00000e+00,9.42169e-01,9.99999e-01
1.584502892e+00,3.78272e-315,4.01018e-315,9.43278e-01,9.99999e-01
1.592425406e+00,1.01449e-219,1.07425e-219,9.44367e-01,9.99999e-01
1.600387533e+00,0.00000e+00,0.00000e+00,9.45435e-01,9.99999e-01
1.608389471e+00,0.00000e+00,0.00000e+00,9.46483e-01,9.99999e-01
1.616431418e+00,0.00000e+00,0.00000e+00,9.47512e-01,9.99999e-01
1.624513575e+00,5.05737e-279,5.33184e-279,9.48522e-01,9.99999e-01
1.632636143e+00,2.60175e-207,2.74009e-207,9.49513e-01,9.99999e-01
1.640799324e+00,5.08846e-85,5.35353e-85,9.50485e-01,9.99999e-01
1.649003321e+00,5.10373e-85,5.36422e-85,9.51439e-01,9.99999e-01
1.657248337e+00,6.70954e-66,7.04506e-66,9.52375e-01,9.99999e-01
1.665534579e+00,2.47076e-66,2.59182e-66,9.53293e-01,9.99999e-01
1.673862252e+00,1.28908e-42,1.35096e-42,9.54194e-01,9.99999e-01
1.682231563e+00,8.89281e-30,9.31107e-30,9.55078e-01,9.99999e-01
1.690642721e+00,5.96719e-17,6.24218e-17,9.55946e-01,9.99999e-01
1.699095934e+00,5.71194e-11,5.96986e-11,9.56797e-01,9.99999e-01
1.707591414e+00,4.44206e-06,4.63858e-06,9.57632e-01,9.99999e-01
1.716129371e+00,8.87810e-04,9.26296e-04,9.58451e-01,9.99999e-01
1.724710018e+00,1.92102e-02,2.00261e-02,9.59255e-01,9.99999e-01
1.733333568e+00,7.48837e-02,7.80003e-02,9.60043e-01,9.99999e-01
1.742000236e+00,2.13134e-01,2.21826e-01,9.60817e-01,9.99999e-01
1.750710237e+00,3.29097e-03,3.42247e-03,9.61576e-01,9.99999e-01
1.759463788e+00,1.11034e-40,1.15382e-40,9.62320e-01,9.99999e-01
1.768261107e+00,1.33987e-42,1.39128e-42,9.63050e-01,9.99999e-01
1.777102413e+00,2.75712e-41,2.86077e-41,9.63767e-01,9.99999e-01
1.785987925e+00,6.19527e-39,6.42349e-39,9.64470e-01,9.99999e-01
1.794917864e+00,3.57388e-37,3.70289e-37,9.65159e-01,9.99999e-01
1.803892454e+00,8.06914e-36,8.35456e-36,9.65835e-01,9.99999e-01
1.812911916e+00,2.17385e-34,2.24920e-34,9.66499e-01,9.99999e-01
1.821976476e+00,1.73037e-34,1.78915e-34,9.67149e-01,9.99999e-01
1.831086358e+00,7.22459e-28,7.46505e-28,9.67788e-01,9.99999e-01
1.840241790e+00,9.29312e-24,9.59622e-24,9.68414e-01,9.99999e-01
1.849442999e+00,1.37537e-16,1.41933e-16,9.69028e-01,9.99999e-01
1.858690214e+00,1.72603e-15,1.78009e-15,9.69630e-01,9.99999e-01
1.867983665e+00,3.48809e-16,3.59514e-16,9.70221e-01,9.99999e-01
1.877323583e+00,4.59958e-77,4.73792e-77,9.70801e-01,9.99999e-01
