#,Wave/freq,Total,CO2,Rayleigh,CIA
4.000000000e-01,4.36488e-06,9.99999e-01,4.36488e-06,9.99999e-01
4.020000000e-01,5.57131e-06,9.99999e-01,5.57131e-06,9.99999e-01
4.040100000e-01,7.07518e-06,9.99999e-01,7.07518e-06,9.99999e-01
4.060300500e-01,8.94269e-06,9.99999e-01,8.94269e-06,9.99999e-01
4.080602003e-01,1.12509e-05,9.99999e-01,1.12509e-05,9.99999e-01
4.101005013e-01,1.40910e-05,9.99999e-01,1.40910e-05,9.99999e-01
4.121510038e-01,1.75696e-05,9.99999e-01,1.75696e-05,9.99999e-01
4.142117588e-01,2.18117e-05,9.99999e-01,2.18117e-05,9.99999e-01
4.162828176e-01,2.69626e-05,9.99999e-01,2.69626e-05,9.99999e-01
4.183642317e-01,3.31906e-05,9.99999e-01,3.31906e-05,9.99999e-01
4.204560528e-01,4.06898e-05,9.99999e-01,4.06898e-05,9.99999e-01
4.225583331e-01,4.96832e-05,9.99999e-01,4.96832e-05,9.99999e-01
4.246711247e-01,6.04254e-05,9.99999e-01,6.04254e-05,9.99999e-01
4.267944804e-01,7.32068e-05,9.99999e-01,7.32068e-05,9.99999e-01
4.289284528e-01,8.83561e-05,9.99999e-01,8.83561e-05,9.99999e-01
4.310730950e-01,1.06245e-04,9.99999e-01,1.06245e-04,9.99999e-01
4.332284605e-01,1.27291e-04,9.99999e-01,1.27291e-04,9.99999e-01
4.353946028e-01,1.51963e-04,9.99999e-01,1.51963e-04,9.99999e-01
4.375715758e-01,1.80783e-04,9.99999e-01,1.80783e-04,9.99999e-01
4.397594337e-01,2.14333e-04,9.99999e-01,2.14333e-04,9.99999e-01
4.419582309e-01,2.53256e-04,9.99999e-01,2.53256e-04,9.99999e-01
4.441680220e-01,2.98262e-04,9.99999e-01,2.98262e-04,9.99999e-01
4.463888621e-01,3.50133e-04,9.99999e-01,3.50133e-04,9.99999e-01
4.486208064e-01,4.09726e-04,9.99999e-01,4.09726e-04,9.99999e-01
4.508639105e-01,4.77975e-04,9.99999e-01,4.77975e-04,9.99999e-01
4.531182300e-01,5.55898e-04,9.99999e-01,5.55898e-04,9.99999e-01
4.553838212e-01,6.44598e-04,9.99999e-01,6.44598e-04,9.99999e-01
4.576607403e-01,7.45270e-04,9.99999e-01,7.45270e-04,9.99999e-01
4.599490440e-01,8.59198e-04,9.99999e-01,8.59198e-04,9.99999e-01
4.622487892e-01,9.87762e-04,9.99999e-01,9.87762e-04,9.99999e-01
4.645600332e-01,1.13244e-03,9.99999e-01,1.13244e-03,9.99999e-01
4.668828333e-01,1.29481e-03,9.99999e-01,1.29481e-03,9.99999e-01
4.692172475e-01,1.47655e-03,9.99999e-01,1.47655e-03,9.99999e-01
4.715633337e-01,1.67943e-03,9.99999e-01,1.67943e-03,9.99999e-01
4.739211504e-01,1.90533e-03,9.99999e-01,1.90533e-03,9.99999e-01
4.762907561e-01,2.15625e-03,9.99999e-01,2.15625e-03,9.99999e-01
4.786722099e-01,2.43425e-03,9.99999e-01,2.43425e-03,9.99999e-01
4.810655710e-01,2.74151e-03,9.99999e-01,2.74151e-03,9.99999e-01
4.834708988e-01,3.08032e-03,9.99999e-01,3.08032e-03,9.99999e-01
4.858882533e-01,3.45305e-03,9.99999e-01,3.45305e-03,9.99999e-01
4.883176946e-01,3.86215e-03,9.99999e-01,3.86215e-03,9.99999e-01
4.907592831e-01,4.31018e-03,9.99999e-01,4.31018e-03,9.99999e-01
4.932130795e-01,4.79977e-03,9.99999e-01,4.79977e-03,9.99999e-01
4.956791449e-01,5.33362e-03,9.99999e-01,5.33362e-03,9.99999e-01
4.981575406e-01,5.91451e-03,9.99999e-01,5.91451e-03,9.99999e-01
5.006483283e-01,6.54529e-03,9.99999e-01,6.54529e-03,9.99999e-01
5.031515699e-01,7.22886e-03,9.99999e-01,7.22886e-03,9.99999e-01
5.056673278e-01,7.96817e-03,9.99999e-01,7.96817e-03,9.99999e-01
5.081956644e-01,8.76621e-03,9.99999e-01,8.76621e-03,9.99999e-01
5.107366428e-01,9.62601e-03,9.99999e-01,9.62601e-03,9.99999e-01
5.132903260e-01,1.05506e-02,9.99999e-01,1.05506e-02,9.99999e-01
5.158567776e-01,1.15431e-02,9.99999e-01,1.15431e-02,9.99999e-01
5.184360615e-01,1.26066e-02,9.99999e-01,1.26066e-02,9.99999e-01
5.210282418e-01,1.37441e-02,9.99999e-01,1.37441e-02,9.99999e-01
5.236333830e-01,1.49586e-02,9.99999e-01,1.49586e-02,9.99999e-01
5.262515499e-01,1.62533e-02,9.99999e-01,1.62533e-02,9.99999e-01
5.288828077e-01,1.76312e-02,9.99999e-01,1.76312e-02,9.99999e-01
5.315272217e-01,1.90951e-02,9.99999e-01,1.90951e-02,9.99999e-01
5.341848578e-01,2.06480e-02,9.99999e-01,2.06480e-02,9.99999e-01
5.368557821e-01,2.22927e-02,9.99999e-01,2.22927e-02,9.99999e-01
5.395400610e-01,2.40320e-02,9.99999e-01,2.40320e-02,9.99999e-01
5.422377613e-01,2.58686e-02,9.99999e-01,2.58686e-02,9.99999e-01
5.449489501e-01,2.78052e-02,9.99999e-01,2.78052e-02,9.99999e-01
5.476736949e-01,2.98440e-02,9.99999e-01,2.98440e-02,9.99999e-01
5.504120634e-01,3.19877e-02,9.99999e-01,3.19877e-02,9.99999e-01
5.531641237e-01,3.42384e-02,9.99999e-01,3.42384e-02,9.99999e-01
5.559299443e-01,3.65982e-02,9.99999e-01,3.65982e-02,9.99999e-01
5.587095940e-01,3.90693e-02,9.99999e-01,3.90693e-02,9.99999e-01
5.615031420e-01,4.16534e-02,9.99999e-01,4.16534e-02,9.99999e-01
5.643106577e-01,4.43522e-02,9.99999e-01,4.43522e-02,9.99999e-01
5.671322110e-01,4.71674e-02,9.99999e-01,4.71674e-02,9.99999e-01
5.699678720e-01,5.01004e-02,9.99999e-01,5.01004e-02,9.99999e-01
5.728177114e-01,5.31524e-02,9.99999e-01,5.31524e-02,9.99999e-01
5.756818000e-01,5.63244e-02,9.99999e-01,5.63244e-02,9.99999e-01
5.785602090e-01,5.96175e-02,9.99999e-01,5.96175e-02,9.99999e-01
5.814530100e-01,6.30323e-02,9.99999e-01,6.30323e-02,9.99999e-01
5.843602750e-01,6.65694e-02,9.99999e-01,6.65694e-02,9.99999e-01
5.872820764e-01,7.02292e-02,9.99999e-01,7.02292e-02,9.99999e-01
5.902184868e-01,7.40119e-02,9.99999e-01,7.40119e-02,9.99999e-01
5.931695792e-01,7.79177e-02,9.99999e-01,7.79177e-02,9.99999e-01
5.961354271e-01,8.19462e-02,9.99999e-01,8.19462e-02,9.99999e-01
5.991161043e-01,8.60973e-02,9.99999e-01,8.60973e-02,9.99999e-01
6.021116848e-01,9.03703e-02,9.99999e-01,9.03703e-02,9.99999e-01
6.051222432e-01,9.47648e-02,9.99999e-01,9.47648e-02,9.99999e-01
6.081478544e-01,9.92798e-02,9.99999e-01,9.92798e-02,9.99999e-01
6.111885937e-01,1.03914e-01,9.99999e-01,1.03914e-01,9.99999e-01
6.142445367e-01,1.08667e-01,9.99999e-01,1.08667e-01,9.99999e-01
6.173157594e-01,1.13537e-01,9.99999e-01,1.13537e-01,9.99999e-01
6.204023382e-01,1.18523e-01,9.99999e-01,1.18523e-01,9.99999e-01
6.235043498e-01,1.23622e-01,9.99999e-01,1.23622e-01,9.99999e-01
6.266218716e-01,1.28834e-01,9.99999e-01,1.28834e-01,9.99999e-01
6.297549810e-01,1.34155e-01,9.99999e-01,1.34155e-01,9.99999e-01
6.329037559e-01,1.39585e-01,9.99999e-01,1.39585e-01,9.99999e-01
6.360682746e-01,1.45121e-01,9.99999e-01,1.45121e-01,9.99999e-01
6.392486160e-01,1.50761e-01,9.99999e-01,1.50761e-01,9.99999e-01
6.424448591e-01,1.56502e-01,9.99999e-01,1.56502e-01,9.99999e-01
6.456570834e-01,1.62342e-01,9.99999e-01,1.62342e-01,9.99999e-01
6.488853688e-01,1.68278e-01,9.99999e-01,1.68278e-01,9.99999e-01
6.521297956e-01,1.74307e-01,9.99999e-01,1.74307e-01,9.99999e-01
6.553904446e-01,1.80426e-01,9.99999e-01,1.80426e-01,9.99999e-01
6.586673968e-01,1.86634e-01,9.99999e-01,1.86634e-01,9.99999e-01
6.619607338e-01,1.92926e-01,9.99999e-01,1.92926e-01,9.99999e-01
6.652705375e-01,1.99299e-01,9.99999e-01,1.99299e-01,9.99999e-01
6.685968902e-01,2.05751e-01,9.99999e-01,2.05751e-01,9.99999e-01
6.719398746e-01,2.12278e-01,9.99999e-01,2.12278e-01,9.99999e-01
6.752995740e-01,2.18877e-01,9.99999e-01,2.18877e-01,9.99999e-01
6.786760719e-01,2.25545e-01,9.99999e-01,2.25545e-01,9.99999e-01
6.820694522e-01,2.32278e-01,9.99999e-01,2.32278e-01,9.99999e-01
6.854797995e-01,2.39073e-01,9.99999e-01,2.39073e-01,9.99999e-01
6.889071985e-01,2.45927e-01,9.99999e-01,2.45927e-01,9.99999e-01
6.923517345e-01,2.52836e-01,9.99999e-01,2.52836e-01,9.99999e-01
6.958134932e-01,2.59798e-01,9.99999e-01,2.59798e-01,9.99999e-01
6.992925606e-01,2.66807e-01,9.99999e-01,2.66807e-01,9.99999e-01
7.027890234e-01,2.73862e-01,9.99999e-01,2.73862e-01,9.99999e-01
7.063029686e-01,2.80958e-01,9.99999e-01,2.80958e-01,9.99999e-01
7.098344834e-01,2.88093e-01,9.99999e-01,2.88093e-01,9.99999e-01
7.133836558e-01,2.95262e-01,9.99999e-01,2.95262e-01,9.99999e-01
7.169505741e-01,3.02463e-01,9.99999e-01,3.02463e-01,9.99999e-01
7.205353270e-01,3.09692e-01,9.99999e-01,3.09692e-01,9.99999e-01
7.241380036e-01,3.16946e-01,9.99999e-01,3.16946e-01,9.99999e-01
7.277586936e-01,3.24222e-01,9.99999e-01,3.24222e-01,9.99999e-01
7.313974871e-01,3.31516e-01,9.99999e-01,3.31516e-01,9.99999e-01
7.350544745e-01,3.38825e-01,9.99999e-01,3.38825e-01,9.99999e-01
7.387297469e-01,3.46147e-01,9.99999e-01,3.46147e-01,9.99999e-01
7.424233956e-01,3.53477e-01,9.99999e-01,3.53477e-01,9.99999e-01
7.461355126e-01,3.60813e-01,9.99999e-01,3.60813e-01,9.99999e-01
7.498661902e-01,3.68152e-01,9.99999e-01,3.68152e-01,9.99999e-01
7.536155211e-01,3.75490e-01,9.99999e-01,3.75490e-01,9.99999e-01
7.573835987e-01,3.82826e-01,9.99999e-01,3.82826e-01,9.99999e-01
7.611705167e-01,3.90156e-01,9.99999e-01,3.90156e-01,9.99999e-01
7.649763693e-01,3.97477e-01,9.99999e-01,3.97477e-01,9.99999e-01
7.688012511e-01,4.04787e-01,9.99999e-01,4.04787e-01,9.99999e-01
7.726452574e-01,4.12083e-01,9.99999e-01,4.12083e-01,9.99999e-01
7.765084837e-01,4.19363e-01,9.99999e-01,4.19363e-01,9.99999e-01
7.803910261e-01,4.10498e-01,9.62202e-01,4.26623e-01,9.99999e-01
7.842929812e-01,3.62429e-01,8.35354e-01,4.33863e-01,9.99999e-01
7.882144461e-01,3.64328e-01,8.25993e-01,4.41078e-01,9.99999e-01
7.921555184e-01,4.00760e-01,8.94018e-01,4.48267e-01,9.99999e-01
7.961162960e-01,4.22256e-01,9.27161e-01,4.55428e-01,9.99999e-01
8.000968774e-01,4.44008e-01,9.59894e-01,4.62559e-01,9.99999e-01
8.040973618e-01,4.59763e-01,9.78933e-01,4.69657e-01,9.99999e-01
8.081178486e-01,4.72104e-01,9.90315e-01,4.76721e-01,9.99999e-01
8.121584379e-01,4.82285e-01,9.96974e-01,4.83748e-01,9.99999e-01
8.162192301e-01,4.90409e-01,9.99330e-01,4.90737e-01,9.99999e-01
8.203003262e-01,4.97680e-01,9.99988e-01,4.97686e-01,9.99999e-01
8.244018279e-01,5.04593e-01,9.99999e-01,5.04593e-01,9.99999e-01
8.285238370e-01,5.11456e-01,9.99999e-01,5.11456e-01,9.99999e-01
8.326664562e-01,5.18275e-01,9.99999e-01,5.18275e-01,9.99999e-01
8.368297885e-01,5.25047e-01,9.99999e-01,5.25047e-01,9.99999e-01
8.410139374e-01,5.31772e-01,9.99999e-01,5.31772e-01,9.99999e-01
8.452190071e-01,5.38447e-01,9.99999e-01,5.38447e-01,9.99999e-01
8.494451021e-01,5.45072e-01,9.99999e-01,5.45072e-01,9.99999e-01
8.536923276e-01,5.51644e-01,9.99999e-01,5.51644e-01,9.99999e-01
8.579607893e-01,5.58164e-01,9.99999e-01,5.58164e-01,9.99999e-01
8.622505932e-01,5.64630e-01,9.99999e-01,5.64630e-01,9.99999e-01
8.665618462e-01,5.25493e-01,9.20236e-01,5.71041e-01,9.99999e-01
8.708946554e-01,3.67206e-01,6.35969e-01,5.77396e-01,9.99999e-01
8.752491287e-01,4.04164e-01,6.92423e-01,5.83694e-01,9.99999e-01
8.796253743e-01,4.81625e-01,8.16404e-01,5.89934e-01,9.99999e-01
8.840235012e-01,5.36531e-01,9.00043e-01,5.96116e-01,9.99999e-01
8.884436187e-01,5.77642e-01,9.59157e-01,6.02239e-01,9.99999e-01
8.928858368e-01,5.98141e-01,9.83297e-01,6.08301e-01,9.99999e-01
8.973502660e-01,6.11780e-01,9.95892e-01,6.14303e-01,9.99999e-01
9.018370173e-01,6.19963e-01,9.99545e-01,6.20244e-01,9.99999e-01
9.063462024e-01,6.19108e-01,9.88794e-01,6.26124e-01,9.99999e-01
9.108779334e-01,6.15399e-01,9.73822e-01,6.31941e-01,9.99999e-01
9.154323231e-01,6.33702e-01,9.93735e-01,6.37696e-01,9.99999e-01
9.200094847e-01,5.89226e-01,9.15817e-01,6.43388e-01,9.99999e-01
9.246095321e-01,5.70108e-01,8.78416e-01,6.49017e-01,9.99999e-01
9.292325798e-01,5.92061e-01,9.04484e-01,6.54583e-01,9.99999e-01
9.338787427e-01,5.98408e-01,9.06561e-01,6.60085e-01,9.99999e-01
9.385481364e-01,6.19213e-01,9.30415e-01,6.65523e-01,9.99999e-01
9.432408771e-01,6.41810e-01,9.56644e-01,6.70897e-01,9.99999e-01
9.479570815e-01,6.61050e-01,9.77583e-01,6.76208e-01,9.99999e-01
9.526968669e-01,6.74034e-01,9.89110e-01,6.81454e-01,9.99999e-01
9.574603512e-01,6.83427e-01,9.95326e-01,6.86636e-01,9.99999e-01
9.622476530e-01,6.90743e-01,9.98538e-01,6.91754e-01,9.99999e-01
9.670588912e-01,6.96502e-01,9.99560e-01,6.96808e-01,9.99999e-01
9.718941857e-01,7.01775e-01,9.99967e-01,7.01797e-01,9.99999e-01
9.767536566e-01,7.06723e-01,9.99999e-01,7.06723e-01,9.99999e-01
9.816374249e-01,7.11586e-01,9.99999e-01,7.11586e-01,9.99999e-01
9.865456120e-01,7.16384e-01,9.99999e-01,7.16384e-01,9.99999e-01
9.914783401e-01,7.21120e-01,9.99999e-01,7.21120e-01,9.99999e-01
9.964357318e-01,7.25792e-01,9.99999e-01,7.25792e-01,9.99999e-01
1.001417910e+00,7.30401e-01,9.99999e-01,7.30401e-01,9.99999e-01
1.006425000e+00,7.34947e-01,9.99999e-01,7.34947e-01,9.99999e-01
1.011457125e+00,7.39432e-01,9.99999e-01,7.39432e-01,9.99999e-01
1.016514411e+00,7.43854e-01,9.99999e-01,7.43854e-01,9.99999e-01
1.021596983e+00,7.48174e-01,9.99945e-01,7.48214e-01,9.99999e-01
1.026704968e+00,7.49223e-01,9.95626e-01,7.52514e-01,9.99999e-01
1.031838492e+00,7.21535e-01,9.53462e-01,7.56752e-01,9.99999e-01
1.036997685e+00,1.00394e-01,1.31936e-01,7.60929e-01,9.99999e-01
1.042182673e+00,6.31351e-02,8.25244e-02,7.65047e-01,9.99999e-01
1.047393587e+00,8.38252e-02,1.08990e-01,7.69105e-01,9.99999e-01
1.052630555e+00,1.31505e-03,1.70100e-03,7.73103e-01,9.99999e-01
1.057893707e+00,3.58192e-03,4.60968e-03,7.77043e-01,9.99999e-01
1.063183176e+00,1.45730e-02,1.86611e-02,7.80925e-01,9.99999e-01
1.068499092e+00,4.80214e-02,6.11933e-02,7.84748e-01,9.99999e-01
1.073841587e+00,1.33900e-01,1.69813e-01,7.88515e-01,9.99999e-01
1.079210795e+00,2.57742e-01,3.25339e-01,7.92224e-01,9.99999e-01
1.084606849e+00,4.27647e-01,5.37328e-01,7.95877e-01,9.99999e-01
1.090029883e+00,5.79091e-01,7.24338e-01,7.99474e-01,9.99999e-01
1.095480033e+00,6.84846e-01,8.52841e-01,8.03016e-01,9.99999e-01
1.100957433e+00,7.46948e-01,9.26155e-01,8.06504e-01,9.99999e-01
1.106462220e+00,7.84616e-01,9.68736e-01,8.09937e-01,9.99999e-01
1.111994531e+00,8.03798e-01,9.88296e-01,8.13316e-01,9.99999e-01
1.117554504e+00,8.14289e-01,9.97117e-01,8.16642e-01,9.99999e-01
1.123142276e+00,8.19760e-01,9.99809e-01,8.19916e-01,9.99999e-01
1.128757988e+00,8.23138e-01,9.99999e-01,8.23138e-01,9.99999e-01
1.134401778e+00,8.26309e-01,9.99999e-01,8.26309e-01,9.99999e-01
1.140073787e+00,8.29429e-01,9.99999e-01,8.29429e-01,9.99999e-01
1.145774156e+00,8.32498e-01,9.99999e-01,8.32498e-01,9.99999e-01
1.151503026e+00,8.35518e-01,9.99999e-01,8.35518e-01,9.99999e-01
1.157260541e+00,8.38489e-01,9.99999e-01,8.38489e-01,9.99999e-01
1.163046844e+00,8.41412e-01,9.99999e-01,8.41412e-01,9.99999e-01
1.168862078e+00,8.44287e-01,9.99999e-01,8.44287e-01,9.99999e-01
1.174706389e+00,8.47114e-01,9.99999e-01,8.47114e-01,9.99999e-01
1.180579921e+00,8.49895e-01,9.99999e-01,8.49895e-01,9.99999e-01
1.186482820e+00,8.52625e-01,9.99993e-01,8.52630e-01,9.99999e-01
1.192415234e+00,8.42158e-01,9.84612e-01,8.55319e-01,9.99999e-01
1.198377311e+00,4.78453e-01,5.57660e-01,8.57963e-01,9.99999e-01
1.204369197e+00,5.97648e-13,6.94484e-13,8.60563e-01,9.99999e-01
1.210391043e+00,3.20742e-48,3.71608e-48,8.63120e-01,9.99999e-01
1.216442998e+00,6.49695e-42,7.50543e-42,8.65633e-01,9.99999e-01
1.222525213e+00,2.63919e-41,3.04018e-41,8.68104e-01,9.99999e-01
1.228637839e+00,5.40072e-32,6.20392e-32,8.70532e-01,9.99999e-01
1.234781029e+00,1.53085e-20,1.75371e-20,8.72920e-01,9.99999e-01
1.240954934e+00,7.39507e-14,8.44893e-14,8.75266e-01,9.99999e-01
1.247159708e+00,1.71710e-07,1.95665e-07,8.77573e-01,9.99999e-01
1.253395507e+00,6.64288e-05,7.55010e-05,8.79839e-01,9.99999e-01
1.259662485e+00,2.56359e-03,2.90634e-03,8.82067e-01,9.99999e-01
1.265960797e+00,3.77181e-02,4.26551e-02,8.84256e-01,9.99999e-01
1.272290601e+00,2.07402e-01,2.33980e-01,8.86407e-01,9.99999e-01
1.278652054e+00,1.99411e-01,2.24430e-01,8.88521e-01,9.99999e-01
1.285045314e+00,3.96935e-03,4.45694e-03,8.90598e-01,9.99999e-01
1.291470541e+00,2.57031e-06,2.87945e-06,8.92638e-01,9.99999e-01
1.297927893e+00,2.03278e-03,2.27217e-03,8.94643e-01,9.99999e-01
1.304417533e+00,7.69472e-02,8.58199e-02,8.96612e-01,9.99999e-01
1.310939621e+00,1.90097e-02,2.11560e-02,8.98547e-01,9.99999e-01
1.317494319e+00,5.22047e-17,5.79763e-17,9.00448e-01,9.99999e-01
1.324081790e+00,1.17720e-11,1.30464e-11,9.02315e-01,9.99999e-01
1.330702199e+00,6.78329e-07,7.50239e-07,9.04149e-01,9.99999e-01
1.337355710e+00,1.12225e-06,1.23876e-06,9.05950e-01,9.99999e-01
1.344042489e+00,3.69652e-07,4.07232e-07,9.07719e-01,9.99999e-01
1.350762701e+00,3.95608e-07,4.34994e-07,9.09457e-01,9.99999e-01
1.357516515e+00,8.34433e-05,9.15787e-05,9.11163e-01,9.99999e-01
1.364304097e+00,1.95623e-03,2.14301e-03,9.12839e-01,9.99999e-01
1.371125618e+00,3.74794e-02,4.09841e-02,9.14485e-01,9.99999e-01
1.377981246e+00,6.54110e-02,7.14015e-02,9.16101e-01,9.99999e-01
1.384871152e+00,1.97441e-01,2.15150e-01,9.17688e-01,9.99999e-01
1.391795508e+00,2.21941e-01,2.41437e-01,9.19247e-01,9.99999e-01
1.398754485e+00,3.82471e-01,4.15378e-01,9.20777e-01,9.99999e-01
1.405748258e+00,4.83059e-01,5.23766e-01,9.22279e-01,9.99999e-01
1.412776999e+00,6.13551e-01,6.64192e-01,9.23754e-01,9.99999e-01
1.419840884e+00,5.55311e-01,6.00204e-01,9.25202e-01,9.99999e-01
1.426940089e+00,4.56840e-02,4.93015e-02,9.26624e-01,9.99999e-01
1.434074789e+00,0.00000e+00,0.00000e+00,9.28020e-01,9.99999e-01
1.441245163e+00,0.00000e+00,0.00000e+00,9.29390e-01,9.99999e-01
1.448451389e+00,0.00000e+00,0.00000e+00,9.30736e-01,9.99999e-01
1.455693646e+00,0.00000e+00,0.00000e+00,9.32056e-01,9.99999e-01
1.462972114e+00,7.59885e-189,8.14145e-189,9.33352e-01,9.99999e-01
1.470286975e+00,4.97486e-79,5.32283e-79,9.34625e-01,9.99999e-01
1.477638409e+00,4.39924e-50,4.70068e-50,9.35874e-01,9.99999e-01
1.485026601e+00,2.27656e-28,2.42936e-28,9.37100e-01,9.99999e-01
1.492451734e+00,3.54160e-24,3.77447e-24,9.38303e-01,9.99999e-01
1.499913993e+00,3.67895e-11,3.91592e-11,9.39484e-01,9.99999e-01
1.507413563e+00,6.27037e-10,6.66604e-10,9.40643e-01,9.99999e-01
1.514950631e+00,2.47105e-11,2.62381e-11,9.41781e-01,9.99999e-01
1.522525384e+00,6.36004e-36,6.74521e-36,9.42897e-01,9.99999e-01
1.530138011e+00,2.99178e-84,3.16928e-84,9.43993e-01,9.99999e-01
1.537788701e+00,1.30743e-62,1.38343e-62,9.45068e-01,9.99999e-01
1.545477645e+00,4.31117e-14,4.55667e-14,9.46123e-01,9.99999e-01
1.553205033e+00,5.07312e-10,5.35614e-10,9.47159e-01,9.99999e-01
1.560971058e+00,1.67322e-10,1.76468e-10,9.48175e-01,9.99999e-01
1.568775913e+00,7.09346e-212,7.47330e-212,9.49172e-01,9.99999e-01
1.576619793e+00,0.00000e+00,0.00000e+00,9.50151e-01,9.99999e-01
1.584502892e+00,7.81772e-271,8.21956e-271,9.51111e-01,9.99999e-01
1.592425406e+00,6.51198e-189,6.83993e-189,9.52053e-01,9.99999e-01
1.600387533e+00,3.89693e-304,4.08921e-304,9.52978e-01,9.99999e-01
1.608389471e+00,0.00000e+00,0.00000e+00,9.53885e-01,9.99999e-01
1.616431418e+00,0.00000e+00,0.00000e+00,9.54775e-01,9.99999e-01
1.624513575e+00,7.99197e-240,8.36288e-240,9.55648e-01,9.99999e-01
1.632636143e+00,2.86935e-178,2.99983e-178,9.56504e-01,9.99999e-01
1.640799324e+00,2.68634e-73,2.80603e-73,9.57345e-01,9.99999e-01
1.649003321e+00,2.70437e-73,2.82243e-73,9.58170e-01,9.99999e-01
1.657248337e+00,7.04796e-57,7.34944e-57,9.58979e-01,9.99999e-01
1.665534579e+00,2.99296e-57,3.11840e-57,9.59772e-01,9.99999e-01
1.673862252e+00,6.89520e-37,7.17837e-37,9.60551e-01,9.99999e-01
1.682231563e+00,7.30974e-26,7.60388e-26,9.61315e-01,9.99999e-01
1.690642721e+00,7.30568e-15,7.59374e-15,9.62064e-01,9.99999e-01
1.699095934e+00,1.20677e-09,1.25340e-09,9.62800e-01,9.99999e-01
1.707591414e+00,1.95712e-05,2.03121e-05,9.63521e-01,9.99999e-01
1.716129371e+00,2.17313e-03,2.25374e-03,9.64228e-01,9.99999e-01
1.724710018e+00,3.27349e-02,3.39249e-02,9.64922e-01,9.99999e-01
1.733333568e+00,1.07238e-01,1.11058e-01,9.65603e-01,9.99999e-01
1.742000236e+00,2.62115e-01,2.71265e-01,9.66271e-01,9.99999e-01
1.750710237e+00,5.35697e-03,5.54020e-03,9.66926e-01,9.99999e-01
1.759463788e+00,3.37195e-35,3.48497e-35,9.67569e-01,9.99999e-01
1.768261107e+00,6.94610e-37,7.17424e-37,9.68199e-01,9.99999e-01
1.777102413e+00,1.18161e-35,1.21964e-35,9.68817e-01,9.99999e-01
1.785987925e+00,1.00140e-33,1.03299e-33,9.69424e-01,9.99999e-01
1.794917864e+00,3.52098e-32,3.62980e-32,9.70018e-01,9.99999e-01
1.803892454e+00,4.58598e-31,4.72488e-31,9.70602e-01,9.99999e-01
1.812911916e+00,8.49383e-30,8.74593e-30,9.71174e-01,9.99999e-01
1.821976476e+00,6.42191e-30,6.60870e-30,9.71735e-01,9.99999e-01
1.831086358e+00,3.09093e-24,3.17903e-24,9.72286e-01,9.99999e-01
1.840241790e+00,1.18360e-20,1.21666e-20,9.72826e-01,9.99999e-01
1.849442999e+00,1.92303e-14,1.97567e-14,9.73355e-01,9.99999e-01
1.858690214e+00,1.94482e-13,1.99699e-13,9.73874e-01,9.99999e-01
1.867983665e+00,3.69493e-14,3.79206e-14,9.74384e-01,9.99999e-01
1.877323583e+00,1.83145e-66,1.87863e-66,9.74883e-01,9.99999e-01
