#,Wave/freq,Total,CO2,Rayleigh,CIA
4.000000000e-01,3.01864e-08,9.99999e-01,3.01864e-08,9.99999e-01
4.020000000e-01,4.25117e-08,9.99999e-01,4.25117e-08,9.99999e-01
4.040100000e-01,5.94448e-08,9.99999e-01,5.94448e-08,9.99999e-01
4.060300500e-01,8.25739e-08,9.99999e-01,8.25739e-08,9.99999e-01
4.080602003e-01,1.13960e-07,9.99999e-01,1.13960e-07,9.99999e-01
4.101005013e-01,1.56278e-07,9.99999e-01,1.56278e-07,9.99999e-01
4.121510038e-01,2.12979e-07,9.99999e-01,2.12979e-07,9.99999e-01
4.142117588e-01,2.88482e-07,9.99999e-01,2.88482e-07,9.99999e-01
4.162828176e-01,3.88416e-07,9.99999e-01,3.88416e-07,9.99999e-01
4.183642317e-01,5.19905e-07,9.99999e-01,5.19905e-07,9.99999e-01
4.204560528e-01,6.91911e-07,9.99999e-01,6.91911e-07,9.99999e-01
4.225583331e-01,9.15640e-07,9.99999e-01,9.15640e-07,9.99999e-01
4.246711247e-01,1.20502e-06,9.99999e-01,1.20502e-06,9.99999e-01
4.267944804e-01,1.57729e-06,9.99999e-01,1.57729e-06,9.99999e-01
4.289284528e-01,2.05360e-06,9.99999e-01,2.05360e-06,9.99999e-01
4.310730950e-01,2.65986e-06,9.99999e-01,2.65986e-06,9.99999e-01
4.332284605e-01,3.42753e-06,9.99999e-01,3.42753e-06,9.99999e-01
4.353946028e-01,4.39469e-06,9.99999e-01,4.39469e-06,9.99999e-01
4.375715758e-01,5.60717e-06,9.99999e-01,5.60717e-06,9.99999e-01
4.397594337e-01,7.11983e-06,9.99999e-01,7.11983e-06,9.99999e-01
4.419582309e-01,8.99800e-06,9.99999e-01,8.99800e-06,9.99999e-01
4.441680220e-01,1.13192e-05,9.99999e-01,1.13192e-05,9.99999e-01
4.463888621e-01,1.41747e-05,9.99999e-01,1.41747e-05,9.99999e-01
4.486208064e-01,1.76719e-05,9.99999e-01,1.76719e-05,9.99999e-01
4.508639105e-01,2.19362e-05,9.99999e-01,2.19362e-05,9.99999e-01
4.531182300e-01,2.71134e-05,9.99999e-01,2.71134e-05,9.99999e-01
4.553838212e-01,3.33726e-05,9.99999e-01,3.33726e-05,9.99999e-01
4.576607403e-01,4.09086e-05,9.99999e-01,4.09086e-05,9.99999e-01
4.599490440e-01,4.99450e-05,9.99999e-01,4.99450e-05,9.99999e-01
4.622487892e-01,6.07376e-05,9.99999e-01,6.07376e-05,9.99999e-01
4.645600332e-01,7.35774e-05,9.99999e-01,7.35774e-05,9.99999e-01
4.668828333e-01,8.87946e-05,9.99999e-01,8.87946e-05,9.99999e-01
4.692172475e-01,1.06762e-04,9.99999e-01,1.06762e-04,9.99999e-01
4.715633337e-01,1.27898e-04,9.99999e-01,1.27898e-04,9.99999e-01
4.739211504e-01,1.52674e-04,9.99999e-01,1.52674e-04,9.99999e-01
4.762907561e-01,1.81612e-04,9.99999e-01,1.81612e-04,9.99999e-01
4.786722099e-01,2.15296e-04,9.99999e-01,2.15296e-04,9.99999e-01
4.810655710e-01,2.54370e-04,9.99999e-01,2.54370e-04,9.99999e-01
4.834708988e-01,2.99549e-04,9.99999e-01,2.99549e-04,9.99999e-01
4.858882533e-01,3.51614e-04,9.99999e-01,3.51614e-04,9.99999e-01
4.883176946e-01,4.11424e-04,9.99999e-01,4.11424e-04,9.99999e-01
4.907592831e-01,4.79917e-04,9.99999e-01,4.79917e-04,9.99999e-01
4.932130795e-01,5.58112e-04,9.99999e-01,5.58112e-04,9.99999e-01
4.956791449e-01,6.47115e-04,9.99999e-01,6.47115e-04,9.99999e-01
4.981575406e-01,7.48122e-04,9.99999e-01,7.48122e-04,9.99999e-01
5.006483283e-01,8.62421e-04,9.99999e-01,8.62421e-04,9.99999e-01
5.031515699e-01,9.91394e-04,9.99999e-01,9.91394e-04,9.99999e-01
5.056673278e-01,1.13652e-03,9.99999e-01,1.13652e-03,9.99999e-01
5.081956644e-01,1.29938e-03,9.99999e-01,1.29938e-03,9.99999e-01
5.107366428e-01,1.48166e-03,9.99999e-01,1.48166e-03,9.99999e-01
5.132903260e-01,1.68513e-03,9.99999e-01,1.68513e-03,9.99999e-01
5.158567776e-01,1.91167e-03,9.99999e-01,1.91167e-03,9.99999e-01
5.184360615e-01,2.16328e-03,9.99999e-01,2.16328e-03,9.99999e-01
5.210282418e-01,2.44203e-03,9.99999e-01,2.44203e-03,9.99999e-01
5.236333830e-01,2.75011e-03,9.99999e-01,2.75011e-03,9.99999e-01
5.262515499e-01,3.08979e-03,9.99999e-01,3.08979e-03,9.99999e-01
5.288828077e-01,3.46345e-03,9.99999e-01,3.46345e-03,9.99999e-01
5.315272217e-01,3.87355e-03,9.99999e-01,3.87355e-03,9.99999e-01
5.341848578e-01,4.32265e-03,9.99999e-01,4.32265e-03,9.99999e-01
5.368557821e-01,4.81338e-03,9.99999e-01,4.81338e-03,9.99999e-01
5.395400610e-01,5.34844e-03,9.99999e-01,5.34844e-03,9.99999e-01
5.422377613e-01,5.93063e-03,9.99999e-01,5.93063e-03,9.99999e-01
5.449489501e-01,6.56277e-03,9.99999e-01,6.56277e-03,9.99999e-01
5.476736949e-01,7.24778e-03,9.99999e-01,7.24778e-03,9.99999e-01
5.504120634e-01,7.98861e-03,9.99999e-01,7.98861e-03,9.99999e-01
5.531641237e-01,8.78826e-03,9.99999e-01,8.78826e-03,9.99999e-01
5.559299443e-01,9.64975e-03,9.99999e-01,9.64975e-03,9.99999e-01
5.587095940e-01,1.05761e-02,9.99999e-01,1.05761e-02,9.99999e-01
5.615031420e-01,1.15705e-02,9.99999e-01,1.15705e-02,9.99999e-01
5.643106577e-01,1.26359e-02,9.99999e-01,1.26359e-02,9.99999e-01
5.671322110e-01,1.37754e-02,9.99999e-01,1.37754e-02,9.99999e-01
5.699678720e-01,1.49920e-02,9.99999e-01,1.49920e-02,9.99999e-01
5.728177114e-01,1.62889e-02,9.99999e-01,1.62889e-02,9.99999e-01
5.756818000e-01,1.76690e-02,9.99999e-01,1.76690e-02,9.99999e-01
5.785602090e-01,1.91352e-02,9.99999e-01,1.91352e-02,9.99999e-01
5.814530100e-01,2.06905e-02,9.99999e-01,2.06905e-02,9.99999e-01
5.843602750e-01,2.23377e-02,9.99999e-01,2.23377e-02,9.99999e-01
5.872820764e-01,2.40796e-02,9.99999e-01,2.40796e-02,9.99999e-01
5.902184868e-01,2.59188e-02,9.99999e-01,2.59188e-02,9.99999e-01
5.931695792e-01,2.78580e-02,9.99999e-01,2.78580e-02,9.99999e-01
5.961354271e-01,2.98997e-02,9.99999e-01,2.98997e-02,9.99999e-01
5.991161043e-01,3.20462e-02,9.99999e-01,3.20462e-02,9.99999e-01
6.021116848e-01,3.42997e-02,9.99999e-01,3.42997e-02,9.99999e-01
6.051222432e-01,3.66625e-02,9.99999e-01,3.66625e-02,9.99999e-01
6.081478544e-01,3.91365e-02,9.99999e-01,3.91365e-02,9.99999e-01
6.111885937e-01,4.17237e-02,9.99999e-01,4.17237e-02,9.99999e-01
6.142445367e-01,4.44256e-02,9.99999e-01,4.44256e-02,9.99999e-01
6.173157594e-01,4.72439e-02,9.99999e-01,4.72439e-02,9.99999e-01
6.204023382e-01,5.01800e-02,9.99999e-01,5.01800e-02,9.99999e-01
6.235043498e-01,5.32352e-02,9.99999e-01,5.32352e-02,9.99999e-01
6.266218716e-01,5.64104e-02,9.99999e-01,5.64104e-02,9.99999e-01
6.297549810e-01,5.97067e-02,9.99999e-01,5.97067e-02,9.99999e-01
6.329037559e-01,6.31247e-02,9.99999e-01,6.31247e-02,9.99999e-01
6.360682746e-01,6.66651e-02,9.99999e-01,6.66651e-02,9.99999e-01
6.392486160e-01,7.03282e-02,9.99999e-01,7.03282e-02,9.99999e-01
6.424448591e-01,7.41142e-02,9.99999e-01,7.41142e-02,9.99999e-01
6.456570834e-01,7.80232e-02,9.99999e-01,7.80232e-02,9.99999e-01
6.488853688e-01,8.20550e-02,9.99999e-01,8.20550e-02,9.99999e-01
6.521297956e-01,8.62093e-02,9.99999e-01,8.62093e-02,9.99999e-01
6.553904446e-01,9.04856e-02,9.99999e-01,9.04856e-02,9.99999e-01
6.586673968e-01,9.48833e-02,9.99999e-01,9.48833e-02,9.99999e-01
6.619607338e-01,9.94015e-02,9.99999e-01,9.94015e-02,9.99999e-01
6.652705375e-01,1.04039e-01,9.99999e-01,1.04039e-01,9.99999e-01
6.685968902e-01,1.08795e-01,9.99999e-01,1.08795e-01,9.99999e-01
6.719398746e-01,1.13668e-01,9.99999e-01,1.13668e-01,9.99999e-01
6.752995740e-01,1.18657e-01,9.99999e-01,1.18657e-01,9.99999e-01
6.786760719e-01,1.23759e-01,9.99999e-01,1.23759e-01,9.99999e-01
6.820694522e-01,1.28974e-01,9.99999e-01,1.28974e-01,9.99999e-01
6.854797995e-01,1.34298e-01,9.99999e-01,1.34298e-01,9.99999e-01
6.889071985e-01,1.39731e-01,9.99999e-01,1.39731e-01,9.99999e-01
6.923517345e-01,1.45270e-01,9.99999e-01,1.45270e-01,9.99999e-01
6.958134932e-01,1.50913e-01,9.99999e-01,1.50913e-01,9.99999e-01
6.992925606e-01,1.56656e-01,9.99999e-01,1.56656e-01,9.99999e-01
7.027890234e-01,1.62498e-01,9.99999e-01,1.62498e-01,9.99999e-01
7.063029686e-01,1.68437e-01,9.99999e-01,1.68437e-01,9.99999e-01
7.098344834e-01,1.74468e-01,9.99999e-01,1.74468e-01,9.99999e-01
7.133836558e-01,1.80590e-01,9.99999e-01,1.80590e-01,9.99999e-01
7.169505741e-01,1.86800e-01,9.99999e-01,1.86800e-01,9.99999e-01
7.205353270e-01,1.93094e-01,9.99999e-01,1.93094e-01,9.99999e-01
7.241380036e-01,1.99470e-01,9.99999e-01,1.99470e-01,9.99999e-01
7.277586936e-01,2.05924e-01,9.99999e-01,2.05924e-01,9.99999e-01
7.313974871e-01,2.12453e-01,9.99999e-01,2.12453e-01,9.99999e-01
7.350544745e-01,2.19053e-01,9.99999e-01,2.19053e-01,9.99999e-01
7.387297469e-01,2.25723e-01,9.99999e-01,2.25723e-01,9.99999e-01
7.424233956e-01,2.32458e-01,9.99999e-01,2.32458e-01,9.99999e-01
7.461355126e-01,2.39255e-01,9.99999e-01,2.39255e-01,9.99999e-01
7.498661902e-01,2.46110e-01,9.99999e-01,2.46110e-01,9.99999e-01
7.536155211e-01,2.53021e-01,9.99999e-01,2.53021e-01,9.99999e-01
7.573835987e-01,2.59983e-01,9.99999e-01,2.59983e-01,9.99999e-01
7.611705167e-01,2.66994e-01,9.99999e-01,2.66994e-01,9.99999e-01
7.649763693e-01,2.74050e-01,9.99999e-01,2.74050e-01,9.99999e-01
7.688012511e-01,2.81147e-01,9.99999e-01,2.81147e-01,9.99999e-01
7.726452574e-01,2.88283e-01,9.99999e-01,2.88283e-01,9.99999e-01
7.765084837e-01,2.95453e-01,9.99999e-01,2.95453e-01,9.99999e-01
7.803910261e-01,2.87064e-01,9.48486e-01,3.02655e-01,9.99999e-01
7.842929812e-01,2.41749e-01,7.80126e-01,3.09885e-01,9.99999e-01
7.882144461e-01,2.43611e-01,7.68150e-01,3.17140e-01,9.99999e-01
7.921555184e-01,2.77371e-01,8.54985e-01,3.24416e-01,9.99999e-01
7.961162960e-01,2.98441e-01,8.99703e-01,3.31710e-01,9.99999e-01
8.000968774e-01,3.20151e-01,9.44341e-01,3.39020e-01,9.99999e-01
8.040973618e-01,3.36191e-01,9.70692e-01,3.46341e-01,9.99999e-01
8.081178486e-01,3.48886e-01,9.86466e-01,3.53672e-01,9.99999e-01
8.121584379e-01,3.59485e-01,9.95782e-01,3.61008e-01,9.99999e-01
8.162192301e-01,3.68003e-01,9.99067e-01,3.68347e-01,9.99999e-01
8.203003262e-01,3.75680e-01,9.99984e-01,3.75685e-01,9.99999e-01
8.244018279e-01,3.83021e-01,9.99999e-01,3.83021e-01,9.99999e-01
8.285238370e-01,3.90351e-01,9.99999e-01,3.90351e-01,9.99999e-01
8.326664562e-01,3.97672e-01,9.99999e-01,3.97672e-01,9.99999e-01
8.368297885e-01,4.04981e-01,9.99999e-01,4.04981e-01,9.99999e-01
8.410139374e-01,4.12277e-01,9.99999e-01,4.12277e-01,9.99999e-01
8.452190071e-01,4.19556e-01,9.99999e-01,4.19556e-01,9.99999e-01
8.494451021e-01,4.26816e-01,9.99999e-01,4.26816e-01,9.99999e-01
8.536923276e-01,4.34055e-01,9.99999e-01,4.34055e-01,9.99999e-01
8.579607893e-01,4.41270e-01,9.99999e-01,4.41270e-01,9.99999e-01
8.622505932e-01,4.48458e-01,9.99999e-01,4.48458e-01,9.99999e-01
8.665618462e-01,4.11439e-01,9.03032e-01,4.55618e-01,9.99999e-01
8.708946554e-01,2.48835e-01,5.37733e-01,4.62748e-01,9.99999e-01
8.752491287e-01,2.82898e-01,6.02108e-01,4.69845e-01,9.99999e-01
8.796253743e-01,3.59762e-01,7.54362e-01,4.76908e-01,9.99999e-01
8.840235012e-01,4.17756e-01,8.63249e-01,4.83934e-01,9.99999e-01
8.884436187e-01,4.63169e-01,9.43467e-01,4.90922e-01,9.99999e-01
8.928858368e-01,4.86280e-01,9.76719e-01,4.97870e-01,9.99999e-01
8.973502660e-01,5.01887e-01,9.94276e-01,5.04776e-01,9.99999e-01
9.018370173e-01,5.11315e-01,9.99366e-01,5.11638e-01,9.99999e-01
9.063462024e-01,5.10288e-01,9.84245e-01,5.18456e-01,9.99999e-01
9.108779334e-01,5.06096e-01,9.63574e-01,5.25227e-01,9.99999e-01
9.154323231e-01,5.27314e-01,9.91285e-01,5.31950e-01,9.99999e-01
9.200094847e-01,4.77678e-01,8.86849e-01,5.38624e-01,9.99999e-01
9.246095321e-01,4.54906e-01,8.34311e-01,5.45247e-01,9.99999e-01
9.292325798e-01,4.79562e-01,8.69057e-01,5.51818e-01,9.99999e-01
9.338787427e-01,4.86897e-01,8.72048e-01,5.58337e-01,9.99999e-01
9.385481364e-01,5.10606e-01,9.04045e-01,5.64801e-01,9.99999e-01
9.432408771e-01,5.36890e-01,9.39914e-01,5.71211e-01,9.99999e-01
9.479570815e-01,5.59513e-01,9.68745e-01,5.77564e-01,9.99999e-01
9.526968669e-01,5.74985e-01,9.84797e-01,5.83861e-01,9.99999e-01
9.574603512e-01,5.86245e-01,9.93467e-01,5.90100e-01,9.99999e-01
9.622476530e-01,5.95062e-01,9.97956e-01,5.96280e-01,9.99999e-01
9.670588912e-01,6.02032e-01,9.99386e-01,6.02401e-01,9.99999e-01
9.718941857e-01,6.08435e-01,9.99955e-01,6.08462e-01,9.99999e-01
9.767536566e-01,6.14462e-01,9.99999e-01,6.14462e-01,9.99999e-01
9.816374249e-01,6.20402e-01,9.99999e-01,6.20402e-01,9.99999e-01
9.865456120e-01,6.26279e-01,9.99999e-01,6.26279e-01,9.99999e-01
9.914783401e-01,6.32095e-01,9.99999e-01,6.32095e-01,9.99999e-01
9.964357318e-01,6.37848e-01,9.99999e-01,6.37848e-01,9.99999e-01
1.001417910e+00,6.43539e-01,9.99999e-01,6.43539e-01,9.99999e-01
1.006425000e+00,6.49166e-01,9.99999e-01,6.49166e-01,9.99999e-01
1.011457125e+00,6.54730e-01,9.99999e-01,6.54730e-01,9.99999e-01
1.016514411e+00,6.60230e-01,9.99999e-01,6.60230e-01,9.99999e-01
1.021596983e+00,6.65614e-01,9.99919e-01,6.65667e-01,9.99999e-01
1.026704968e+00,6.66891e-01,9.93817e-01,6.71040e-01,9.99999e-01
1.031838492e+00,6.35432e-01,9.39504e-01,6.76348e-01,9.99999e-01
1.036997685e+00,6.55601e-02,9.61865e-02,6.81592e-01,9.99999e-01
1.042182673e+00,2.37059e-02,3.45178e-02,6.86773e-01,9.99999e-01
1.047393587e+00,3.89747e-02,5.63308e-02,6.91889e-01,9.99999e-01
1.052630555e+00,1.61736e-04,2.32065e-04,6.96941e-01,9.99999e-01
1.057893707e+00,5.19583e-04,7.40220e-04,7.01929e-01,9.99999e-01
1.063183176e+00,3.30397e-03,4.67418e-03,7.06854e-01,9.99999e-01
1.068499092e+00,1.50494e-02,2.11453e-02,7.11714e-01,9.99999e-01
1.073841587e+00,6.15820e-02,8.59470e-02,7.16511e-01,9.99999e-01
1.079210795e+00,1.52609e-01,2.11591e-01,7.21245e-01,9.99999e-01
1.084606849e+00,3.05620e-01,4.21013e-01,7.25915e-01,9.99999e-01
1.090029883e+00,4.65596e-01,6.37346e-01,7.30523e-01,9.99999e-01
1.095480033e+00,5.88488e-01,8.00589e-01,7.35067e-01,9.99999e-01
1.100957433e+00,6.64289e-01,8.98233e-01,7.39550e-01,9.99999e-01
1.106462220e+00,7.11637e-01,9.56538e-01,7.43971e-01,9.99999e-01
1.111994531e+00,7.36102e-01,9.83660e-01,7.48329e-01,9.99999e-01
1.117554504e+00,7.49600e-01,9.95977e-01,7.52627e-01,9.99999e-01
1.123142276e+00,7.56663e-01,9.99734e-01,7.56864e-01,9.99999e-01
1.128757988e+00,7.61040e-01,9.99999e-01,7.61040e-01,9.99999e-01
1.134401778e+00,7.65156e-01,9.99999e-01,7.65156e-01,9.99999e-01
1.140073787e+00,7.69212e-01,9.99999e-01,7.69212e-01,9.99999e-01
1.145774156e+00,7.73209e-01,9.99999e-01,7.73209e-01,9.99999e-01
1.151503026e+00,7.77147e-01,9.99999e-01,7.77147e-01,9.99999e-01
1.157260541e+00,7.81027e-01,9.99999e-01,7.81027e-01,9.99999e-01
1.163046844e+00,7.84849e-01,9.99999e-01,7.84849e-01,9.99999e-01
1.168862078e+00,7.88614e-01,9.99999e-01,7.88614e-01,9.99999e-01
1.174706389e+00,7.92322e-01,9.99999e-01,7.92322e-01,9.99999e-01
1.180579921e+00,7.95973e-01,9.99999e-01,7.95973e-01,9.99999e-01
1.186482820e+00,7.99562e-01,9.99990e-01,7.99569e-01,9.99999e-01
1.192415234e+00,7.85753e-01,9.78387e-01,8.03110e-01,9.99999e-01
1.198377311e+00,4.41103e-01,5.46869e-01,8.06596e-01,9.99999e-01
1.204369197e+00,2.90542e-17,3.58682e-17,8.10027e-01,9.99999e-01
1.210391043e+00,9.44988e-67,1.16177e-66,8.13405e-01,9.99999e-01
1.216442998e+00,6.67177e-58,8.16887e-58,8.16730e-01,9.99999e-01
1.222525213e+00,4.76696e-57,5.81334e-57,8.20003e-01,9.99999e-01
1.228637839e+00,3.78126e-44,4.59323e-44,8.23223e-01,9.99999e-01
1.234781029e+00,6.47832e-28,7.83927e-28,8.26392e-01,9.99999e-01
1.240954934e+00,1.03327e-18,1.24564e-18,8.29511e-01,9.99999e-01
1.247159708e+00,1.27024e-09,1.52566e-09,8.32579e-01,9.99999e-01
1.253395507e+00,2.01241e-06,2.40834e-06,8.35598e-01,9.99999e-01
1.259662485e+00,5.03787e-04,6.00770e-04,8.38568e-01,9.99999e-01
1.265960797e+00,1.21609e-02,1.44516e-02,8.41489e-01,9.99999e-01
1.272290601e+00,1.13957e-01,1.34962e-01,8.44362e-01,9.99999e-01
1.278652054e+00,1.13357e-01,1.33803e-01,8.47189e-01,9.99999e-01
1.285045314e+00,1.06942e-03,1.25819e-03,8.49968e-01,9.99999e-01
1.291470541e+00,2.17736e-08,2.55348e-08,8.52702e-01,9.99999e-01
1.297927893e+00,3.56169e-04,4.16382e-04,8.55390e-01,9.99999e-01
1.304417533e+00,2.84553e-02,3.31633e-02,8.58033e-01,9.99999e-01
1.310939621e+00,6.84366e-03,7.95189e-03,8.60632e-01,9.99999e-01
1.317494319e+00,3.15182e-23,3.65138e-23,8.63187e-01,9.99999e-01
1.324081790e+00,1.32583e-15,1.53151e-15,8.65699e-01,9.99999e-01
1.330702199e+00,2.96259e-09,3.41245e-09,8.68169e-01,9.99999e-01
1.337355710e+00,9.48301e-09,1.08925e-08,8.70596e-01,9.99999e-01
1.344042489e+00,3.62685e-09,4.15455e-09,8.72983e-01,9.99999e-01
1.350762701e+00,1.62639e-09,1.85804e-09,8.75328e-01,9.99999e-01
1.357516515e+00,3.37870e-06,3.84978e-06,8.77633e-01,9.99999e-01
1.364304097e+00,1.81329e-04,2.06079e-04,8.79899e-01,9.99999e-01
1.371125618e+00,1.11371e-02,1.26253e-02,8.82126e-01,9.99999e-01
1.377981246e+00,2.23305e-02,2.52518e-02,8.84314e-01,9.99999e-01
1.384871152e+00,1.04180e-01,1.17523e-01,8.86464e-01,9.99999e-01
1.391795508e+00,1.22695e-01,1.38080e-01,8.88576e-01,9.99999e-01
1.398754485e+00,2.60322e-01,2.92283e-01,8.90652e-01,9.99999e-01
1.405748258e+00,3.62009e-01,4.05524e-01,8.92692e-01,9.99999e-01
1.412776999e+00,5.04908e-01,5.64334e-01,8.94696e-01,9.99999e-01
1.419840884e+00,4.56645e-01,5.09270e-01,8.96664e-01,9.99999e-01
1.426940089e+00,2.83282e-02,3.15249e-02,8.98598e-01,9.99999e-01
1.434074789e+00,0.00000e+00,0.00000e+00,9.00498e-01,9.99999e-01
1.441245163e+00,0.00000e+00,0.00000e+00,9.02364e-01,9.99999e-01
1.448451389e+00,0.00000e+00,0.00000e+00,9.04197e-01,9.99999e-01
1.455693646e+00,0.00000e+00,0.00000e+00,9.05997e-01,9.99999e-01
1.462972114e+00,4.65126e-264,5.12385e-264,9.07766e-01,9.99999e-01
1.470286975e+00,5.60129e-110,6.15862e-110,9.09503e-01,9.99999e-01
1.477638409e+00,2.30274e-69,2.52712e-69,9.11208e-01,9.99999e-01
1.485026601e+00,6.45047e-39,7.06603e-39,9.12883e-01,9.99999e-01
1.492451734e+00,3.58970e-33,3.92519e-33,9.14528e-01,9.99999e-01
1.499913993e+00,8.35944e-15,9.12459e-15,9.16144e-01,9.99999e-01
1.507413563e+00,1.45035e-13,1.58037e-13,9.17730e-01,9.99999e-01
1.514950631e+00,5.38135e-15,5.85382e-15,9.19288e-01,9.99999e-01
1.522525384e+00,1.69807e-49,1.84408e-49,9.20817e-01,9.99999e-01
1.530138011e+00,2.57305e-117,2.78977e-117,9.22319e-01,9.99999e-01
1.537788701e+00,5.99844e-87,6.49326e-87,9.23793e-01,9.99999e-01
1.545477645e+00,7.26006e-19,7.84667e-19,9.25240e-01,9.99999e-01
1.553205033e+00,1.28225e-13,1.38373e-13,9.26662e-01,9.99999e-01
1.560971058e+00,4.91501e-14,5.29601e-14,9.28057e-01,9.99999e-01
1.568775913e+00,2.25494e-296,2.42616e-296,9.29426e-01,9.99999e-01
1.576619793e+00,0.00000e+00,0.00000e+00,9.30771e-01,9.99999e-01
1.584502892e+00,0.00000e+00,0.00000e+00,9.32091e-01,9.99999e-01
1.592425406e+00,3.59922e-264,3.85608e-264,9.33387e-01,9.99999e-01
1.600387533e+00,0.00000e+00,0.00000e+00,9.34658e-01,9.99999e-01
1.608389471e+00,0.00000e+00,0.00000e+00,9.35907e-01,9.99999e-01
1.616431418e+00,0.00000e+00,0.00000e+00,9.37132e-01,9.99999e-01
1.624513575e+00,0.00000e+00,0.00000e+00,9.38335e-01,9.99999e-01
1.632636143e+00,3.20632e-249,3.41274e-249,9.39515e-01,9.99999e-01
1.640799324e+00,6.17737e-102,6.56696e-102,9.40674e-01,9.99999e-01
1.649003321e+00,6.18596e-102,6.56815e-102,9.41811e-01,9.99999e-01
1.657248337e+00,6.50496e-79,6.89869e-79,9.42927e-01,9.99999e-01
1.665534579e+00,1.95046e-79,2.06612e-79,9.44022e-01,9.99999e-01
1.673862252e+00,7.12311e-51,7.53691e-51,9.45097e-01,9.99999e-01
1.682231563e+00,2.03979e-35,2.15588e-35,9.46151e-01,9.99999e-01
1.690642721e+00,5.85803e-20,6.18465e-20,9.47186e-01,9.99999e-01
1.699095934e+00,7.30287e-13,7.70180e-13,9.48202e-01,9.99999e-01
1.707591414e+00,5.71755e-07,6.02355e-07,9.49199e-01,9.99999e-01
1.716129371e+00,2.54304e-04,2.67639e-04,9.50177e-01,9.99999e-01
1.724710018e+00,9.07018e-03,9.53614e-03,9.51136e-01,9.99999e-01
1.733333568e+00,4.48298e-02,4.70862e-02,9.52078e-01,9.99999e-01
1.742000236e+00,1.58399e-01,1.66210e-01,9.53002e-01,9.99999e-01
1.750710237e+00,1.67756e-03,1.75862e-03,9.53908e-01,9.99999e-01
1.759463788e+00,1.40613e-48,1.47270e-48,9.54798e-01,9.99999e-01
1.768261107e+00,7.59910e-51,7.95158e-51,9.55671e-01,9.99999e-01
1.777102413e+00,2.14835e-49,2.24599e-49,9.56527e-01,9.99999e-01
1.785987925e+00,1.92547e-46,2.01121e-46,9.57367e-01,9.99999e-01
1.794917864e+00,2.35150e-44,2.45410e-44,9.58191e-01,9.99999e-01
1.803892454e+00,1.11251e-42,1.16007e-42,9.59000e-01,9.99999e-01
1.812911916e+00,5.30717e-41,5.52949e-41,9.59793e-01,9.99999e-01
1.821976476e+00,4.44164e-41,4.62395e-41,9.60572e-01,9.99999e-01
1.831086358e+00,4.18527e-33,4.35360e-33,9.61335e-01,9.99999e-01
1.840241790e+00,3.19172e-28,3.31750e-28,9.62084e-01,9.99999e-01
1.849442999e+00,1.13372e-19,1.17750e-19,9.62819e-01,9.99999e-01
1.858690214e+00,1.97370e-18,2.04839e-18,9.63540e-01,9.99999e-01
1.867983665e+00,4.26346e-19,4.42154e-19,9.64247e-01,9.99999e-01
1.877323583e+00,2.33882e-92,2.42380e-92,9.64941e-01,9.99999e-01
