#,Wave/freq,Total,CO2,Rayleigh,CIA
4.000000000e-01,2.39819e-27,9.99999e-01,2.39819e-27,9.99999e-01
4.020000000e-01,8.05836e-27,9.99999e-01,8.05836e-27,9.99999e-01
4.040100000e-01,2.64036e-26,9.99999e-01,2.64036e-26,9.99999e-01
4.060300500e-01,8.45082e-26,9.99999e-01,8.45082e-26,9.99999e-01
4.080602003e-01,2.64335e-25,9.99999e-01,2.64335e-25,9.99999e-01
4.101005013e-01,8.08403e-25,9.99999e-01,8.08403e-25,9.99999e-01
4.121510038e-01,2.41831e-24,9.99999e-01,2.41831e-24,9.99999e-01
4.142117588e-01,7.07939e-24,9.99999e-01,7.07939e-24,9.99999e-01
4.162828176e-01,2.02893e-23,9.99999e-01,2.02893e-23,9.99999e-01
4.183642317e-01,5.69513e-23,9.99999e-01,5.69513e-23,9.99999e-01
4.204560528e-01,1.56635e-22,9.99999e-01,1.56635e-22,9.99999e-01
4.225583331e-01,4.22272e-22,9.99999e-01,4.22272e-22,9.99999e-01
4.246711247e-01,1.11632e-21,9.99999e-01,1.11632e-21,9.99999e-01
4.267944804e-01,2.89500e-21,9.99999e-01,2.89500e-21,9.99999e-01
4.289284528e-01,7.36769e-21,9.99999e-01,7.36769e-21,9.99999e-01
4.310730950e-01,1.84078e-20,9.99999e-01,1.84078e-20,9.99999e-01
4.332284605e-01,4.51665e-20,9.99999e-01,4.51665e-20,9.99999e-01
4.353946028e-01,1.08876e-19,9.99999e-01,1.08876e-19,9.99999e-01
4.375715758e-01,2.57929e-19,9.99999e-01,2.57929e-19,9.99999e-01
4.397594337e-01,6.00715e-19,9.99999e-01,6.00715e-19,9.99999e-01
4.419582309e-01,1.37589e-18,9.99999e-01,1.37589e-18,9.99999e-01
4.441680220e-01,3.10022e-18,9.99999e-01,3.10022e-18,9.99999e-01
4.463888621e-01,6.87433e-18,9.99999e-01,6.87433e-18,9.99999e-01
4.486208064e-01,1.50051e-17,9.99999e-01,1.50051e-17,9.99999e-01
4.508639105e-01,3.22514e-17,9.99999e-01,3.22514e-17,9.99999e-01
4.531182300e-01,6.82804e-17,9.99999e-01,6.82804e-17,9.99999e-01
4.553838212e-01,1.42432e-16,9.99999e-01,1.42432e-16,9.99999e-01
4.576607403e-01,2.92829e-16,9.99999e-01,2.92829e-16,9.99999e-01
4.599490440e-01,5.93522e-16,9.99999e-01,5.93522e-16,9.99999e-01
4.622487892e-01,1.18631e-15,9.99999e-01,1.18631e-15,9.99999e-01
4.645600332e-01,2.33895e-15,9.99999e-01,2.33895e-15,9.99999e-01
4.668828333e-01,4.55008e-15,9.99999e-01,4.55008e-15,9.99999e-01
4.692172475e-01,8.73592e-15,9.99999e-01,8.73592e-15,9.99999e-01
4.715633337e-01,1.65578e-14,9.99999e-01,1.65578e-14,9.99999e-01
4.739211504e-01,3.09893e-14,9.99999e-01,3.09893e-14,9.99999e-01
4.762907561e-01,5.72853e-14,9.99999e-01,5.72853e-14,9.99999e-01
4.786722099e-01,1.04618e-13,9.99999e-01,1.04618e-13,9.99999e-01
4.810655710e-01,1.88799e-13,9.99999e-01,1.88799e-13,9.99999e-01
4.834708988e-01,3.36768e-13,9.99999e-01,3.36768e-13,9.99999e-01
4.858882533e-01,5.93877e-13,9.99999e-01,5.93877e-13,9.99999e-01
4.883176946e-01,1.03561e-12,9.99999e-01,1.03561e-12,9.99999e-01
4.907592831e-01,1.78618e-12,9.99999e-01,1.78618e-12,9.99999e-01
4.932130795e-01,3.04775e-12,9.99999e-01,3.04775e-12,9.99999e-01
4.956791449e-01,5.14576e-12,9.99999e-01,5.14576e-12,9.99999e-01
4.981575406e-01,8.59857e-12,9.99999e-01,8.59857e-12,9.99999e-01
5.006483283e-01,1.42232e-11,9.99999e-01,1.42232e-11,9.99999e-01
5.031515699e-01,2.32945e-11,9.99999e-01,2.32945e-11,9.99999e-01
5.056673278e-01,3.77813e-11,9.99999e-01,3.77813e-11,9.99999e-01
5.081956644e-01,6.06948e-11,9.99999e-01,6.06948e-11,9.99999e-01
5.107366428e-01,9.65961e-11,9.99999e-01,9.65961e-11,9.99999e-01
5.132903260e-01,1.52329e-10,9.99999e-01,1.52329e-10,9.99999e-01
5.158567776e-01,2.38065e-10,9.99999e-01,2.38065e-10,9.99999e-01
5.184360615e-01,3.68791e-10,9.99999e-01,3.68791e-10,9.99999e-01
5.210282418e-01,5.66382e-10,9.99999e-01,5.66382e-10,9.99999e-01
5.236333830e-01,8.62499e-10,9.99999e-01,8.62499e-10,9.99999e-01
5.262515499e-01,1.30257e-09,9.99999e-01,1.30257e-09,9.99999e-01
5.288828077e-01,1.95121e-09,9.99999e-01,1.95121e-09,9.99999e-01
5.315272217e-01,2.89963e-09,9.99999e-01,2.89963e-09,9.99999e-01
5.341848578e-01,4.27545e-09,9.99999e-01,4.27545e-09,9.99999e-01
5.368557821e-01,6.25592e-09,9.99999e-01,6.25592e-09,9.99999e-01
5.395400610e-01,9.08521e-09,9.99999e-01,9.08521e-09,9.99999e-01
5.422377613e-01,1.30972e-08,9.99999e-01,1.30972e-08,9.99999e-01
5.449489501e-01,1.87449e-08,9.99999e-01,1.87449e-08,9.99999e-01
5.476736949e-01,2.66387e-08,9.99999e-01,2.66387e-08,9.99999e-01
5.504120634e-01,3.75948e-08,9.99999e-01,3.75948e-08,9.99999e-01
5.531641237e-01,5.26971e-08,9.99999e-01,5.26971e-08,9.99999e-01
5.559299443e-01,7.33753e-08,9.99999e-01,7.33753e-08,9.99999e-01
5.587095940e-01,1.01502e-07,9.99999e-01,1.01502e-07,9.99999e-01
5.615031420e-01,1.39512e-07,9.99999e-01,1.39512e-07,9.99999e-01
5.643106577e-01,1.90556e-07,9.99999e-01,1.90556e-07,9.99999e-01
5.671322110e-01,2.58678e-07,9.99999e-01,2.58678e-07,9.99999e-01
5.699678720e-01,3.49039e-07,9.99999e-01,3.49039e-07,9.99999e-01
5.728177114e-01,4.68185e-07,9.99999e-01,4.68185e-07,9.99999e-01
5.756818000e-01,6.24371e-07,9.99999e-01,6.24371e-07,9.99999e-01
5.785602090e-01,8.27939e-07,9.99999e-01,8.27939e-07,9.99999e-01
5.814530100e-01,1.09177e-06,9.99999e-01,1.09177e-06,9.99999e-01
5.843602750e-01,1.43184e-06,9.99999e-01,1.43184e-06,9.99999e-01
5.872820764e-01,1.86780e-06,9.99999e-01,1.86780e-06,9.99999e-01
5.902184868e-01,2.42374e-06,9.99999e-01,2.42374e-06,9.99999e-01
5.931695792e-01,3.12900e-06,9.99999e-01,3.12900e-06,9.99999e-01
5.961354271e-01,4.01916e-06,9.99999e-01,4.01916e-06,9.99999e-01
5.991161043e-01,5.13709e-06,9.99999e-01,5.13709e-06,9.99999e-01
6.021116848e-01,6.53421e-06,9.99999e-01,6.53421e-06,9.99999e-01
6.051222432e-01,8.27192e-06,9.99999e-01,8.27192e-06,9.99999e-01
6.081478544e-01,1.04231e-05,9.99999e-01,1.04231e-05,9.99999e-01
6.111885937e-01,1.30738e-05,9.99999e-01,1.30738e-05,9.99999e-01
6.142445367e-01,1.63255e-05,9.99999e-01,1.63255e-05,9.99999e-01
6.173157594e-01,2.02966e-05,9.99999e-01,2.02966e-05,9.99999e-01
6.204023382e-01,2.51254e-05,9.99999e-01,2.51254e-05,9.99999e-01
6.235043498e-01,3.09723e-05,9.99999e-01,3.09723e-05,9.99999e-01
6.266218716e-01,3.80222e-05,9.99999e-01,3.80222e-05,9.99999e-01
6.297549810e-01,4.64882e-05,9.99999e-01,4.64882e-05,9.99999e-01
6.329037559e-01,5.66139e-05,9.99999e-01,5.66139e-05,9.99999e-01
6.360682746e-01,6.86774e-05,9.99999e-01,6.86774e-05,9.99999e-01
6.392486160e-01,8.29940e-05,9.99999e-01,8.29940e-05,9.99999e-01
6.424448591e-01,9.99208e-05,9.99999e-01,9.99208e-05,9.99999e-01
6.456570834e-01,1.19859e-04,9.99999e-01,1.19859e-04,9.99999e-01
6.488853688e-01,1.43261e-04,9.99999e-01,1.43261e-04,9.99999e-01
6.521297956e-01,1.70630e-04,9.99999e-01,1.70630e-04,9.99999e-01
6.553904446e-01,2.02526e-04,9.99999e-01,2.02526e-04,9.99999e-01
6.586673968e-01,2.39572e-04,9.99999e-01,2.39572e-04,9.99999e-01
6.619607338e-01,2.82457e-04,9.99999e-01,2.82457e-04,9.99999e-01
6.652705375e-01,3.31936e-04,9.99999e-01,3.31936e-04,9.99999e-01
6.685968902e-01,3.88841e-04,9.99999e-01,3.88841e-04,9.99999e-01
6.719398746e-01,4.54080e-04,9.99999e-01,4.54080e-04,9.99999e-01
6.752995740e-01,5.28643e-04,9.99999e-01,5.28643e-04,9.99999e-01
6.786760719e-01,6.13604e-04,9.99999e-01,6.13604e-04,9.99999e-01
6.820694522e-01,7.10126e-04,9.99999e-01,7.10126e-04,9.99999e-01
6.854797995e-01,8.19463e-04,9.99999e-01,8.19463e-04,9.99999e-01
6.889071985e-01,9.42963e-04,9.99999e-01,9.42963e-04,9.99999e-01
6.923517345e-01,1.08207e-03,9.99999e-01,1.08207e-03,9.99999e-01
6.958134932e-01,1.23833e-03,9.99999e-01,1.23833e-03,9.99999e-01
6.992925606e-01,1.41338e-03,9.99999e-01,1.41338e-03,9.99999e-01
7.027890234e-01,1.60898e-03,9.99999e-01,1.60898e-03,9.99999e-01
7.063029686e-01,1.82695e-03,9.99999e-01,1.82695e-03,9.99999e-01
7.098344834e-01,2.06926e-03,9.99999e-01,2.06926e-03,9.99999e-01
7.133836558e-01,2.33794e-03,9.99999e-01,2.33794e-03,9.99999e-01
7.169505741e-01,2.63516e-03,9.99999e-01,2.63516e-03,9.99999e-01
7.205353270e-01,2.96314e-03,9.99999e-01,2.96314e-03,9.99999e-01
7.241380036e-01,3.32423e-03,9.99999e-01,3.32423e-03,9.99999e-01
7.277586936e-01,3.72086e-03,9.99999e-01,3.72086e-03,9.99999e-01
7.313974871e-01,4.15556e-03,9.99999e-01,4.15556e-03,9.99999e-01
7.350544745e-01,4.63092e-03,9.99999e-01,4.63092e-03,9.99999e-01
7.387297469e-01,5.14963e-03,9.99999e-01,5.14963e-03,9.99999e-01
7.424233956e-01,5.71445e-03,9.99999e-01,5.71445e-03,9.99999e-01
7.461355126e-01,6.32819e-03,9.99999e-01,6.32819e-03,9.99999e-01
7.498661902e-01,6.99375e-03,9.99999e-01,6.99375e-03,9.99999e-01
7.536155211e-01,7.71404e-03,9.99999e-01,7.71404e-03,9.99999e-01
7.573835987e-01,8.49207e-03,9.99999e-01,8.49207e-03,9.99999e-01
7.611705167e-01,9.33084e-03,9.99999e-01,9.33084e-03,9.99999e-01
7.649763693e-01,1.02334e-02,9.99999e-01,1.02334e-02,9.99999e-01
7.688012511e-01,1.12028e-02,9.99999e-01,1.12028e-02,9.99999e-01
7.726452574e-01,1.22421e-02,9.99999e-01,1.22421e-02,9.99999e-01
7.765084837e-01,1.33545e-02,9.99999e-01,1.33545e-02,9.99999e-01
7.803910261e-01,1.26262e-02,8.68206e-01,1.45429e-02,9.99999e-01
7.842929812e-01,7.08453e-03,4.48093e-01,1.58104e-02,9.99999e-01
7.882144461e-01,7.47798e-03,4.35779e-01,1.71600e-02,9.99999e-01
7.921555184e-01,1.08718e-02,5.84671e-01,1.85948e-02,9.99999e-01
7.961162960e-01,1.38938e-02,6.90632e-01,2.01175e-02,9.99999e-01
8.000968774e-01,1.77711e-02,8.17767e-01,2.17312e-02,9.99999e-01
8.040973618e-01,2.11016e-02,9.00296e-01,2.34385e-02,9.99999e-01
8.081178486e-01,2.40552e-02,9.52973e-01,2.52422e-02,9.99999e-01
8.121584379e-01,2.67414e-02,9.85132e-01,2.71450e-02,9.99999e-01
8.162192301e-01,2.90530e-02,9.96695e-01,2.91493e-02,9.99999e-01
8.203003262e-01,3.12559e-02,9.99945e-01,3.12576e-02,9.99999e-01
8.244018279e-01,3.34722e-02,9.99999e-01,3.34722e-02,9.99999e-01
8.285238370e-01,3.57952e-02,9.99999e-01,3.57952e-02,9.99999e-01
8.326664562e-01,3.82288e-02,9.99999e-01,3.82288e-02,9.99999e-01
8.368297885e-01,4.07748e-02,9.99999e-01,4.07748e-02,9.99999e-01
8.410139374e-01,4.34350e-02,9.99999e-01,4.34350e-02,9.99999e-01
8.452190071e-01,4.62111e-02,9.99999e-01,4.62111e-02,9.99999e-01
8.494451021e-01,4.91044e-02,9.99999e-01,4.91044e-02,9.99999e-01
8.536923276e-01,5.21164e-02,9.99999e-01,5.21164e-02,9.99999e-01
8.579607893e-01,5.52481e-02,9.99999e-01,5.52481e-02,9.99999e-01
8.622505932e-01,5.85005e-02,9.99999e-01,5.85005e-02,9.99999e-01
8.665618462e-01,5.17252e-02,8.35970e-01,6.18744e-02,9.99999e-01
8.708946554e-01,9.73589e-03,1.48934e-01,6.53705e-02,9.99999e-01
8.752491287e-01,1.31105e-02,1.90037e-01,6.89892e-02,9.99999e-01
8.796253743e-01,2.82447e-02,3.88346e-01,7.27307e-02,9.99999e-01
8.840235012e-01,4.60419e-02,6.01106e-01,7.65952e-02,9.99999e-01
8.884436187e-01,6.56811e-02,8.15077e-01,8.05826e-02,9.99999e-01
8.928858368e-01,7.79327e-02,9.20181e-01,8.46927e-02,9.99999e-01
8.973502660e-01,8.71352e-02,9.79873e-01,8.89250e-02,9.99999e-01
9.018370173e-01,9.30696e-02,9.97756e-01,9.32788e-02,9.99999e-01
9.063462024e-01,9.26416e-02,9.47706e-01,9.77535e-02,9.99999e-01
9.108779334e-01,8.98311e-02,8.77701e-01,1.02348e-01,9.99999e-01
9.154323231e-01,1.03803e-01,9.69562e-01,1.07061e-01,9.99999e-01
9.200094847e-01,8.05107e-02,7.19537e-01,1.11892e-01,9.99999e-01
9.246095321e-01,6.22723e-02,5.32974e-01,1.16839e-01,9.99999e-01
9.292325798e-01,7.59948e-02,6.23415e-01,1.21901e-01,9.99999e-01
9.338787427e-01,7.93769e-02,6.24646e-01,1.27075e-01,9.99999e-01
9.385481364e-01,9.31170e-02,7.03513e-01,1.32360e-01,9.99999e-01
9.432408771e-01,1.10700e-01,8.03604e-01,1.37754e-01,9.99999e-01
9.479570815e-01,1.28051e-01,8.93870e-01,1.43255e-01,9.99999e-01
9.526968669e-01,1.41025e-01,9.47368e-01,1.48860e-01,9.99999e-01
9.574603512e-01,1.51025e-01,9.77079e-01,1.54567e-01,9.99999e-01
9.622476530e-01,1.59217e-01,9.92783e-01,1.60374e-01,9.99999e-01
9.670588912e-01,1.65917e-01,9.97828e-01,1.66278e-01,9.99999e-01
9.718941857e-01,1.72250e-01,9.99843e-01,1.72276e-01,9.99999e-01
9.767536566e-01,1.78366e-01,9.99999e-01,1.78366e-01,9.99999e-01
9.816374249e-01,1.84544e-01,9.99999e-01,1.84544e-01,9.99999e-01
9.865456120e-01,1.90808e-01,9.99999e-01,1.90808e-01,9.99999e-01
9.914783401e-01,1.97155e-01,9.99999e-01,1.97155e-01,9.99999e-01
9.964357318e-01,2.03580e-01,9.99999e-01,2.03580e-01,9.99999e-01
1.001417910e+00,2.10083e-01,9.99999e-01,2.10083e-01,9.99999e-01
1.006425000e+00,2.16658e-01,9.99999e-01,2.16658e-01,9.99999e-01
1.011457125e+00,2.23303e-01,9.99999e-01,2.23303e-01,9.99999e-01
1.016514411e+00,2.30015e-01,9.99999e-01,2.30015e-01,9.99999e-01
1.021596983e+00,2.36725e-01,9.99725e-01,2.36790e-01,9.99999e-01
1.026704968e+00,2.38434e-01,9.78693e-01,2.43624e-01,9.99999e-01
1.031838492e+00,2.16108e-01,8.62654e-01,2.50515e-01,9.99999e-01
1.036997685e+00,5.71534e-03,2.21990e-02,2.57459e-01,9.99999e-01
1.042182673e+00,3.65928e-05,1.38371e-04,2.64453e-01,9.99999e-01
1.047393587e+00,1.02589e-04,3.77870e-04,2.71493e-01,9.99999e-01
1.052630555e+00,2.24668e-11,8.06487e-11,2.78576e-01,9.99999e-01
1.057893707e+00,8.33733e-11,2.91823e-10,2.85698e-01,9.99999e-01
1.063183176e+00,4.79239e-08,1.63643e-07,2.92856e-01,9.99999e-01
1.068499092e+00,1.46643e-06,4.88732e-06,3.00047e-01,9.99999e-01
1.073841587e+00,9.11088e-05,2.96513e-04,3.07267e-01,9.99999e-01
1.079210795e+00,2.05432e-03,6.53174e-03,3.14513e-01,9.99999e-01
1.084606849e+00,1.70148e-02,5.28766e-02,3.21782e-01,9.99999e-01
1.090029883e+00,6.96913e-02,2.11782e-01,3.29070e-01,9.99999e-01
1.095480033e+00,1.55329e-01,4.61774e-01,3.36375e-01,9.99999e-01
1.100957433e+00,2.35790e-01,6.86049e-01,3.43692e-01,9.99999e-01
1.106462220e+00,3.00141e-01,8.55053e-01,3.51020e-01,9.99999e-01
1.111994531e+00,3.38085e-01,9.43439e-01,3.58354e-01,9.99999e-01
1.117554504e+00,3.60512e-01,9.85832e-01,3.65692e-01,9.99999e-01
1.123142276e+00,3.72680e-01,9.99058e-01,3.73031e-01,9.99999e-01
1.128757988e+00,3.80368e-01,9.99999e-01,3.80368e-01,9.99999e-01
1.134401778e+00,3.87701e-01,9.99999e-01,3.87701e-01,9.99999e-01
1.140073787e+00,3.95025e-01,9.99999e-01,3.95025e-01,9.99999e-01
1.145774156e+00,4.02339e-01,9.99999e-01,4.02339e-01,9.99999e-01
1.151503026e+00,4.09640e-01,9.99999e-01,4.09640e-01,9.99999e-01
1.157260541e+00,4.16926e-01,9.99999e-01,4.16926e-01,9.99999e-01
1.163046844e+00,4.24193e-01,9.99999e-01,4.24193e-01,9.99999e-01
1.168862078e+00,4.31439e-01,9.99999e-01,4.31439e-01,9.99999e-01
1.174706389e+00,4.38663e-01,9.99999e-01,4.38663e-01,9.99999e-01
1.180579921e+00,4.45861e-01,9.99999e-01,4.45861e-01,9.99999e-01
1.186482820e+00,4.53018e-01,9.99969e-01,4.53032e-01,9.99999e-01
1.192415234e+00,4.28607e-01,9.31404e-01,4.60173e-01,9.99999e-01
1.198377311e+00,2.20047e-01,4.70907e-01,4.67282e-01,9.99999e-01
1.204369197e+00,2.29177e-55,4.83131e-55,4.74358e-01,9.99999e-01
1.210391043e+00,1.75330e-230,3.64209e-230,4.81397e-01,9.99999e-01
1.216442998e+00,3.63215e-199,7.43684e-199,4.88399e-01,9.99999e-01
1.222525213e+00,3.78889e-196,7.64872e-196,4.95362e-01,9.99999e-01
1.228637839e+00,7.15104e-151,1.42370e-150,5.02283e-01,9.99999e-01
1.234781029e+00,4.62614e-93,9.08580e-93,5.09162e-01,9.99999e-01
1.240954934e+00,3.67312e-61,7.11850e-61,5.15996e-01,9.99999e-01
1.247159708e+00,2.43522e-28,4.65817e-28,5.22783e-01,9.99999e-01
1.253395507e+00,2.58687e-19,4.88527e-19,5.29524e-01,9.99999e-01
1.259662485e+00,1.09674e-11,2.04533e-11,5.36216e-01,9.99999e-01
1.265960797e+00,2.72300e-06,5.01604e-06,5.42857e-01,9.99999e-01
1.272290601e+00,8.46765e-04,1.54112e-03,5.49448e-01,9.99999e-01
1.278652054e+00,1.44338e-03,2.59607e-03,5.55986e-01,9.99999e-01
1.285045314e+00,3.93838e-08,7.00193e-08,5.62470e-01,9.99999e-01
1.291470541e+00,7.47742e-26,1.31437e-25,5.68899e-01,9.99999e-01
1.297927893e+00,3.75703e-10,6.53086e-10,5.75273e-01,9.99999e-01
1.304417533e+00,6.99989e-06,1.20358e-05,5.81590e-01,9.99999e-01
1.310939621e+00,2.37375e-06,4.03802e-06,5.87850e-01,9.99999e-01
1.317494319e+00,4.69160e-77,7.89762e-77,5.94051e-01,9.99999e-01
1.324081790e+00,7.47921e-50,1.24613e-49,6.00194e-01,9.99999e-01
1.330702199e+00,1.26114e-29,2.08014e-29,6.06277e-01,9.99999e-01
1.337355710e+00,1.38104e-26,2.25550e-26,6.12299e-01,9.99999e-01
1.344042489e+00,9.64327e-27,1.55974e-26,6.18261e-01,9.99999e-01
1.350762701e+00,5.11798e-30,8.19977e-30,6.24161e-01,9.99999e-01
1.357516515e+00,2.04710e-17,3.24936e-17,6.29999e-01,9.99999e-01
1.364304097e+00,5.29293e-13,8.32515e-13,6.35775e-01,9.99999e-01
1.371125618e+00,4.69338e-07,7.31639e-07,6.41488e-01,9.99999e-01
1.377981246e+00,2.85265e-06,4.40809e-06,6.47138e-01,9.99999e-01
1.384871152e+00,4.48611e-04,6.87289e-04,6.52725e-01,9.99999e-01
1.391795508e+00,8.82902e-04,1.34129e-03,6.58248e-01,9.99999e-01
1.398754485e+00,8.87766e-03,1.33758e-02,6.63708e-01,9.99999e-01
1.405748258e+00,3.00126e-02,4.48549e-02,6.69104e-01,9.99999e-01
1.412776999e+00,9.17394e-02,1.36024e-01,6.74436e-01,9.99999e-01
1.419840884e+00,1.01102e-01,1.48744e-01,6.79703e-01,9.99999e-01
1.426940089e+00,2.36429e-03,3.45198e-03,6.84907e-01,9.99999e-01
1.434074789e+00,0.00000e+00,0.00000e+00,6.90046e-01,9.99999e-01
1.441245163e+00,0.00000e+00,0.00000e+00,6.95121e-01,9.99999e-01
1.448451389e+00,0.00000e+00,0.00000e+00,7.00133e-01,9.99999e-01
1.455693646e+00,0.00000e+00,0.00000e+00,7.05080e-01,9.99999e-01
1.462972114e+00,0.00000e+00,0.00000e+00,7.09963e-01,9.99999e-01
1.470286975e+00,0.00000e+00,0.00000e+00,7.14783e-01,9.99999e-01
1.477638409e+00,1.06348e-239,1.47799e-239,7.19540e-01,9.99999e-01
1.485026601e+00,5.35612e-132,7.39557e-132,7.24233e-01,9.99999e-01
1.492451734e+00,3.91620e-112,5.37301e-112,7.28863e-01,9.99999e-01
1.499913993e+00,9.69567e-47,1.32196e-46,7.33431e-01,9.99999e-01
1.507413563e+00,2.26549e-45,3.07003e-45,7.37936e-01,9.99999e-01
1.514950631e+00,2.41642e-47,3.25496e-47,7.42379e-01,9.99999e-01
1.522525384e+00,2.03703e-169,2.72782e-169,7.46760e-01,9.99999e-01
1.530138011e+00,0.00000e+00,0.00000e+00,7.51080e-01,9.99999e-01
1.537788701e+00,5.65482e-302,7.48647e-302,7.55338e-01,9.99999e-01
1.545477645e+00,4.82923e-61,6.35812e-61,7.59536e-01,9.99999e-01
1.553205033e+00,9.66866e-45,1.26607e-44,7.63674e-01,9.99999e-01
1.560971058e+00,1.31417e-44,1.71171e-44,7.67752e-01,9.99999e-01
1.568775913e+00,0.00000e+00,0.00000e+00,7.71770e-01,9.99999e-01
1.576619793e+00,0.00000e+00,0.00000e+00,7.75730e-01,9.99999e-01
1.584502892e+00,0.00000e+00,0.00000e+00,7.79631e-01,9.99999e-01
1.592425406e+00,0.00000e+00,0.00000e+00,7.83474e-01,9.99999e-01
1.600387533e+00,0.00000e+00,0.00000e+00,7.87259e-01,9.99999e-01
1.608389471e+00,0.00000e+00,0.00000e+00,7.90987e-01,9.99999e-01
1.616431418e+00,0.00000e+00,0.00000e+00,7.94659e-01,9.99999e-01
1.624513575e+00,0.00000e+00,0.00000e+00,7.98275e-01,9.99999e-01
1.632636143e+00,0.00000e+00,0.00000e+00,8.01836e-01,9.99999e-01
1.640799324e+00,0.00000e+00,0.00000e+00,8.05341e-01,9.99999e-01
1.649003321e+00,0.00000e+00,0.00000e+00,8.08792e-01,9.99999e-01
1.657248337e+00,1.59523e-273,1.96410e-273,8.12190e-01,9.99999e-01
1.665534579e+00,2.23036e-275,2.73484e-275,8.15534e-01,9.99999e-01
1.673862252e+00,2.54765e-174,3.11134e-174,8.18825e-01,9.99999e-01
1.682231563e+00,1.25675e-119,1.52877e-119,8.22064e-01,9.99999e-01
1.690642721e+00,6.55845e-65,7.94720e-65,8.25252e-01,9.99999e-01
1.699095934e+00,1.35421e-40,1.63475e-40,8.28389e-01,9.99999e-01
1.707591414e+00,1.90826e-19,2.29503e-19,8.31475e-01,9.99999e-01
1.716129371e+00,8.19039e-12,9.81458e-12,8.34512e-01,9.99999e-01
1.724710018e+00,3.64217e-07,4.34886e-07,8.37499e-01,9.99999e-01
1.733333568e+00,3.44301e-05,4.09668e-05,8.40438e-01,9.99999e-01
1.742000236e+00,2.24679e-03,2.66419e-03,8.43329e-01,9.99999e-01
1.750710237e+00,3.15102e-07,3.72385e-07,8.46172e-01,9.99999e-01
1.759463788e+00,2.63282e-166,3.10120e-166,8.48968e-01,9.99999e-01
1.768261107e+00,3.50563e-174,4.11594e-174,8.51718e-01,9.99999e-01
1.777102413e+00,6.82209e-170,7.98444e-170,8.54423e-01,9.99999e-01
1.785987925e+00,1.29775e-158,1.51415e-158,8.57082e-01,9.99999e-01
1.794917864e+00,2.49824e-151,2.90595e-151,8.59697e-01,9.99999e-01
1.803892454e+00,2.80617e-145,3.25440e-145,8.62268e-01,9.99999e-01
1.812911916e+00,1.67838e-139,1.94078e-139,8.64796e-01,9.99999e-01
1.821976476e+00,1.29050e-139,1.48798e-139,8.67280e-01,9.99999e-01
1.831086358e+00,2.10383e-111,2.41896e-111,8.69723e-01,9.99999e-01
1.840241790e+00,1.56649e-94,1.79618e-94,8.72124e-01,9.99999e-01
1.849442999e+00,2.88351e-65,3.29738e-65,8.74484e-01,9.99999e-01
1.858690214e+00,1.36761e-61,1.55977e-61,8.76804e-01,9.99999e-01
1.867983665e+00,4.36868e-62,4.96958e-62,8.79084e-01,9.99999e-01
1.877323583e+00,3.98711e-321,4.52564e-321,8.81325e-01,9.99999e-01
