#,Wave/freq,Total,CO2,Rayleigh,CIA
4.000000000e-01,7.48338e-04,9.99999e-01,7.48338e-04,9.99999e-01
4.020000000e-01,8.62791e-04,9.99999e-01,8.62791e-04,9.99999e-01
4.040100000e-01,9.91811e-04,9.99999e-01,9.91811e-04,9.99999e-01
4.060300500e-01,1.13699e-03,9.99999e-01,1.13699e-03,9.99999e-01
4.080602003e-01,1.29991e-03,9.99999e-01,1.29991e-03,9.99999e-01
4.101005013e-01,1.48225e-03,9.99999e-01,1.48225e-03,9.99999e-01
4.121510038e-01,1.68578e-03,9.99999e-01,1.68578e-03,9.99999e-01
4.142117588e-01,1.91240e-03,9.99999e-01,1.91240e-03,9.99999e-01
4.162828176e-01,2.16409e-03,9.99999e-01,2.16409e-03,9.99999e-01
4.183642317e-01,2.44292e-03,9.99999e-01,2.44292e-03,9.99999e-01
4.204560528e-01,2.75109e-03,9.99999e-01,2.75109e-03,9.99999e-01
4.225583331e-01,3.09087e-03,9.99999e-01,3.09087e-03,9.99999e-01
4.246711247e-01,3.46464e-03,9.99999e-01,3.46464e-03,9.99999e-01
4.267944804e-01,3.87486e-03,9.99999e-01,3.87486e-03,9.99999e-01
4.289284528e-01,4.32408e-03,9.99999e-01,4.32408e-03,9.99999e-01
4.310730950e-01,4.81494e-03,9.99999e-01,4.81494e-03,9.99999e-01
4.332284605e-01,5.35014e-03,9.99999e-01,5.35014e-03,9.99999e-01
4.353946028e-01,5.93247e-03,9.99999e-01,5.93247e-03,9.99999e-01
4.375715758e-01,6.56478e-03,9.99999e-01,6.56478e-03,9.99999e-01
4.397594337e-01,7.24995e-03,9.99999e-01,7.24995e-03,9.99999e-01
4.419582309e-01,7.99096e-03,9.99999e-01,7.99096e-03,9.99999e-01
4.441680220e-01,8.79079e-03,9.99999e-01,8.79079e-03,9.99999e-01
4.463888621e-01,9.65247e-03,9.99999e-01,9.65247e-03,9.99999e-01
4.486208064e-01,1.05790e-02,9.99999e-01,1.05790e-02,9.99999e-01
4.508639105e-01,1.15736e-02,9.99999e-01,1.15736e-02,9.99999e-01
4.531182300e-01,1.26392e-02,9.99999e-01,1.26392e-02,9.99999e-01
4.553838212e-01,1.37789e-02,9.99999e-01,1.37789e-02,9.99999e-01
4.576607403e-01,1.49958e-02,9.99999e-01,1.49958e-02,9.99999e-01
4.599490440e-01,1.62930e-02,9.99999e-01,1.62930e-02,9.99999e-01
4.622487892e-01,1.76733e-02,9.99999e-01,1.76733e-02,9.99999e-01
4.645600332e-01,1.91398e-02,9.99999e-01,1.91398e-02,9.99999e-01
4.668828333e-01,2.06954e-02,9.99999e-01,2.06954e-02,9.99999e-01
4.692172475e-01,2.23429e-02,9.99999e-01,2.23429e-02,9.99999e-01
4.715633337e-01,2.40850e-02,9.99999e-01,2.40850e-02,9.99999e-01
4.739211504e-01,2.59246e-02,9.99999e-01,2.59246e-02,9.99999e-01
4.762907561e-01,2.78641e-02,9.99999e-01,2.78641e-02,9.99999e-01
4.786722099e-01,2.99061e-02,9.99999e-01,2.99061e-02,9.99999e-01
4.810655710e-01,3.20529e-02,9.99999e-01,3.20529e-02,9.99999e-01
4.834708988e-01,3.43067e-02,9.99999e-01,3.43067e-02,9.99999e-01
4.858882533e-01,3.66699e-02,9.99999e-01,3.66699e-02,9.99999e-01
4.883176946e-01,3.91442e-02,9.99999e-01,3.91442e-02,9.99999e-01
4.907592831e-01,4.17317e-02,9.99999e-01,4.17317e-02,9.99999e-01
4.932130795e-01,4.44340e-02,9.99999e-01,4.44340e-02,9.99999e-01
4.956791449e-01,4.72527e-02,9.99999e-01,4.72527e-02,9.99999e-01
4.981575406e-01,5.01891e-02,9.99999e-01,5.01891e-02,9.99999e-01
5.006483283e-01,5.32446e-02,9.99999e-01,5.32446e-02,9.99999e-01
5.031515699e-01,5.64203e-02,9.99999e-01,5.64203e-02,9.99999e-01
5.056673278e-01,5.97169e-02,9.99999e-01,5.97169e-02,9.99999e-01
5.081956644e-01,6.31353e-02,9.99999e-01,6.31353e-02,9.99999e-01
5.107366428e-01,6.66761e-02,9.99999e-01,6.66761e-02,9.99999e-01
5.132903260e-01,7.03395e-02,9.99999e-01,7.03395e-02,9.99999e-01
5.158567776e-01,7.41259e-02,9.99999e-01,7.41259e-02,9.99999e-01
5.184360615e-01,7.80353e-02,9.99999e-01,7.80353e-02,9.99999e-01
5.210282418e-01,8.20675e-02,9.99999e-01,8.20675e-02,9.99999e-01
5.236333830e-01,8.62221e-02,9.99999e-01,8.62221e-02,9.99999e-01
5.262515499e-01,9.04988e-02,9.99999e-01,9.04988e-02,9.99999e-01
5.288828077e-01,9.48969e-02,9.99999e-01,9.48969e-02,9.99999e-01
5.315272217e-01,9.94154e-02,9.99999e-01,9.94154e-02,9.99999e-01
5.341848578e-01,1.04053e-01,9.99999e-01,1.04053e-01,9.99999e-01
5.368557821e-01,1.08810e-01,9.99999e-01,1.08810e-01,9.99999e-01
5.395400610e-01,1.13683e-01,9.99999e-01,1.13683e-01,9.99999e-01
5.422377613e-01,1.18672e-01,9.99999e-01,1.18672e-01,9.99999e-01
5.449489501e-01,1.23775e-01,9.99999e-01,1.23775e-01,9.99999e-01
5.476736949e-01,1.28990e-01,9.99999e-01,1.28990e-01,9.99999e-01
5.504120634e-01,1.34315e-01,9.99999e-01,1.34315e-01,9.99999e-01
5.531641237e-01,1.39748e-01,9.99999e-01,1.39748e-01,9.99999e-01
5.559299443e-01,1.45287e-01,9.99999e-01,1.45287e-01,9.99999e-01
5.587095940e-01,1.50930e-01,9.99999e-01,1.50930e-01,9.99999e-01
5.615031420e-01,1.56674e-01,9.99999e-01,1.56674e-01,9.99999e-01
5.643106577e-01,1.62516e-01,9.99999e-01,1.62516e-01,9.99999e-01
5.671322110e-01,1.68455e-01,9.99999e-01,1.68455e-01,9.99999e-01
5.699678720e-01,1.74487e-01,9.99999e-01,1.74487e-01,9.99999e-01
5.728177114e-01,1.80609e-01,9.99999e-01,1.80609e-01,9.99999e-01
5.756818000e-01,1.86819e-01,9.99999e-01,1.86819e-01,9.99999e-01
5.785602090e-01,1.93113e-01,9.99999e-01,1.93113e-01,9.99999e-01
5.814530100e-01,1.99489e-01,9.99999e-01,1.99489e-01,9.99999e-01
5.843602750e-01,2.05943e-01,9.99999e-01,2.05943e-01,9.99999e-01
5.872820764e-01,2.12473e-01,9.99999e-01,2.12473e-01,9.99999e-01
5.902184868e-01,2.19074e-01,9.99999e-01,2.19074e-01,9.99999e-01
5.931695792e-01,2.25743e-01,9.99999e-01,2.25743e-01,9.99999e-01
5.961354271e-01,2.32479e-01,9.99999e-01,2.32479e-01,9.99999e-01
5.991161043e-01,2.39276e-01,9.99999e-01,2.39276e-01,9.99999e-01
6.021116848e-01,2.46131e-01,9.99999e-01,2.46131e-01,9.99999e-01
6.051222432e-01,2.53042e-01,9.99999e-01,2.53042e-01,9.99999e-01
6.081478544e-01,2.60005e-01,9.99999e-01,2.60005e-01,9.99999e-01
6.111885937e-01,2.67016e-01,9.99999e-01,2.67016e-01,9.99999e-01
6.142445367e-01,2.74072e-01,9.99999e-01,2.74072e-01,9.99999e-01
6.173157594e-01,2.81169e-01,9.99999e-01,2.81169e-01,9.99999e-01
6.204023382e-01,2.88305e-01,9.99999e-01,2.88305e-01,9.99999e-01
6.235043498e-01,2.95475e-01,9.99999e-01,2.95475e-01,9.99999e-01
6.266218716e-01,3.02677e-01,9.99999e-01,3.02677e-01,9.99999e-01
6.297549810e-01,3.09907e-01,9.99999e-01,3.09907e-01,9.99999e-01
6.329037559e-01,3.17162e-01,9.99999e-01,3.17162e-01,9.99999e-01
6.360682746e-01,3.24438e-01,9.99999e-01,3.24438e-01,9.99999e-01
6.392486160e-01,3.31733e-01,9.99999e-01,3.31733e-01,9.99999e-01
6.424448591e-01,3.39042e-01,9.99999e-01,3.39042e-01,9.99999e-01
6.456570834e-01,3.46364e-01,9.99999e-01,3.46364e-01,9.99999e-01
6.488853688e-01,3.53694e-01,9.99999e-01,3.53694e-01,9.99999e-01
6.521297956e-01,3.61030e-01,9.99999e-01,3.61030e-01,9.99999e-01
6.553904446e-01,3.68369e-01,9.99999e-01,3.68369e-01,9.99999e-01
6.586673968e-01,3.75708e-01,9.99999e-01,3.75708e-01,9.99999e-01
6.619607338e-01,3.83043e-01,9.99999e-01,3.83043e-01,9.99999e-01
6.652705375e-01,3.90373e-01,9.99999e-01,3.90373e-01,9.99999e-01
6.685968902e-01,3.97694e-01,9.99999e-01,3.97694e-01,9.99999e-01
6.719398746e-01,4.05004e-01,9.99999e-01,4.05004e-01,9.99999e-01
6.752995740e-01,4.12299e-01,9.99999e-01,4.12299e-01,9.99999e-01
6.786760719e-01,4.19578e-01,9.99999e-01,4.19578e-01,9.99999e-01
6.820694522e-01,4.26838e-01,9.99999e-01,4.26838e-01,9.99999e-01
6.854797995e-01,4.34077e-01,9.99999e-01,4.34077e-01,9.99999e-01
6.889071985e-01,4.41292e-01,9.99999e-01,4.41292e-01,9.99999e-01
6.923517345e-01,4.48480e-01,9.99999e-01,4.48480e-01,9.99999e-01
6.958134932e-01,4.55640e-01,9.99999e-01,4.55640e-01,9.99999e-01
6.992925606e-01,4.62770e-01,9.99999e-01,4.62770e-01,9.99999e-01
7.027890234e-01,4.69867e-01,9.99999e-01,4.69867e-01,9.99999e-01
7.063029686e-01,4.76930e-01,9.99999e-01,4.76930e-01,9.99999e-01
7.098344834e-01,4.83956e-01,9.99999e-01,4.83956e-01,9.99999e-01
7.133836558e-01,4.90943e-01,9.99999e-01,4.90943e-01,9.99999e-01
7.169505741e-01,4.97891e-01,9.99999e-01,4.97891e-01,9.99999e-01
7.205353270e-01,5.04797e-01,9.99999e-01,5.04797e-01,9.99999e-01
7.241380036e-01,5.11659e-01,9.99999e-01,5.11659e-01,9.99999e-01
7.277586936e-01,5.18477e-01,9.99999e-01,5.18477e-01,9.99999e-01
7.313974871e-01,5.25247e-01,9.99999e-01,5.25247e-01,9.99999e-01
7.350544745e-01,5.31970e-01,9.99999e-01,5.31970e-01,9.99999e-01
7.387297469e-01,5.38644e-01,9.99999e-01,5.38644e-01,9.99999e-01
7.424233956e-01,5.45267e-01,9.99999e-01,5.45267e-01,9.99999e-01
7.461355126e-01,5.51838e-01,9.99999e-01,5.51838e-01,9.99999e-01
7.498661902e-01,5.58357e-01,9.99999e-01,5.58357e-01,9.99999e-01
7.536155211e-01,5.64821e-01,9.99999e-01,5.64821e-01,9.99999e-01
7.573835987e-01,5.71230e-01,9.99999e-01,5.71230e-01,9.99999e-01
7.611705167e-01,5.77584e-01,9.99999e-01,5.77584e-01,9.99999e-01
7.649763693e-01,5.83880e-01,9.99999e-01,5.83880e-01,9.99999e-01
7.688012511e-01,5.90118e-01,9.99999e-01,5.90118e-01,9.99999e-01
7.726452574e-01,5.96298e-01,9.99999e-01,5.96298e-01,9.99999e-01
7.765084837e-01,6.02419e-01,9.99999e-01,6.02419e-01,9.99999e-01
7.803910261e-01,5.93570e-01,9.75494e-01,6.08480e-01,9.99999e-01
7.842929812e-01,5.52772e-01,8.99576e-01,6.14480e-01,9.99999e-01
7.882144461e-01,5.53674e-01,8.92418e-01,6.20420e-01,9.99999e-01
7.921555184e-01,5.86425e-01,9.36336e-01,6.26297e-01,9.99999e-01
7.961162960e-01,6.04995e-01,9.57099e-01,6.32113e-01,9.99999e-01
8.000968774e-01,6.22880e-01,9.76506e-01,6.37866e-01,9.99999e-01
8.040973618e-01,6.35694e-01,9.87782e-01,6.43556e-01,9.99999e-01
8.081178486e-01,6.45527e-01,9.94367e-01,6.49183e-01,9.99999e-01
8.121584379e-01,6.53610e-01,9.98262e-01,6.54747e-01,9.99999e-01
8.162192301e-01,6.59994e-01,9.99615e-01,6.60247e-01,9.99999e-01
8.203003262e-01,6.65680e-01,9.99993e-01,6.65683e-01,9.99999e-01
8.244018279e-01,6.71056e-01,9.99999e-01,6.71056e-01,9.99999e-01
8.285238370e-01,6.76364e-01,9.99999e-01,6.76364e-01,9.99999e-01
8.326664562e-01,6.81608e-01,9.99999e-01,6.81608e-01,9.99999e-01
8.368297885e-01,6.86788e-01,9.99999e-01,6.86788e-01,9.99999e-01
8.410139374e-01,6.91904e-01,9.99999e-01,6.91904e-01,9.99999e-01
8.452190071e-01,6.96956e-01,9.99999e-01,6.96956e-01,9.99999e-01
8.494451021e-01,7.01944e-01,9.99999e-01,7.01944e-01,9.99999e-01
8.536923276e-01,7.06868e-01,9.99999e-01,7.06868e-01,9.99999e-01
8.579607893e-01,7.11729e-01,9.99999e-01,7.11729e-01,9.99999e-01
8.622505932e-01,7.16526e-01,9.99999e-01,7.16526e-01,9.99999e-01
8.665618462e-01,6.78165e-01,9.40251e-01,7.21259e-01,9.99999e-01
8.708946554e-01,5.53297e-01,7.62190e-01,7.25929e-01,9.99999e-01
8.752491287e-01,5.88069e-01,8.04982e-01,7.30536e-01,9.99999e-01
8.796253743e-01,6.53007e-01,8.88346e-01,7.35081e-01,9.99999e-01
8.840235012e-01,6.95653e-01,9.40626e-01,7.39564e-01,9.99999e-01
8.884436187e-01,7.26294e-01,9.76221e-01,7.43984e-01,9.99999e-01
8.928858368e-01,7.41084e-01,9.90299e-01,7.48343e-01,9.99999e-01
8.973502660e-01,7.50865e-01,9.97641e-01,7.52640e-01,9.99999e-01
9.018370173e-01,7.56680e-01,9.99739e-01,7.56876e-01,9.99999e-01
9.063462024e-01,7.55918e-01,9.93253e-01,7.61052e-01,9.99999e-01
9.108779334e-01,7.53480e-01,9.84723e-01,7.65168e-01,9.99999e-01
9.154323231e-01,7.66460e-01,9.96406e-01,7.69224e-01,9.99999e-01
9.200094847e-01,7.32641e-01,9.47517e-01,7.73221e-01,9.99999e-01
9.246095321e-01,7.20676e-01,9.27321e-01,7.77159e-01,9.99999e-01
9.292325798e-01,7.35920e-01,9.42231e-01,7.81039e-01,9.99999e-01
9.338787427e-01,7.41209e-01,9.44382e-01,7.84861e-01,9.99999e-01
9.385481364e-01,7.56191e-01,9.58871e-01,7.88625e-01,9.99999e-01
9.432408771e-01,7.72258e-01,9.74663e-01,7.92333e-01,9.99999e-01
9.479570815e-01,7.85569e-01,9.86914e-01,7.95984e-01,9.99999e-01
9.526968669e-01,7.94522e-01,9.93673e-01,7.99580e-01,9.99999e-01
9.574603512e-01,8.00946e-01,9.97291e-01,8.03120e-01,9.99999e-01
9.622476530e-01,8.05925e-01,9.99154e-01,8.06606e-01,9.99999e-01
9.670588912e-01,8.09833e-01,9.99746e-01,8.10038e-01,9.99999e-01
9.718941857e-01,8.13401e-01,9.99981e-01,8.13415e-01,9.99999e-01
9.767536566e-01,8.16740e-01,9.99999e-01,8.16740e-01,9.99999e-01
9.816374249e-01,8.20013e-01,9.99999e-01,8.20013e-01,9.99999e-01
9.865456120e-01,8.23233e-01,9.99999e-01,8.23233e-01,9.99999e-01
9.914783401e-01,8.26402e-01,9.99999e-01,8.26402e-01,9.99999e-01
9.964357318e-01,8.29520e-01,9.99999e-01,8.29520e-01,9.99999e-01
1.001417910e+00,8.32588e-01,9.99999e-01,8.32588e-01,9.99999e-01
1.006425000e+00,8.35607e-01,9.99999e-01,8.35607e-01,9.99999e-01
1.011457125e+00,8.38577e-01,9.99999e-01,8.38577e-01,9.99999e-01
1.016514411e+00,8.41498e-01,9.99999e-01,8.41498e-01,9.99999e-01
1.021596983e+00,8.44340e-01,9.99962e-01,8.44371e-01,9.99999e-01
1.026704968e+00,8.44967e-01,9.97367e-01,8.47197e-01,9.99999e-01
1.031838492e+00,8.19896e-01,9.64609e-01,8.49977e-01,9.99999e-01
1.036997685e+00,1.80168e-01,2.11289e-01,8.52710e-01,9.99999e-01
1.042182673e+00,1.88549e-01,2.20422e-01,8.55398e-01,9.99999e-01
1.047393587e+00,1.91977e-01,2.23738e-01,8.58041e-01,9.99999e-01
1.052630555e+00,1.40714e-02,1.63499e-02,8.60640e-01,9.99999e-01
1.057893707e+00,3.05749e-02,3.54206e-02,8.63195e-01,9.99999e-01
1.063183176e+00,7.53032e-02,8.69846e-02,8.65707e-01,9.99999e-01
1.068499092e+00,1.64627e-01,1.89624e-01,8.68176e-01,9.99999e-01
1.073841587e+00,3.05244e-01,3.50612e-01,8.70604e-01,9.99999e-01
1.079210795e+00,4.50028e-01,5.15502e-01,8.72990e-01,9.99999e-01
1.084606849e+00,6.09029e-01,6.95766e-01,8.75335e-01,9.99999e-01
1.090029883e+00,7.27175e-01,8.28556e-01,8.77640e-01,9.99999e-01
1.095480033e+00,8.02113e-01,9.11588e-01,8.79906e-01,9.99999e-01
1.100957433e+00,8.43686e-01,9.56416e-01,8.82132e-01,9.99999e-01
1.106462220e+00,8.68187e-01,9.81755e-01,8.84320e-01,9.99999e-01
1.111994531e+00,8.80443e-01,9.93200e-01,8.86470e-01,9.99999e-01
1.117554504e+00,8.87107e-01,9.98338e-01,8.88583e-01,9.99999e-01
1.123142276e+00,8.90562e-01,9.99890e-01,8.90659e-01,9.99999e-01
1.128757988e+00,8.92698e-01,9.99999e-01,8.92698e-01,9.99999e-01
1.134401778e+00,8.94702e-01,9.99999e-01,8.94702e-01,9.99999e-01
1.140073787e+00,8.96670e-01,9.99999e-01,8.96670e-01,9.99999e-01
1.145774156e+00,8.98604e-01,9.99999e-01,8.98604e-01,9.99999e-01
1.151503026e+00,9.00504e-01,9.99999e-01,9.00504e-01,9.99999e-01
1.157260541e+00,9.02370e-01,9.99999e-01,9.02370e-01,9.99999e-01
1.163046844e+00,9.04203e-01,9.99999e-01,9.04203e-01,9.99999e-01
1.168862078e+00,9.06003e-01,9.99999e-01,9.06003e-01,9.99999e-01
1.174706389e+00,9.07771e-01,9.99999e-01,9.07771e-01,9.99999e-01
1.180579921e+00,9.09508e-01,9.99999e-01,9.09508e-01,9.99999e-01
1.186482820e+00,9.11209e-01,9.99994e-01,9.11213e-01,9.99999e-01
1.192415234e+00,9.04284e-01,9.90574e-01,9.12888e-01,9.99999e-01
1.198377311e+00,5.22477e-01,5.71304e-01,9.14533e-01,9.99999e-01
1.204369197e+00,1.71857e-08,1.87586e-08,9.16149e-01,9.99999e-01
1.210391043e+00,4.57914e-29,4.98961e-29,9.17735e-01,9.99999e-01
1.216442998e+00,2.18748e-25,2.37953e-25,9.19292e-01,9.99999e-01
1.222525213e+00,4.99132e-25,5.42050e-25,9.20822e-01,9.99999e-01
1.228637839e+00,2.39794e-19,2.59989e-19,9.22323e-01,9.99999e-01
1.234781029e+00,6.44572e-13,6.97741e-13,9.23797e-01,9.99999e-01
1.240954934e+00,9.37759e-09,1.01352e-08,9.25245e-01,9.99999e-01
1.247159708e+00,3.70596e-05,3.99924e-05,9.26666e-01,9.99999e-01
1.253395507e+00,2.88470e-03,3.10831e-03,9.28061e-01,9.99999e-01
1.259662485e+00,3.43902e-02,3.70013e-02,9.29431e-01,9.99999e-01
1.265960797e+00,1.37634e-01,1.47871e-01,9.30775e-01,9.99999e-01
1.272290601e+00,4.21203e-01,4.51888e-01,9.32095e-01,9.99999e-01
1.278652054e+00,3.64392e-01,3.90396e-01,9.33390e-01,9.99999e-01
1.285045314e+00,1.28201e-02,1.37163e-02,9.34662e-01,9.99999e-01
1.291470541e+00,4.12236e-04,4.40464e-04,9.35910e-01,9.99999e-01
1.297927893e+00,2.68613e-02,2.86632e-02,9.37136e-01,9.99999e-01
1.304417533e+00,2.21853e-01,2.36432e-01,9.38338e-01,9.99999e-01
1.310939621e+00,5.69834e-02,6.06516e-02,9.39519e-01,9.99999e-01
1.317494319e+00,1.83149e-10,1.94699e-10,9.40677e-01,9.99999e-01
1.324081790e+00,1.80122e-07,1.91250e-07,9.41814e-01,9.99999e-01
1.330702199e+00,2.04025e-04,2.16373e-04,9.42930e-01,9.99999e-01
1.337355710e+00,1.82826e-04,1.93667e-04,9.44025e-01,9.99999e-01
1.344042489e+00,5.40854e-05,5.72271e-05,9.45100e-01,9.99999e-01
1.350762701e+00,1.42034e-04,1.50117e-04,9.46154e-01,9.99999e-01
1.357516515e+00,3.07854e-03,3.25018e-03,9.47189e-01,9.99999e-01
1.364304097e+00,2.49028e-02,2.62631e-02,9.48205e-01,9.99999e-01
1.371125618e+00,1.40395e-01,1.47908e-01,9.49202e-01,9.99999e-01
1.377981246e+00,2.02485e-01,2.13102e-01,9.50180e-01,9.99999e-01
1.384871152e+00,3.86855e-01,4.06728e-01,9.51139e-01,9.99999e-01
1.391795508e+00,4.14813e-01,4.35691e-01,9.52081e-01,9.99999e-01
1.398754485e+00,5.71367e-01,5.99542e-01,9.53005e-01,9.99999e-01
1.405748258e+00,6.54239e-01,6.85849e-01,9.53911e-01,9.99999e-01
1.412776999e+00,7.52668e-01,7.88298e-01,9.54801e-01,9.99999e-01
1.419840884e+00,6.85218e-01,7.16999e-01,9.55673e-01,9.99999e-01
1.426940089e+00,7.82625e-02,8.18191e-02,9.56530e-01,9.99999e-01
1.434074789e+00,0.00000e+00,0.00000e+00,9.57370e-01,9.99999e-01
1.441245163e+00,0.00000e+00,0.00000e+00,9.58194e-01,9.99999e-01
1.448451389e+00,0.00000e+00,0.00000e+00,9.59002e-01,9.99999e-01
1.455693646e+00,1.46445e-228,1.52579e-228,9.59796e-01,9.99999e-01
1.462972114e+00,4.25622e-111,4.43091e-111,9.60574e-01,9.99999e-01
1.470286975e+00,4.88290e-47,5.07927e-47,9.61337e-01,9.99999e-01
1.477638409e+00,3.79478e-30,3.94432e-30,9.62086e-01,9.99999e-01
1.485026601e+00,2.20130e-17,2.28630e-17,9.62821e-01,9.99999e-01
1.492451734e+00,8.15223e-15,8.46068e-15,9.63542e-01,9.99999e-01
1.499913993e+00,2.71506e-07,2.81572e-07,9.64249e-01,9.99999e-01
1.507413563e+00,3.75155e-06,3.88785e-06,9.64943e-01,9.99999e-01
1.514950631e+00,1.53425e-07,1.58887e-07,9.65623e-01,9.99999e-01
1.522525384e+00,6.83271e-22,7.07107e-22,9.66291e-01,9.99999e-01
1.530138011e+00,4.93784e-50,5.10663e-50,9.66945e-01,9.99999e-01
1.537788701e+00,2.03326e-37,2.10137e-37,9.67587e-01,9.99999e-01
1.545477645e+00,3.71382e-09,3.83573e-09,9.68217e-01,9.99999e-01
1.553205033e+00,2.99261e-06,3.08887e-06,9.68835e-01,9.99999e-01
1.560971058e+00,7.87009e-07,8.11816e-07,9.69441e-01,9.99999e-01
1.568775913e+00,1.56709e-124,1.61550e-124,9.70036e-01,9.99999e-01
1.576619793e+00,1.05111e-290,1.08292e-290,9.70619e-01,9.99999e-01
1.584502892e+00,6.35698e-159,6.54555e-159,9.71191e-01,9.99999e-01
1.592425406e+00,4.55784e-111,4.69033e-111,9.71752e-01,9.99999e-01
1.600387533e+00,2.38191e-178,2.44976e-178,9.72302e-01,9.99999e-01
1.608389471e+00,3.80490e-299,3.91111e-299,9.72841e-01,9.99999e-01
1.616431418e+00,4.99555e-301,5.13221e-301,9.73371e-01,9.99999e-01
1.624513575e+00,7.79858e-141,8.00766e-141,9.73890e-01,9.99999e-01
1.632636143e+00,6.37941e-105,6.54702e-105,9.74399e-01,9.99999e-01
1.640799324e+00,1.07759e-43,1.10534e-43,9.74898e-01,9.99999e-01
1.649003321e+00,1.14572e-43,1.17463e-43,9.75388e-01,9.99999e-01
1.657248337e+00,4.76612e-34,4.88398e-34,9.75868e-01,9.99999e-01
1.665534579e+00,2.81905e-34,2.88737e-34,9.76339e-01,9.99999e-01
1.673862252e+00,2.50390e-22,2.56337e-22,9.76801e-01,9.99999e-01
1.682231563e+00,6.66739e-16,6.82257e-16,9.77254e-01,9.99999e-01
1.690642721e+00,1.64466e-09,1.68217e-09,9.77698e-01,9.99999e-01
1.699095934e+00,3.29805e-06,3.37178e-06,9.78134e-01,9.99999e-01
1.707591414e+00,1.16745e-03,1.19303e-03,9.78561e-01,9.99999e-01
1.716129371e+00,2.39324e-02,2.44462e-02,9.78980e-01,9.99999e-01
1.724710018e+00,1.32081e-01,1.34860e-01,9.79391e-01,9.99999e-01
1.733333568e+00,2.69033e-01,2.74581e-01,9.79794e-01,9.99999e-01
1.742000236e+00,4.43781e-01,4.52750e-01,9.80189e-01,9.99999e-01
1.750710237e+00,2.03933e-02,2.07972e-02,9.80576e-01,9.99999e-01
1.759463788e+00,2.71623e-21,2.76896e-21,9.80956e-01,9.99999e-01
1.768261107e+00,1.87829e-22,1.91403e-22,9.81329e-01,9.99999e-01
1.777102413e+00,2.33932e-21,2.38293e-21,9.81694e-01,9.99999e-01
1.785987925e+00,1.64684e-20,1.67694e-20,9.82052e-01,9.99999e-01
1.794917864e+00,1.93291e-19,1.96752e-19,9.82404e-01,9.99999e-01
1.803892454e+00,4.73966e-19,4.82285e-19,9.82748e-01,9.99999e-01
1.812911916e+00,3.83684e-18,3.90285e-18,9.83086e-01,9.99999e-01
1.821976476e+00,2.45031e-18,2.49162e-18,9.83417e-01,9.99999e-01
1.831086358e+00,5.06925e-15,5.15302e-15,9.83742e-01,9.99999e-01
1.840241790e+00,9.83023e-13,9.98944e-13,9.84061e-01,9.99999e-01
1.849442999e+00,5.69563e-09,5.78604e-09,9.84373e-01,9.99999e-01
1.858690214e+00,3.34853e-08,3.40062e-08,9.84679e-01,9.99999e-01
1.867983665e+00,5.09503e-09,5.17272e-09,9.84980e-01,9.99999e-01
1.877323583e+00,1.17448e-39,1.19203e-39,9.85274e-01,9.99999e-01
