#,Wave/freq,Total,CO2,Rayleigh,CIA
4.000000000e-01,9.17035e-11,9.99999e-01,9.17035e-11,9.99999e-01
4.020000000e-01,1.44829e-10,9.99999e-01,1.44829e-10,9.99999e-01
4.040100000e-01,2.26571e-10,9.99999e-01,2.26571e-10,9.99999e-01
4.060300500e-01,3.51328e-10,9.99999e-01,3.51328e-10,9.99999e-01
4.080602003e-01,5.40080e-10,9.99999e-01,5.40080e-10,9.99999e-01
4.101005013e-01,8.23219e-10,9.99999e-01,8.23219e-10,9.99999e-01
4.121510038e-01,1.24439e-09,9.99999e-01,1.24439e-09,9.99999e-01
4.142117588e-01,1.86575e-09,9.99999e-01,1.86575e-09,9.99999e-01
4.162828176e-01,2.77508e-09,9.99999e-01,2.77508e-09,9.99999e-01
4.183642317e-01,4.09536e-09,9.99999e-01,4.09536e-09,9.99999e-01
4.204560528e-01,5.99749e-09,9.99999e-01,5.99749e-09,9.99999e-01
4.225583331e-01,8.71716e-09,9.99999e-01,8.71716e-09,9.99999e-01
4.246711247e-01,1.25769e-08,9.99999e-01,1.25769e-08,9.99999e-01
4.267944804e-01,1.80146e-08,9.99999e-01,1.80146e-08,9.99999e-01
4.289284528e-01,2.56210e-08,9.99999e-01,2.56210e-08,9.99999e-01
4.310730950e-01,3.61864e-08,9.99999e-01,3.61864e-08,9.99999e-01
4.332284605e-01,5.07613e-08,9.99999e-01,5.07613e-08,9.99999e-01
4.353946028e-01,7.07321e-08,9.99999e-01,7.07321e-08,9.99999e-01
4.375715758e-01,9.79161e-08,9.99999e-01,9.79161e-08,9.99999e-01
4.397594337e-01,1.34680e-07,9.99999e-01,1.34680e-07,9.99999e-01
4.419582309e-01,1.84084e-07,9.99999e-01,1.84084e-07,9.99999e-01
4.441680220e-01,2.50062e-07,9.99999e-01,2.50062e-07,9.99999e-01
4.463888621e-01,3.37639e-07,9.99999e-01,3.37639e-07,9.99999e-01
4.486208064e-01,4.53192e-07,9.99999e-01,4.53192e-07,9.99999e-01
4.508639105e-01,6.04764e-07,9.99999e-01,6.04764e-07,9.99999e-01
4.531182300e-01,8.02445e-07,9.99999e-01,8.02445e-07,9.99999e-01
4.553838212e-01,1.05881e-06,9.99999e-01,1.05881e-06,9.99999e-01
4.576607403e-01,1.38945e-06,9.99999e-01,1.38945e-06,9.99999e-01
4.599490440e-01,1.81358e-06,9.99999e-01,1.81358e-06,9.99999e-01
4.622487892e-01,2.35475e-06,9.99999e-01,2.35475e-06,9.99999e-01
4.645600332e-01,3.04167e-06,9.99999e-01,3.04167e-06,9.99999e-01
4.668828333e-01,3.90917e-06,9.99999e-01,3.90917e-06,9.99999e-01
4.692172475e-01,4.99924e-06,9.99999e-01,4.99924e-06,9.99999e-01
4.715633337e-01,6.36230e-06,9.99999e-01,6.36230e-06,9.99999e-01
4.739211504e-01,8.05852e-06,9.99999e-01,8.05852e-06,9.99999e-01
4.762907561e-01,1.01594e-05,9.99999e-01,1.01594e-05,9.99999e-01
4.786722099e-01,1.27496e-05,9.99999e-01,1.27496e-05,9.99999e-01
4.810655710e-01,1.59285e-05,9.99999e-01,1.59285e-05,9.99999e-01
4.834708988e-01,1.98127e-05,9.99999e-01,1.98127e-05,9.99999e-01
4.858882533e-01,2.45381e-05,9.99999e-01,2.45381e-05,9.99999e-01
4.883176946e-01,3.02624e-05,9.99999e-01,3.02624e-05,9.99999e-01
4.907592831e-01,3.71677e-05,9.99999e-01,3.71677e-05,9.99999e-01
4.932130795e-01,4.54639e-05,9.99999e-01,4.54639e-05,9.99999e-01
4.956791449e-01,5.53909e-05,9.99999e-01,5.53909e-05,9.99999e-01
4.981575406e-01,6.72227e-05,9.99999e-01,6.72227e-05,9.99999e-01
5.006483283e-01,8.12705e-05,9.99999e-01,8.12705e-05,9.99999e-01
5.031515699e-01,9.78863e-05,9.99999e-01,9.78863e-05,9.99999e-01
5.056673278e-01,1.17467e-04,9.99999e-01,1.17467e-04,9.99999e-01
5.081956644e-01,1.40457e-04,9.99999e-01,1.40457e-04,9.99999e-01
5.107366428e-01,1.67355e-04,9.99999e-01,1.67355e-04,9.99999e-01
5.132903260e-01,1.98716e-04,9.99999e-01,1.98716e-04,9.99999e-01
5.158567776e-01,2.35153e-04,9.99999e-01,2.35153e-04,9.99999e-01
5.184360615e-01,2.77348e-04,9.99999e-01,2.77348e-04,9.99999e-01
5.210282418e-01,3.26050e-04,9.99999e-01,3.26050e-04,9.99999e-01
5.236333830e-01,3.82082e-04,9.99999e-01,3.82082e-04,9.99999e-01
5.262515499e-01,4.46341e-04,9.99999e-01,4.46341e-04,9.99999e-01
5.288828077e-01,5.19810e-04,9.99999e-01,5.19810e-04,9.99999e-01
5.315272217e-01,6.03552e-04,9.99999e-01,6.03552e-04,9.99999e-01
5.341848578e-01,6.98720e-04,9.99999e-01,6.98720e-04,9.99999e-01
5.368557821e-01,8.06559e-04,9.99999e-01,8.06559e-04,9.99999e-01
5.395400610e-01,9.28406e-04,9.99999e-01,9.28406e-04,9.99999e-01
5.422377613e-01,1.06569e-03,9.99999e-01,1.06569e-03,9.99999e-01
5.449489501e-01,1.21996e-03,9.99999e-01,1.21996e-03,9.99999e-01
5.476736949e-01,1.39282e-03,9.99999e-01,1.39282e-03,9.99999e-01
5.504120634e-01,1.58603e-03,9.99999e-01,1.58603e-03,9.99999e-01
5.531641237e-01,1.80141e-03,9.99999e-01,1.80141e-03,9.99999e-01
5.559299443e-01,2.04089e-03,9.99999e-01,2.04089e-03,9.99999e-01
5.587095940e-01,2.30652e-03,9.99999e-01,2.30652e-03,9.99999e-01
5.615031420e-01,2.60044e-03,9.99999e-01,2.60044e-03,9.99999e-01
5.643106577e-01,2.92486e-03,9.99999e-01,2.92486e-03,9.99999e-01
5.671322110e-01,3.28213e-03,9.99999e-01,3.28213e-03,9.99999e-01
5.699678720e-01,3.67467e-03,9.99999e-01,3.67467e-03,9.99999e-01
5.728177114e-01,4.10498e-03,9.99999e-01,4.10498e-03,9.99999e-01
5.756818000e-01,4.57566e-03,9.99999e-01,4.57566e-03,9.99999e-01
5.785602090e-01,5.08939e-03,9.99999e-01,5.08939e-03,9.99999e-01
5.814530100e-01,5.64891e-03,9.99999e-01,5.64891e-03,9.99999e-01
5.843602750e-01,6.25704e-03,9.99999e-01,6.25704e-03,9.99999e-01
5.872820764e-01,6.91666e-03,9.99999e-01,6.91666e-03,9.99999e-01
5.902184868e-01,7.63069e-03,9.99999e-01,7.63069e-03,9.99999e-01
5.931695792e-01,8.40211e-03,9.99999e-01,8.40211e-03,9.99999e-01
5.961354271e-01,9.23394e-03,9.99999e-01,9.23394e-03,9.99999e-01
5.991161043e-01,1.01292e-02,9.99999e-01,1.01292e-02,9.99999e-01
6.021116848e-01,1.10910e-02,9.99999e-01,1.10910e-02,9.99999e-01
6.051222432e-01,1.21224e-02,9.99999e-01,1.21224e-02,9.99999e-01
6.081478544e-01,1.32264e-02,9.99999e-01,1.32264e-02,9.99999e-01
6.111885937e-01,1.44061e-02,9.99999e-01,1.44061e-02,9.99999e-01
6.142445367e-01,1.56646e-02,9.99999e-01,1.56646e-02,9.99999e-01
6.173157594e-01,1.70049e-02,9.99999e-01,1.70049e-02,9.99999e-01
6.204023382e-01,1.84300e-02,9.99999e-01,1.84300e-02,9.99999e-01
6.235043498e-01,1.99428e-02,9.99999e-01,1.99428e-02,9.99999e-01
6.266218716e-01,2.15461e-02,9.99999e-01,2.15461e-02,9.99999e-01
6.297549810e-01,2.32428e-02,9.99999e-01,2.32428e-02,9.99999e-01
6.329037559e-01,2.50357e-02,9.99999e-01,2.50357e-02,9.99999e-01
6.360682746e-01,2.69272e-02,9.99999e-01,2.69272e-02,9.99999e-01
6.392486160e-01,2.89201e-02,9.99999e-01,2.89201e-02,9.99999e-01
6.424448591e-01,3.10166e-02,9.99999e-01,3.10166e-02,9.99999e-01
6.456570834e-01,3.32192e-02,9.99999e-01,3.32192e-02,9.99999e-01
6.488853688e-01,3.55300e-02,9.99999e-01,3.55300e-02,9.99999e-01
6.521297956e-01,3.79511e-02,9.99999e-01,3.79511e-02,9.99999e-01
6.553904446e-01,4.04845e-02,9.99999e-01,4.04845e-02,9.99999e-01
6.586673968e-01,4.31318e-02,9.99999e-01,4.31318e-02,9.99999e-01
6.619607338e-01,4.58949e-02,9.99999e-01,4.58949e-02,9.99999e-01
6.652705375e-01,4.87750e-02,9.99999e-01,4.87750e-02,9.99999e-01
6.685968902e-01,5.17737e-02,9.99999e-01,5.17737e-02,9.99999e-01
6.719398746e-01,5.48919e-02,9.99999e-01,5.48919e-02,9.99999e-01
6.752995740e-01,5.81308e-02,9.99999e-01,5.81308e-02,9.99999e-01
6.786760719e-01,6.14911e-02,9.99999e-01,6.14911e-02,9.99999e-01
6.820694522e-01,6.49735e-02,9.99999e-01,6.49735e-02,9.99999e-01
6.854797995e-01,6.85784e-02,9.99999e-01,6.85784e-02,9.99999e-01
6.889071985e-01,7.23062e-02,9.99999e-01,7.23062e-02,9.99999e-01
6.923517345e-01,7.61570e-02,9.99999e-01,7.61570e-02,9.99999e-01
6.958134932e-01,8.01307e-02,9.99999e-01,8.01307e-02,9.99999e-01
6.992925606e-01,8.42270e-02,9.99999e-01,8.42270e-02,9.99999e-01
7.027890234e-01,8.84457e-02,9.99999e-01,8.84457e-02,9.99999e-01
7.063029686e-01,9.27860e-02,9.99999e-01,9.27860e-02,9.99999e-01
7.098344834e-01,9.72472e-02,9.99999e-01,9.72472e-02,9.99999e-01
7.133836558e-01,1.01828e-01,9.99999e-01,1.01828e-01,9.99999e-01
7.169505741e-01,1.06529e-01,9.99999e-01,1.06529e-01,9.99999e-01
7.205353270e-01,1.11346e-01,9.99999e-01,1.11346e-01,9.99999e-01
7.241380036e-01,1.16280e-01,9.99999e-01,1.16280e-01,9.99999e-01
7.277586936e-01,1.21329e-01,9.99999e-01,1.21329e-01,9.99999e-01
7.313974871e-01,1.26491e-01,9.99999e-01,1.26491e-01,9.99999e-01
7.350544745e-01,1.31764e-01,9.99999e-01,1.31764e-01,9.99999e-01
7.387297469e-01,1.37146e-01,9.99999e-01,1.37146e-01,9.99999e-01
7.424233956e-01,1.42634e-01,9.99999e-01,1.42634e-01,9.99999e-01
7.461355126e-01,1.48228e-01,9.99999e-01,1.48228e-01,9.99999e-01
7.498661902e-01,1.53924e-01,9.99999e-01,1.53924e-01,9.99999e-01
7.536155211e-01,1.59720e-01,9.99999e-01,1.59720e-01,9.99999e-01
7.573835987e-01,1.65613e-01,9.99999e-01,1.65613e-01,9.99999e-01
7.611705167e-01,1.71601e-01,9.99999e-01,1.71601e-01,9.99999e-01
7.649763693e-01,1.77681e-01,9.99999e-01,1.77681e-01,9.99999e-01
7.688012511e-01,1.83849e-01,9.99999e-01,1.83849e-01,9.99999e-01
7.726452574e-01,1.90104e-01,9.99999e-01,1.90104e-01,9.99999e-01
7.765084837e-01,1.96441e-01,9.99999e-01,1.96441e-01,9.99999e-01
7.803910261e-01,1.89207e-01,9.32708e-01,2.02858e-01,9.99999e-01
7.842929812e-01,1.51235e-01,7.22394e-01,2.09352e-01,9.99999e-01
7.882144461e-01,1.52789e-01,7.07622e-01,2.15919e-01,9.99999e-01
7.921555184e-01,1.80684e-01,8.11857e-01,2.22557e-01,9.99999e-01
7.961162960e-01,1.99265e-01,8.69160e-01,2.29261e-01,9.99999e-01
8.000968774e-01,2.18730e-01,9.26707e-01,2.36029e-01,9.99999e-01
8.040973618e-01,2.33468e-01,9.61339e-01,2.42857e-01,9.99999e-01
8.081178486e-01,2.45256e-01,9.82035e-01,2.49742e-01,9.99999e-01
8.121584379e-01,2.55251e-01,9.94431e-01,2.56680e-01,9.99999e-01
8.162192301e-01,2.63344e-01,9.98767e-01,2.63669e-01,9.99999e-01
8.203003262e-01,2.70699e-01,9.99981e-01,2.70704e-01,9.99999e-01
8.244018279e-01,2.77782e-01,9.99999e-01,2.77782e-01,9.99999e-01
8.285238370e-01,2.84900e-01,9.99999e-01,2.84900e-01,9.99999e-01
8.326664562e-01,2.92054e-01,9.99999e-01,2.92054e-01,9.99999e-01
8.368297885e-01,2.99241e-01,9.99999e-01,2.99241e-01,9.99999e-01
8.410139374e-01,3.06458e-01,9.99999e-01,3.06458e-01,9.99999e-01
8.452190071e-01,3.13702e-01,9.99999e-01,3.13702e-01,9.99999e-01
8.494451021e-01,3.20968e-01,9.99999e-01,3.20968e-01,9.99999e-01
8.536923276e-01,3.28254e-01,9.99999e-01,3.28254e-01,9.99999e-01
8.579607893e-01,3.35557e-01,9.99999e-01,3.35557e-01,9.99999e-01
8.622505932e-01,3.42873e-01,9.99999e-01,3.42873e-01,9.99999e-01
8.665618462e-01,3.10191e-01,8.85753e-01,3.50200e-01,9.99999e-01
8.708946554e-01,1.59197e-01,4.45264e-01,3.57534e-01,9.99999e-01
8.752491287e-01,1.87584e-01,5.14108e-01,3.64872e-01,9.99999e-01
8.796253743e-01,2.56668e-01,6.89576e-01,3.72211e-01,9.99999e-01
8.840235012e-01,3.12333e-01,8.22906e-01,3.79548e-01,9.99999e-01
8.884436187e-01,3.58192e-01,9.25844e-01,3.86881e-01,9.99999e-01
8.928858368e-01,3.82070e-01,9.69212e-01,3.94206e-01,9.99999e-01
8.973502660e-01,3.98489e-01,9.92446e-01,4.01522e-01,9.99999e-01
9.018370173e-01,4.08484e-01,9.99165e-01,4.08825e-01,9.99999e-01
9.063462024e-01,4.07304e-01,9.78833e-01,4.16112e-01,9.99999e-01
9.108779334e-01,4.03015e-01,9.51896e-01,4.23381e-01,9.99999e-01
9.154323231e-01,4.25687e-01,9.88520e-01,4.30630e-01,9.99999e-01
9.200094847e-01,3.74588e-01,8.55503e-01,4.37857e-01,9.99999e-01
9.246095321e-01,3.49923e-01,7.86240e-01,4.45058e-01,9.99999e-01
9.292325798e-01,3.75145e-01,8.29541e-01,4.52232e-01,9.99999e-01
9.338787427e-01,3.83114e-01,8.33987e-01,4.59376e-01,9.99999e-01
9.385481364e-01,4.07955e-01,8.74521e-01,4.66489e-01,9.99999e-01
9.432408771e-01,4.36159e-01,9.21005e-01,4.73568e-01,9.99999e-01
9.479570815e-01,4.60723e-01,9.58616e-01,4.80612e-01,9.99999e-01
9.526968669e-01,4.77794e-01,9.79851e-01,4.87618e-01,9.99999e-01
9.574603512e-01,4.90299e-01,9.91332e-01,4.94585e-01,9.99999e-01
9.622476530e-01,5.00152e-01,9.97289e-01,5.01511e-01,9.99999e-01
9.670588912e-01,5.07982e-01,9.99187e-01,5.08395e-01,9.99999e-01
9.718941857e-01,5.15204e-01,9.99942e-01,5.15234e-01,9.99999e-01
9.767536566e-01,5.22027e-01,9.99999e-01,5.22027e-01,9.99999e-01
9.816374249e-01,5.28773e-01,9.99999e-01,5.28773e-01,9.99999e-01
9.865456120e-01,5.35470e-01,9.99999e-01,5.35470e-01,9.99999e-01
9.914783401e-01,5.42117e-01,9.99999e-01,5.42117e-01,9.99999e-01
9.964357318e-01,5.48713e-01,9.99999e-01,5.48713e-01,9.99999e-01
1.001417910e+00,5.55257e-01,9.99999e-01,5.55257e-01,9.99999e-01
1.006425000e+00,5.61747e-01,9.99999e-01,5.61747e-01,9.99999e-01
1.011457125e+00,5.68183e-01,9.99999e-01,5.68183e-01,9.99999e-01
1.016514411e+00,5.74563e-01,9.99999e-01,5.74563e-01,9.99999e-01
1.021596983e+00,5.80819e-01,9.99882e-01,5.80887e-01,9.99999e-01
1.026704968e+00,5.82236e-01,9.91626e-01,5.87153e-01,9.99999e-01
1.031838492e+00,5.47670e-01,9.22995e-01,5.93361e-01,9.99999e-01
1.036997685e+00,4.32268e-02,7.21036e-02,5.99510e-01,9.99999e-01
1.042182673e+00,8.19474e-03,1.35316e-02,6.05599e-01,9.99999e-01
1.047393587e+00,1.65027e-02,2.69815e-02,6.11629e-01,9.99999e-01
1.052630555e+00,1.65289e-05,2.67633e-05,6.17597e-01,9.99999e-01
1.057893707e+00,5.96943e-05,9.57400e-05,6.23504e-01,9.99999e-01
1.063183176e+00,6.38176e-04,1.01402e-03,6.29349e-01,9.99999e-01
1.068499092e+00,4.02584e-03,6.33859e-03,6.35132e-01,9.99999e-01
1.073841587e+00,2.52956e-02,3.94718e-02,6.40852e-01,9.99999e-01
1.079210795e+00,8.40672e-02,1.30032e-01,6.46510e-01,9.99999e-01
1.084606849e+00,2.07653e-01,3.18435e-01,6.52104e-01,9.99999e-01
1.090029883e+00,3.61747e-01,5.50073e-01,6.57634e-01,9.99999e-01
1.095480033e+00,4.93640e-01,7.44442e-01,6.63101e-01,9.99999e-01
1.100957433e+00,5.79631e-01,8.67057e-01,6.68504e-01,9.99999e-01
1.106462220e+00,6.35219e-01,9.42680e-01,6.73842e-01,9.99999e-01
1.111994531e+00,6.64410e-01,9.78343e-01,6.79117e-01,9.99999e-01
1.117554504e+00,6.80685e-01,9.94676e-01,6.84328e-01,9.99999e-01
1.123142276e+00,6.89234e-01,9.99650e-01,6.89475e-01,9.99999e-01
1.128757988e+00,6.94557e-01,9.99999e-01,6.94557e-01,9.99999e-01
1.134401778e+00,6.99575e-01,9.99999e-01,6.99575e-01,9.99999e-01
1.140073787e+00,7.04530e-01,9.99999e-01,7.04530e-01,9.99999e-01
1.145774156e+00,7.09421e-01,9.99999e-01,7.09421e-01,9.99999e-01
1.151503026e+00,7.14248e-01,9.99999e-01,7.14248e-01,9.99999e-01
1.157260541e+00,7.19011e-01,9.99999e-01,7.19011e-01,9.99999e-01
1.163046844e+00,7.23711e-01,9.99999e-01,7.23711e-01,9.99999e-01
1.168862078e+00,7.28349e-01,9.99999e-01,7.28349e-01,9.99999e-01
1.174706389e+00,7.32923e-01,9.99999e-01,7.32923e-01,9.99999e-01
1.180579921e+00,7.37435e-01,9.99999e-01,7.37435e-01,9.99999e-01
1.186482820e+00,7.41873e-01,9.99983e-01,7.41885e-01,9.99999e-01
1.192415234e+00,7.24607e-01,9.70966e-01,7.46273e-01,9.99999e-01
1.198377311e+00,4.01095e-01,5.34365e-01,7.50600e-01,9.99999e-01
1.204369197e+00,2.72781e-22,3.61364e-22,7.54865e-01,9.99999e-01
1.210391043e+00,2.37171e-88,3.12449e-88,7.59070e-01,9.99999e-01
1.216442998e+00,1.53986e-76,2.01760e-76,7.63214e-01,9.99999e-01
1.222525213e+00,2.12461e-75,2.76894e-75,7.67299e-01,9.99999e-01
1.228637839e+00,2.87464e-58,3.72689e-58,7.71324e-01,9.99999e-01
1.234781029e+00,1.64717e-36,2.12459e-36,7.75290e-01,9.99999e-01
1.240954934e+00,2.42042e-24,3.10630e-24,7.79197e-01,9.99999e-01
1.247159708e+00,4.29803e-12,5.48885e-12,7.83047e-01,9.99999e-01
1.253395507e+00,3.70839e-08,4.71302e-08,7.86839e-01,9.99999e-01
1.259662485e+00,5.24353e-05,6.63257e-05,7.90573e-01,9.99999e-01
1.265960797e+00,3.59585e-03,4.52733e-03,7.94251e-01,9.99999e-01
1.272290601e+00,6.90995e-02,8.66045e-02,7.97874e-01,9.99999e-01
1.278652054e+00,6.01913e-02,7.51039e-02,8.01440e-01,9.99999e-01
1.285045314e+00,2.00673e-04,2.49298e-04,8.04952e-01,9.99999e-01
1.291470541e+00,9.20406e-11,1.13854e-10,8.08409e-01,9.99999e-01
1.297927893e+00,2.44589e-04,3.01288e-04,8.11812e-01,9.99999e-01
1.304417533e+00,9.13228e-03,1.12030e-02,8.15162e-01,9.99999e-01
1.310939621e+00,2.17745e-03,2.66042e-03,8.18460e-01,9.99999e-01
1.317494319e+00,2.15096e-30,2.61768e-30,8.21705e-01,9.99999e-01
1.324081790e+00,3.70191e-20,4.48772e-20,8.24898e-01,9.99999e-01
1.330702199e+00,5.57802e-12,6.73640e-12,8.28041e-01,9.99999e-01
1.337355710e+00,3.90513e-11,4.69856e-11,8.31133e-01,9.99999e-01
1.344042489e+00,1.72866e-11,2.07230e-11,8.34175e-01,9.99999e-01
1.350762701e+00,2.97140e-12,3.54934e-12,8.37168e-01,9.99999e-01
1.357516515e+00,9.59973e-08,1.14267e-07,8.40112e-01,9.99999e-01
1.364304097e+00,1.21567e-05,1.44207e-05,8.43008e-01,9.99999e-01
1.371125618e+00,2.82566e-03,3.34059e-03,8.45856e-01,9.99999e-01
1.377981246e+00,6.51003e-03,7.67097e-03,8.48658e-01,9.99999e-01
1.384871152e+00,4.98798e-02,5.85846e-02,8.51413e-01,9.99999e-01
1.391795508e+00,6.22838e-02,7.29213e-02,8.54123e-01,9.99999e-01
1.398754485e+00,1.66666e-01,1.94524e-01,8.56787e-01,9.99999e-01
1.405748258e+00,2.59753e-01,3.02246e-01,8.59407e-01,9.99999e-01
1.412776999e+00,4.03217e-01,4.67778e-01,8.61983e-01,9.99999e-01
1.419840884e+00,3.66684e-01,4.24149e-01,8.64515e-01,9.99999e-01
1.426940089e+00,1.74877e-02,2.01703e-02,8.67005e-01,9.99999e-01
1.434074789e+00,0.00000e+00,0.00000e+00,8.69452e-01,9.99999e-01
1.441245163e+00,0.00000e+00,0.00000e+00,8.71858e-01,9.99999e-01
1.448451389e+00,0.00000e+00,0.00000e+00,8.74223e-01,9.99999e-01
1.455693646e+00,0.00000e+00,0.00000e+00,8.76547e-01,9.99999e-01
1.462972114e+00,0.00000e+00,0.00000e+00,8.78831e-01,9.99999e-01
1.470286975e+00,4.73973e-146,5.37948e-146,8.81076e-01,9.99999e-01
1.477638409e+00,7.73358e-92,8.75550e-92,8.83282e-01,9.99999e-01
1.485026601e+00,3.36057e-51,3.79532e-51,8.85450e-01,9.99999e-01
1.492451734e+00,1.26866e-43,1.42935e-43,8.87581e-01,9.99999e-01
1.499913993e+00,5.00586e-19,5.62662e-19,8.89674e-01,9.99999e-01
1.507413563e+00,8.66859e-18,9.72108e-18,8.91731e-01,9.99999e-01
1.514950631e+00,2.90286e-19,3.24795e-19,8.93751e-01,9.99999e-01
1.522525384e+00,2.56110e-65,2.85921e-65,8.95736e-01,9.99999e-01
1.530138011e+00,7.46376e-156,8.31443e-156,8.97687e-01,9.99999e-01
1.537788701e+00,2.58172e-115,2.86984e-115,8.99603e-01,9.99999e-01
1.545477645e+00,1.97965e-24,2.19599e-24,9.01485e-01,9.99999e-01
1.553205033e+00,8.91649e-18,9.87064e-18,9.03333e-01,9.99999e-01
1.560971058e+00,4.03726e-18,4.46032e-18,9.05149e-01,9.99999e-01
1.568775913e+00,0.00000e+00,0.00000e+00,9.06932e-01,9.99999e-01
1.576619793e+00,0.00000e+00,0.00000e+00,9.08684e-01,9.99999e-01
1.584502892e+00,0.00000e+00,0.00000e+00,9.10404e-01,9.99999e-01
1.592425406e+00,0.00000e+00,0.00000e+00,9.12094e-01,9.99999e-01
1.600387533e+00,0.00000e+00,0.00000e+00,9.13753e-01,9.99999e-01
1.608389471e+00,0.00000e+00,0.00000e+00,9.15383e-01,9.99999e-01
1.616431418e+00,0.00000e+00,0.00000e+00,9.16983e-01,9.99999e-01
1.624513575e+00,0.00000e+00,0.00000e+00,9.18554e-01,9.99999e-01
1.632636143e+00,0.00000e+00,0.00000e+00,9.20096e-01,9.99999e-01
1.640799324e+00,2.57047e-135,2.78910e-135,9.21611e-01,9.99999e-01
1.649003321e+00,2.57357e-135,2.78796e-135,9.23098e-01,9.99999e-01
1.657248337e+00,1.37270e-104,1.48471e-104,9.24558e-01,9.99999e-01
1.665534579e+00,2.74877e-105,2.96845e-105,9.25992e-01,9.99999e-01
1.673862252e+00,3.65306e-67,3.93903e-67,9.27399e-01,9.99999e-01
1.682231563e+00,1.56132e-46,1.68104e-46,9.28781e-01,9.99999e-01
1.690642721e+00,6.84645e-26,7.36067e-26,9.30137e-01,9.99999e-01
1.699095934e+00,1.44575e-16,1.55212e-16,9.31469e-01,9.99999e-01
1.707591414e+00,1.15674e-08,1.24010e-08,9.32776e-01,9.99999e-01
1.716129371e+00,2.35851e-05,2.52501e-05,9.34059e-01,9.99999e-01
1.724710018e+00,2.15731e-03,2.30650e-03,9.35319e-01,9.99999e-01
1.733333568e+00,1.65405e-02,1.76610e-02,9.36555e-01,9.99999e-01
1.742000236e+00,8.87954e-02,9.46880e-02,9.37768e-01,9.99999e-01
1.750710237e+00,4.82029e-04,5.13365e-04,9.38959e-01,9.99999e-01
1.759463788e+00,3.91129e-64,4.16038e-64,9.40128e-01,9.99999e-01
1.768261107e+00,4.05462e-67,4.30758e-67,9.41275e-01,9.99999e-01
1.777102413e+00,2.36556e-65,2.51014e-65,9.42401e-01,9.99999e-01
1.785987925e+00,3.01823e-61,3.19895e-61,9.43506e-01,9.99999e-01
1.794917864e+00,1.72662e-58,1.82791e-58,9.44590e-01,9.99999e-01
1.803892454e+00,3.22506e-56,3.41039e-56,9.45654e-01,9.99999e-01
1.812911916e+00,5.07086e-54,5.35636e-54,9.46699e-01,9.99999e-01
1.821976476e+00,4.41523e-54,4.65877e-54,9.47723e-01,9.99999e-01
1.831086358e+00,1.94795e-43,2.05322e-43,9.48729e-01,9.99999e-01
1.840241790e+00,5.27559e-37,5.55491e-37,9.49716e-01,9.99999e-01
1.849442999e+00,9.87323e-26,1.03854e-25,9.50684e-01,9.99999e-01
1.858690214e+00,3.43812e-24,3.61286e-24,9.51634e-01,9.99999e-01
1.867983665e+00,8.29878e-25,8.71201e-25,9.52567e-01,9.99999e-01
1.877323583e+00,1.55081e-122,1.62647e-122,9.53481e-01,9.99999e-01
