#,Wave/freq,Total,CO2,Rayleigh,CIA
4.000000000e-01,3.27022e-05,9.99999e-01,3.27022e-05,9.99999e-01
4.020000000e-01,4.01113e-05,9.99999e-01,4.01113e-05,9.99999e-01
4.040100000e-01,4.89907e-05,9.99999e-01,4.89907e-05,9.99999e-01
4.060300500e-01,5.95997e-05,9.99999e-01,5.95997e-05,9.99999e-01
4.080602003e-01,7.22260e-05,9.99999e-01,7.22260e-05,9.99999e-01
4.101005013e-01,8.71956e-05,9.99999e-01,8.71956e-05,9.99999e-01
4.121510038e-01,1.04877e-04,9.99999e-01,1.04877e-04,9.99999e-01
4.142117588e-01,1.25684e-04,9.99999e-01,1.25684e-04,9.99999e-01
4.162828176e-01,1.50083e-04,9.99999e-01,1.50083e-04,9.99999e-01
4.183642317e-01,1.78590e-04,9.99999e-01,1.78590e-04,9.99999e-01
4.204560528e-01,2.11784e-04,9.99999e-01,2.11784e-04,9.99999e-01
4.225583331e-01,2.50302e-04,9.99999e-01,2.50302e-04,9.99999e-01
4.246711247e-01,2.94852e-04,9.99999e-01,2.94852e-04,9.99999e-01
4.267944804e-01,3.46209e-04,9.99999e-01,3.46209e-04,9.99999e-01
4.289284528e-01,4.05224e-04,9.99999e-01,4.05224e-04,9.99999e-01
4.310730950e-01,4.72826e-04,9.99999e-01,4.72826e-04,9.99999e-01
4.332284605e-01,5.50027e-04,9.99999e-01,5.50027e-04,9.99999e-01
4.353946028e-01,6.37925e-04,9.99999e-01,6.37925e-04,9.99999e-01
4.375715758e-01,7.37706e-04,9.99999e-01,7.37706e-04,9.99999e-01
4.397594337e-01,8.50649e-04,9.99999e-01,8.50649e-04,9.99999e-01
4.419582309e-01,9.78128e-04,9.99999e-01,9.78128e-04,9.99999e-01
4.441680220e-01,1.12161e-03,9.99999e-01,1.12161e-03,9.99999e-01
4.463888621e-01,1.28267e-03,9.99999e-01,1.28267e-03,9.99999e-01
4.486208064e-01,1.46298e-03,9.99999e-01,1.46298e-03,9.99999e-01
4.508639105e-01,1.66430e-03,9.99999e-01,1.66430e-03,9.99999e-01
4.531182300e-01,1.88851e-03,9.99999e-01,1.88851e-03,9.99999e-01
4.553838212e-01,2.13758e-03,9.99999e-01,2.13758e-03,9.99999e-01
4.576607403e-01,2.41359e-03,9.99999e-01,2.41359e-03,9.99999e-01
4.599490440e-01,2.71870e-03,9.99999e-01,2.71870e-03,9.99999e-01
4.622487892e-01,3.05520e-03,9.99999e-01,3.05520e-03,9.99999e-01
4.645600332e-01,3.42544e-03,9.99999e-01,3.42544e-03,9.99999e-01
4.668828333e-01,3.83188e-03,9.99999e-01,3.83188e-03,9.99999e-01
4.692172475e-01,4.27706e-03,9.99999e-01,4.27706e-03,9.99999e-01
4.715633337e-01,4.76361e-03,9.99999e-01,4.76361e-03,9.99999e-01
4.739211504e-01,5.29422e-03,9.99999e-01,5.29422e-03,9.99999e-01
4.762907561e-01,5.87169e-03,9.99999e-01,5.87169e-03,9.99999e-01
4.786722099e-01,6.49883e-03,9.99999e-01,6.49883e-03,9.99999e-01
4.810655710e-01,7.17856e-03,9.99999e-01,7.17856e-03,9.99999e-01
4.834708988e-01,7.91381e-03,9.99999e-01,7.91381e-03,9.99999e-01
4.858882533e-01,8.70759e-03,9.99999e-01,8.70759e-03,9.99999e-01
4.883176946e-01,9.56291e-03,9.99999e-01,9.56291e-03,9.99999e-01
4.907592831e-01,1.04828e-02,9.99999e-01,1.04828e-02,9.99999e-01
4.932130795e-01,1.14704e-02,9.99999e-01,1.14704e-02,9.99999e-01
4.956791449e-01,1.25287e-02,9.99999e-01,1.25287e-02,9.99999e-01
4.981575406e-01,1.36609e-02,9.99999e-01,1.36609e-02,9.99999e-01
5.006483283e-01,1.48699e-02,9.99999e-01,1.48699e-02,9.99999e-01
5.031515699e-01,1.61588e-02,9.99999e-01,1.61588e-02,9.99999e-01
5.056673278e-01,1.75306e-02,9.99999e-01,1.75306e-02,9.99999e-01
5.081956644e-01,1.89883e-02,9.99999e-01,1.89883e-02,9.99999e-01
5.107366428e-01,2.05348e-02,9.99999e-01,2.05348e-02,9.99999e-01
5.132903260e-01,2.21729e-02,9.99999e-01,2.21729e-02,9.99999e-01
5.158567776e-01,2.39054e-02,9.99999e-01,2.39054e-02,9.99999e-01
5.184360615e-01,2.57351e-02,9.99999e-01,2.57351e-02,9.99999e-01
5.210282418e-01,2.76644e-02,9.99999e-01,2.76644e-02,9.99999e-01
5.236333830e-01,2.96960e-02,9.99999e-01,2.96960e-02,9.99999e-01
5.262515499e-01,3.18321e-02,9.99999e-01,3.18321e-02,9.99999e-01
5.288828077e-01,3.40751e-02,9.99999e-01,3.40751e-02,9.99999e-01
5.315272217e-01,3.64272e-02,9.99999e-01,3.64272e-02,9.99999e-01
5.341848578e-01,3.88903e-02,9.99999e-01,3.88903e-02,9.99999e-01
5.368557821e-01,4.14663e-02,9.99999e-01,4.14663e-02,9.99999e-01
5.395400610e-01,4.41569e-02,9.99999e-01,4.41569e-02,9.99999e-01
5.422377613e-01,4.69638e-02,9.99999e-01,4.69638e-02,9.99999e-01
5.449489501e-01,4.98884e-02,9.99999e-01,4.98884e-02,9.99999e-01
5.476736949e-01,5.29319e-02,9.99999e-01,5.29319e-02,9.99999e-01
5.504120634e-01,5.60954e-02,9.99999e-01,5.60954e-02,9.99999e-01
5.531641237e-01,5.93798e-02,9.99999e-01,5.93798e-02,9.99999e-01
5.559299443e-01,6.27860e-02,9.99999e-01,6.27860e-02,9.99999e-01
5.587095940e-01,6.63144e-02,9.99999e-01,6.63144e-02,9.99999e-01
5.615031420e-01,6.99655e-02,9.99999e-01,6.99655e-02,9.99999e-01
5.643106577e-01,7.37395e-02,9.99999e-01,7.37395e-02,9.99999e-01
5.671322110e-01,7.76365e-02,9.99999e-01,7.76365e-02,9.99999e-01
5.699678720e-01,8.16563e-02,9.99999e-01,8.16563e-02,9.99999e-01
5.728177114e-01,8.57987e-02,9.99999e-01,8.57987e-02,9.99999e-01
5.756818000e-01,9.00632e-02,9.99999e-01,9.00632e-02,9.99999e-01
5.785602090e-01,9.44490e-02,9.99999e-01,9.44490e-02,9.99999e-01
5.814530100e-01,9.89555e-02,9.99999e-01,9.89555e-02,9.99999e-01
5.843602750e-01,1.03582e-01,9.99999e-01,1.03582e-01,9.99999e-01
5.872820764e-01,1.08326e-01,9.99999e-01,1.08326e-01,9.99999e-01
5.902184868e-01,1.13188e-01,9.99999e-01,1.13188e-01,9.99999e-01
5.931695792e-01,1.18165e-01,9.99999e-01,1.18165e-01,9.99999e-01
5.961354271e-01,1.23256e-01,9.99999e-01,1.23256e-01,9.99999e-01
5.991161043e-01,1.28460e-01,9.99999e-01,1.28460e-01,9.99999e-01
6.021116848e-01,1.33774e-01,9.99999e-01,1.33774e-01,9.99999e-01
6.051222432e-01,1.39197e-01,9.99999e-01,1.39197e-01,9.99999e-01
6.081478544e-01,1.44725e-01,9.99999e-01,1.44725e-01,9.99999e-01
6.111885937e-01,1.50358e-01,9.99999e-01,1.50358e-01,9.99999e-01
6.142445367e-01,1.56092e-01,9.99999e-01,1.56092e-01,9.99999e-01
6.173157594e-01,1.61924e-01,9.99999e-01,1.61924e-01,9.99999e-01
6.204023382e-01,1.67853e-01,9.99999e-01,1.67853e-01,9.99999e-01
6.235043498e-01,1.73876e-01,9.99999e-01,1.73876e-01,9.99999e-01
6.266218716e-01,1.79989e-01,9.99999e-01,1.79989e-01,9.99999e-01
6.297549810e-01,1.86191e-01,9.99999e-01,1.86191e-01,9.99999e-01
6.329037559e-01,1.92477e-01,9.99999e-01,1.92477e-01,9.99999e-01
6.360682746e-01,1.98844e-01,9.99999e-01,1.98844e-01,9.99999e-01
6.392486160e-01,2.05291e-01,9.99999e-01,2.05291e-01,9.99999e-01
6.424448591e-01,2.11812e-01,9.99999e-01,2.11812e-01,9.99999e-01
6.456570834e-01,2.18407e-01,9.99999e-01,2.18407e-01,9.99999e-01
6.488853688e-01,2.25070e-01,9.99999e-01,2.25070e-01,9.99999e-01
6.521297956e-01,2.31798e-01,9.99999e-01,2.31798e-01,9.99999e-01
6.553904446e-01,2.38589e-01,9.99999e-01,2.38589e-01,9.99999e-01
6.586673968e-01,2.45439e-01,9.99999e-01,2.45439e-01,9.99999e-01
6.619607338e-01,2.52344e-01,9.99999e-01,2.52344e-01,9.99999e-01
6.652705375e-01,2.59302e-01,9.99999e-01,2.59302e-01,9.99999e-01
6.685968902e-01,2.66308e-01,9.99999e-01,2.66308e-01,9.99999e-01
6.719398746e-01,2.73360e-01,9.99999e-01,2.73360e-01,9.99999e-01
6.752995740e-01,2.80453e-01,9.99999e-01,2.80453e-01,9.99999e-01
6.786760719e-01,2.87585e-01,9.99999e-01,2.87585e-01,9.99999e-01
6.820694522e-01,2.94752e-01,9.99999e-01,2.94752e-01,9.99999e-01
6.854797995e-01,3.01951e-01,9.99999e-01,3.01951e-01,9.99999e-01
6.889071985e-01,3.09179e-01,9.99999e-01,3.09179e-01,9.99999e-01
6.923517345e-01,3.16431e-01,9.99999e-01,3.16431e-01,9.99999e-01
6.958134932e-01,3.23705e-01,9.99999e-01,3.23705e-01,9.99999e-01
6.992925606e-01,3.30998e-01,9.99999e-01,3.30998e-01,9.99999e-01
7.027890234e-01,3.38306e-01,9.99999e-01,3.38306e-01,9.99999e-01
7.063029686e-01,3.45627e-01,9.99999e-01,3.45627e-01,9.99999e-01
7.098344834e-01,3.52956e-01,9.99999e-01,3.52956e-01,9.99999e-01
7.133836558e-01,3.60292e-01,9.99999e-01,3.60292e-01,9.99999e-01
7.169505741e-01,3.67631e-01,9.99999e-01,3.67631e-01,9.99999e-01
7.205353270e-01,3.74970e-01,9.99999e-01,3.74970e-01,9.99999e-01
7.241380036e-01,3.82306e-01,9.99999e-01,3.82306e-01,9.99999e-01
7.277586936e-01,3.89636e-01,9.99999e-01,3.89636e-01,9.99999e-01
7.313974871e-01,3.96958e-01,9.99999e-01,3.96958e-01,9.99999e-01
7.350544745e-01,4.04269e-01,9.99999e-01,4.04269e-01,9.99999e-01
7.387297469e-01,4.11566e-01,9.99999e-01,4.11566e-01,9.99999e-01
7.424233956e-01,4.18847e-01,9.99999e-01,4.18847e-01,9.99999e-01
7.461355126e-01,4.26109e-01,9.99999e-01,4.26109e-01,9.99999e-01
7.498661902e-01,4.33350e-01,9.99999e-01,4.33350e-01,9.99999e-01
7.536155211e-01,4.40567e-01,9.99999e-01,4.40567e-01,9.99999e-01
7.573835987e-01,4.47758e-01,9.99999e-01,4.47758e-01,9.99999e-01
7.611705167e-01,4.54921e-01,9.99999e-01,4.54921e-01,9.99999e-01
7.649763693e-01,4.62054e-01,9.99999e-01,4.62054e-01,9.99999e-01
7.688012511e-01,4.69155e-01,9.99999e-01,4.69155e-01,9.99999e-01
7.726452574e-01,4.76221e-01,9.99999e-01,4.76221e-01,9.99999e-01
7.765084837e-01,4.83251e-01,9.99999e-01,4.83251e-01,9.99999e-01
7.803910261e-01,4.73782e-01,9.66423e-01,4.90242e-01,9.99999e-01
7.842929812e-01,4.27652e-01,8.60130e-01,4.97194e-01,9.99999e-01
7.882144461e-01,4.28988e-01,8.50991e-01,5.04104e-01,9.99999e-01
7.921555184e-01,4.65091e-01,9.10210e-01,5.10971e-01,9.99999e-01
7.961162960e-01,4.86187e-01,9.38959e-01,5.17793e-01,9.99999e-01
8.000968774e-01,5.06966e-01,9.66442e-01,5.24569e-01,9.99999e-01
8.040973618e-01,5.21986e-01,9.82475e-01,5.31296e-01,9.99999e-01
8.081178486e-01,5.33628e-01,9.91918e-01,5.37975e-01,9.99999e-01
8.121584379e-01,5.43241e-01,9.97497e-01,5.44603e-01,9.99999e-01
8.162192301e-01,5.50875e-01,9.99446e-01,5.51180e-01,9.99999e-01
8.203003262e-01,5.57699e-01,9.99991e-01,5.57704e-01,9.99999e-01
8.244018279e-01,5.64173e-01,9.99999e-01,5.64173e-01,9.99999e-01
8.285238370e-01,5.70588e-01,9.99999e-01,5.70588e-01,9.99999e-01
8.326664562e-01,5.76947e-01,9.99999e-01,5.76947e-01,9.99999e-01
8.368297885e-01,5.83249e-01,9.99999e-01,5.83249e-01,9.99999e-01
8.410139374e-01,5.89494e-01,9.99999e-01,5.89494e-01,9.99999e-01
8.452190071e-01,5.95680e-01,9.99999e-01,5.95680e-01,9.99999e-01
8.494451021e-01,6.01806e-01,9.99999e-01,6.01806e-01,9.99999e-01
8.536923276e-01,6.07873e-01,9.99999e-01,6.07873e-01,9.99999e-01
8.579607893e-01,6.13880e-01,9.99999e-01,6.13880e-01,9.99999e-01
8.622505932e-01,6.19825e-01,9.99999e-01,6.19825e-01,9.99999e-01
8.665618462e-01,5.79186e-01,9.25647e-01,6.25709e-01,9.99999e-01
8.708946554e-01,4.30663e-01,6.81934e-01,6.31531e-01,9.99999e-01
8.752491287e-01,4.68168e-01,7.34622e-01,6.37290e-01,9.99999e-01
8.796253743e-01,5.42798e-01,8.44182e-01,6.42987e-01,9.99999e-01
8.840235012e-01,5.94085e-01,9.15921e-01,6.48620e-01,9.99999e-01
8.884436187e-01,6.31939e-01,9.65986e-01,6.54190e-01,9.99999e-01
8.928858368e-01,6.50517e-01,9.86084e-01,6.59697e-01,9.99999e-01
8.973502660e-01,6.62881e-01,9.96603e-01,6.65139e-01,9.99999e-01
9.018370173e-01,6.70267e-01,9.99625e-01,6.70518e-01,9.99999e-01
9.063462024e-01,6.69358e-01,9.90418e-01,6.75833e-01,9.99999e-01
9.108779334e-01,6.66191e-01,9.78133e-01,6.81084e-01,9.99999e-01
9.154323231e-01,6.82719e-01,9.94825e-01,6.86270e-01,9.99999e-01
9.200094847e-01,6.41144e-01,9.27321e-01,6.91393e-01,9.99999e-01
9.246095321e-01,6.25013e-01,8.97425e-01,6.96451e-01,9.99999e-01
9.292325798e-01,6.44410e-01,9.18687e-01,7.01446e-01,9.99999e-01
9.338787427e-01,6.50772e-01,9.21282e-01,7.06376e-01,9.99999e-01
9.385481364e-01,6.69661e-01,9.41535e-01,7.11243e-01,9.99999e-01
9.432408771e-01,6.90122e-01,9.63795e-01,7.16046e-01,9.99999e-01
9.479570815e-01,7.07280e-01,9.81261e-01,7.20786e-01,9.99999e-01
9.526968669e-01,7.18877e-01,9.90922e-01,7.25462e-01,9.99999e-01
9.574603512e-01,7.27236e-01,9.96109e-01,7.30076e-01,9.99999e-01
9.622476530e-01,7.33735e-01,9.98784e-01,7.34627e-01,9.99999e-01
9.670588912e-01,7.38847e-01,9.99635e-01,7.39115e-01,9.99999e-01
9.718941857e-01,7.43523e-01,9.99973e-01,7.43542e-01,9.99999e-01
9.767536566e-01,7.47907e-01,9.99999e-01,7.47907e-01,9.99999e-01
9.816374249e-01,7.52211e-01,9.99999e-01,7.52211e-01,9.99999e-01
9.865456120e-01,7.56453e-01,9.99999e-01,7.56453e-01,9.99999e-01
9.914783401e-01,7.60635e-01,9.99999e-01,7.60635e-01,9.99999e-01
9.964357318e-01,7.64757e-01,9.99999e-01,7.64757e-01,9.99999e-01
1.001417910e+00,7.68819e-01,9.99999e-01,7.68819e-01,9.99999e-01
1.006425000e+00,7.72822e-01,9.99999e-01,7.72822e-01,9.99999e-01
1.011457125e+00,7.76766e-01,9.99999e-01,7.76766e-01,9.99999e-01
1.016514411e+00,7.80651e-01,9.99999e-01,7.80651e-01,9.99999e-01
1.021596983e+00,7.84439e-01,9.99948e-01,7.84479e-01,9.99999e-01
1.026704968e+00,7.85299e-01,9.96256e-01,7.88249e-01,9.99999e-01
1.031838492e+00,7.56965e-01,9.55808e-01,7.91963e-01,9.99999e-01
1.036997685e+00,1.21852e-01,1.53154e-01,7.95620e-01,9.99999e-01
1.042182673e+00,9.63779e-02,1.20590e-01,7.99221e-01,9.99999e-01
1.047393587e+00,1.14247e-01,1.42317e-01,8.02767e-01,9.99999e-01
1.052630555e+00,3.21376e-03,3.98602e-03,8.06258e-01,9.99999e-01
1.057893707e+00,8.18330e-03,1.01066e-02,8.09695e-01,9.99999e-01
1.063183176e+00,2.74414e-02,3.37500e-02,8.13078e-01,9.99999e-01
1.068499092e+00,7.73960e-02,9.48005e-02,8.16408e-01,9.99999e-01
1.073841587e+00,1.84858e-01,2.25522e-01,8.19686e-01,9.99999e-01
1.079210795e+00,3.20471e-01,3.89435e-01,8.22911e-01,9.99999e-01
1.084606849e+00,4.91526e-01,5.95006e-01,8.26086e-01,9.99999e-01
1.090029883e+00,6.33292e-01,7.63729e-01,8.29209e-01,9.99999e-01
1.095480033e+00,7.28773e-01,8.75631e-01,8.32282e-01,9.99999e-01
1.100957433e+00,7.83537e-01,9.38023e-01,8.35306e-01,9.99999e-01
1.106462220e+00,8.16394e-01,9.73891e-01,8.38280e-01,9.99999e-01
1.111994531e+00,8.32999e-01,9.90242e-01,8.41206e-01,9.99999e-01
1.117554504e+00,8.42067e-01,9.97609e-01,8.44084e-01,9.99999e-01
1.123142276e+00,8.46782e-01,9.99842e-01,8.46915e-01,9.99999e-01
1.128757988e+00,8.49699e-01,9.99999e-01,8.49699e-01,9.99999e-01
1.134401778e+00,8.52437e-01,9.99999e-01,8.52437e-01,9.99999e-01
1.140073787e+00,8.55130e-01,9.99999e-01,8.55130e-01,9.99999e-01
1.145774156e+00,8.57777e-01,9.99999e-01,8.57777e-01,9.99999e-01
1.151503026e+00,8.60380e-01,9.99999e-01,8.60380e-01,9.99999e-01
1.157260541e+00,8.62940e-01,9.99999e-01,8.62940e-01,9.99999e-01
1.163046844e+00,8.65456e-01,9.99999e-01,8.65456e-01,9.99999e-01
1.168862078e+00,8.67930e-01,9.99999e-01,8.67930e-01,9.99999e-01
1.174706389e+00,8.70361e-01,9.99999e-01,8.70361e-01,9.99999e-01
1.180579921e+00,8.72752e-01,9.99999e-01,8.72752e-01,9.99999e-01
1.186482820e+00,8.75095e-01,9.99992e-01,8.75101e-01,9.99999e-01
1.192415234e+00,8.65739e-01,9.86697e-01,8.77410e-01,9.99999e-01
1.198377311e+00,4.93974e-01,5.61538e-01,8.79680e-01,9.99999e-01
1.204369197e+00,3.31773e-11,3.76197e-11,8.81910e-01,9.99999e-01
1.210391043e+00,1.00053e-40,1.13169e-40,8.84102e-01,9.99999e-01
1.216442998e+00,1.89979e-35,2.14361e-35,8.86256e-01,9.99999e-01
1.222525213e+00,6.14406e-35,6.91609e-35,8.88372e-01,9.99999e-01
1.228637839e+00,4.63056e-27,5.20023e-27,8.90451e-01,9.99999e-01
1.234781029e+00,1.46892e-17,1.64585e-17,8.92494e-01,9.99999e-01
1.240954934e+00,7.30754e-12,8.16939e-12,8.94502e-01,9.99999e-01
1.247159708e+00,1.30307e-06,1.45355e-06,8.96474e-01,9.99999e-01
1.253395507e+00,2.87472e-04,3.19978e-04,8.98411e-01,9.99999e-01
1.259662485e+00,8.91187e-03,9.89862e-03,9.00314e-01,9.99999e-01
1.265960797e+00,6.24320e-02,6.92009e-02,9.02183e-01,9.99999e-01
1.272290601e+00,2.91965e-01,3.22963e-01,9.04020e-01,9.99999e-01
1.278652054e+00,2.49736e-01,2.75700e-01,9.05823e-01,9.99999e-01
1.285045314e+00,5.04123e-03,5.55449e-03,9.07595e-01,9.99999e-01
1.291470541e+00,1.83820e-05,2.02147e-05,9.09335e-01,9.99999e-01
1.297927893e+00,4.42784e-03,4.86019e-03,9.11043e-01,9.99999e-01
1.304417533e+00,1.16627e-01,1.27779e-01,9.12721e-01,9.99999e-01
1.310939621e+00,2.83116e-02,3.09630e-02,9.14369e-01,9.99999e-01
1.317494319e+00,1.82387e-14,1.99115e-14,9.15987e-01,9.99999e-01
1.324081790e+00,4.97600e-10,5.42298e-10,9.17577e-01,9.99999e-01
1.330702199e+00,6.24258e-06,6.79178e-06,9.19137e-01,9.99999e-01
1.337355710e+00,8.12703e-06,8.82730e-06,9.20669e-01,9.99999e-01
1.344042489e+00,2.46484e-06,2.67286e-06,9.22173e-01,9.99999e-01
1.350762701e+00,3.89157e-06,4.21324e-06,9.23650e-01,9.99999e-01
1.357516515e+00,3.34071e-04,3.61118e-04,9.25100e-01,9.99999e-01
1.364304097e+00,5.28004e-03,5.69876e-03,9.26524e-01,9.99999e-01
1.371125618e+00,6.27505e-02,6.76247e-02,9.27922e-01,9.99999e-01
1.377981246e+00,1.01826e-01,1.09573e-01,9.29294e-01,9.99999e-01
1.384871152e+00,2.57026e-01,2.76182e-01,9.30641e-01,9.99999e-01
1.391795508e+00,2.83814e-01,3.04533e-01,9.31963e-01,9.99999e-01
1.398754485e+00,4.47938e-01,4.79970e-01,9.33261e-01,9.99999e-01
1.405748258e+00,5.44405e-01,5.82541e-01,9.34535e-01,9.99999e-01
1.412776999e+00,6.65135e-01,7.10776e-01,9.35786e-01,9.99999e-01
1.419840884e+00,5.98941e-01,6.39202e-01,9.37014e-01,9.99999e-01
1.426940089e+00,5.53437e-02,5.89880e-02,9.38218e-01,9.99999e-01
1.434074789e+00,0.00000e+00,0.00000e+00,9.39401e-01,9.99999e-01
1.441245163e+00,0.00000e+00,0.00000e+00,9.40562e-01,9.99999e-01
1.448451389e+00,0.00000e+00,0.00000e+00,9.41701e-01,9.99999e-01
1.455693646e+00,0.00000e+00,0.00000e+00,9.42819e-01,9.99999e-01
1.462972114e+00,1.99019e-158,2.10843e-158,9.43916e-01,9.99999e-01
1.470286975e+00,1.63374e-66,1.72884e-66,9.44993e-01,9.99999e-01
1.477638409e+00,2.76362e-42,2.92122e-42,9.46049e-01,9.99999e-01
1.485026601e+00,4.42765e-24,4.67502e-24,9.47086e-01,9.99999e-01
1.492451734e+00,1.61096e-20,1.69913e-20,9.48104e-01,9.99999e-01
1.499913993e+00,1.18941e-09,1.25320e-09,9.49102e-01,9.99999e-01
1.507413563e+00,1.86458e-08,1.96255e-08,9.50082e-01,9.99999e-01
1.514950631e+00,7.48846e-10,7.87393e-10,9.51043e-01,9.99999e-01
1.522525384e+00,1.96268e-30,2.06166e-30,9.51987e-01,9.99999e-01
1.530138011e+00,7.14033e-71,7.49315e-71,9.52913e-01,9.99999e-01
1.537788701e+00,9.20239e-53,9.64791e-53,9.53821e-01,9.99999e-01
1.545477645e+00,3.67420e-12,3.84849e-12,9.54712e-01,9.99999e-01
1.553205033e+00,1.50518e-08,1.57514e-08,9.55586e-01,9.99999e-01
1.560971058e+00,4.39848e-09,4.59878e-09,9.56444e-01,9.99999e-01
1.568775913e+00,1.05534e-177,1.10242e-177,9.57286e-01,9.99999e-01
1.576619793e+00,0.00000e+00,0.00000e+00,9.58112e-01,9.99999e-01
1.584502892e+00,4.75176e-227,4.95531e-227,9.58922e-01,9.99999e-01
1.592425406e+00,1.81269e-158,1.88877e-158,9.59717e-01,9.99999e-01
1.600387533e+00,6.35874e-255,6.62026e-255,9.60496e-01,9.99999e-01
1.608389471e+00,0.00000e+00,0.00000e+00,9.61261e-01,9.99999e-01
1.616431418e+00,0.00000e+00,0.00000e+00,9.62012e-01,9.99999e-01
1.624513575e+00,4.27797e-201,4.44349e-201,9.62748e-01,9.99999e-01
1.632636143e+00,1.42022e-149,1.47407e-149,9.63470e-01,9.99999e-01
1.640799324e+00,1.02597e-61,1.06409e-61,9.64179e-01,9.99999e-01
1.649003321e+00,1.04080e-61,1.07869e-61,9.64874e-01,9.99999e-01
1.657248337e+00,5.87881e-48,6.08852e-48,9.65555e-01,9.99999e-01
1.665534579e+00,2.84456e-48,2.94399e-48,9.66224e-01,9.99999e-01
1.673862252e+00,3.38460e-31,3.50054e-31,9.66880e-01,9.99999e-01
1.682231563e+00,5.58141e-22,5.76875e-22,9.67523e-01,9.99999e-01
1.690642721e+00,8.79580e-13,9.08511e-13,9.68155e-01,9.99999e-01
1.699095934e+00,2.60272e-08,2.68661e-08,9.68774e-01,9.99999e-01
1.707591414e+00,9.43494e-05,9.73295e-05,9.69381e-01,9.99999e-01
1.716129371e+00,5.49473e-03,5.66480e-03,9.69976e-01,9.99999e-01
1.724710018e+00,5.65828e-02,5.82991e-02,9.70561e-01,9.99999e-01
1.733333568e+00,1.53536e-01,1.58100e-01,9.71134e-01,9.99999e-01
1.742000236e+00,3.20989e-01,3.30339e-01,9.71696e-01,9.99999e-01
1.750710237e+00,8.72051e-03,8.96943e-03,9.72247e-01,9.99999e-01
1.759463788e+00,8.99658e-30,9.24824e-30,9.72788e-01,9.99999e-01
1.768261107e+00,3.07536e-31,3.15966e-31,9.73318e-01,9.99999e-01
1.777102413e+00,4.48661e-30,4.60714e-30,9.73838e-01,9.99999e-01
1.785987925e+00,1.44874e-28,1.48688e-28,9.74348e-01,9.99999e-01
1.794917864e+00,3.17709e-27,3.25905e-27,9.74848e-01,9.99999e-01
1.803892454e+00,2.28824e-26,2.34610e-26,9.75339e-01,9.99999e-01
1.812911916e+00,2.98788e-25,3.06192e-25,9.75820e-01,9.99999e-01
1.821976476e+00,2.13578e-25,2.18765e-25,9.76292e-01,9.99999e-01
1.831086358e+00,1.21397e-20,1.24286e-20,9.76755e-01,9.99999e-01
1.840241790e+00,1.46066e-17,1.49472e-17,9.77209e-01,9.99999e-01
1.849442999e+00,2.61368e-12,2.67342e-12,9.77654e-01,9.99999e-01
1.858690214e+00,2.15278e-11,2.20100e-11,9.78090e-01,9.99999e-01
1.867983665e+00,3.57954e-12,3.65812e-12,9.78518e-01,9.99999e-01
1.877323583e+00,5.50038e-56,5.61871e-56,9.78938e-01,9.99999e-01
