#,Wave/freq,Total,CO2,Rayleigh,CIA
4.000000000e-01,8.06284e-16,9.99999e-01,8.06284e-16,9.99999e-01
4.020000000e-01,1.60296e-15,9.99999e-01,1.60296e-15,9.99999e-01
4.040100000e-01,3.14167e-15,9.99999e-01,3.14167e-15,9.99999e-01
4.060300500e-01,6.07614e-15,9.99999e-01,6.07614e-15,9.99999e-01
4.080602003e-01,1.15994e-14,9.99999e-01,1.15994e-14,9.99999e-01
4.101005013e-01,2.18624e-14,9.99999e-01,2.18624e-14,9.99999e-01
4.121510038e-01,4.06933e-14,9.99999e-01,4.06933e-14,9.99999e-01
4.142117588e-01,7.48201e-14,9.99999e-01,7.48201e-14,9.99999e-01
4.162828176e-01,1.35922e-13,9.99999e-01,1.35922e-13,9.99999e-01
4.183642317e-01,2.44027e-13,9.99999e-01,2.44027e-13,9.99999e-01
4.204560528e-01,4.33080e-13,9.99999e-01,4.33080e-13,9.99999e-01
4.225583331e-01,7.59935e-13,9.99999e-01,7.59935e-13,9.99999e-01
4.246711247e-01,1.31875e-12,9.99999e-01,1.31875e-12,9.99999e-01
4.267944804e-01,2.26369e-12,9.99999e-01,2.26369e-12,9.99999e-01
4.289284528e-01,3.84449e-12,9.99999e-01,3.84449e-12,9.99999e-01
4.310730950e-01,6.46124e-12,9.99999e-01,6.46124e-12,9.99999e-01
4.332284605e-01,1.07483e-11,9.99999e-01,1.07483e-11,9.99999e-01
4.353946028e-01,1.77010e-11,9.99999e-01,1.77010e-11,9.99999e-01
4.375715758e-01,2.88654e-11,9.99999e-01,2.88654e-11,9.99999e-01
4.397594337e-01,4.66188e-11,9.99999e-01,4.66188e-11,9.99999e-01
4.419582309e-01,7.45817e-11,9.99999e-01,7.45817e-11,9.99999e-01
4.441680220e-01,1.18215e-10,9.99999e-01,1.18215e-10,9.99999e-01
4.463888621e-01,1.85679e-10,9.99999e-01,1.85679e-10,9.99999e-01
4.486208064e-01,2.89053e-10,9.99999e-01,2.89053e-10,9.99999e-01
4.508639105e-01,4.46064e-10,9.99999e-01,4.46064e-10,9.99999e-01
4.531182300e-01,6.82488e-10,9.99999e-01,6.82488e-10,9.99999e-01
4.553838212e-01,1.03549e-09,9.99999e-01,1.03549e-09,9.99999e-01
4.576607403e-01,1.55818e-09,9.99999e-01,1.55818e-09,9.99999e-01
4.599490440e-01,2.32587e-09,9.99999e-01,2.32587e-09,9.99999e-01
4.622487892e-01,3.44442e-09,9.99999e-01,3.44442e-09,9.99999e-01
4.645600332e-01,5.06150e-09,9.99999e-01,5.06150e-09,9.99999e-01
4.668828333e-01,7.38143e-09,9.99999e-01,7.38143e-09,9.99999e-01
4.692172475e-01,1.06848e-08,9.99999e-01,1.06848e-08,9.99999e-01
4.715633337e-01,1.53538e-08,9.99999e-01,1.53538e-08,9.99999e-01
4.739211504e-01,2.19057e-08,9.99999e-01,2.19057e-08,9.99999e-01
4.762907561e-01,3.10349e-08,9.99999e-01,3.10349e-08,9.99999e-01
4.786722099e-01,4.36672e-08,9.99999e-01,4.36672e-08,9.99999e-01
4.810655710e-01,6.10282e-08,9.99999e-01,6.10282e-08,9.99999e-01
4.834708988e-01,8.47294e-08,9.99999e-01,8.47294e-08,9.99999e-01
4.858882533e-01,1.16875e-07,9.99999e-01,1.16875e-07,9.99999e-01
4.883176946e-01,1.60196e-07,9.99999e-01,1.60196e-07,9.99999e-01
4.907592831e-01,2.18212e-07,9.99999e-01,2.18212e-07,9.99999e-01
4.932130795e-01,2.95428e-07,9.99999e-01,2.95428e-07,9.99999e-01
4.956791449e-01,3.97582e-07,9.99999e-01,3.97582e-07,9.99999e-01
4.981575406e-01,5.31929e-07,9.99999e-01,5.31929e-07,9.99999e-01
5.006483283e-01,7.07593e-07,9.99999e-01,7.07593e-07,9.99999e-01
5.031515699e-01,9.35977e-07,9.99999e-01,9.35977e-07,9.99999e-01
5.056673278e-01,1.23125e-06,9.99999e-01,1.23125e-06,9.99999e-01
5.081956644e-01,1.61094e-06,9.99999e-01,1.61094e-06,9.99999e-01
5.107366428e-01,2.09654e-06,9.99999e-01,2.09654e-06,9.99999e-01
5.132903260e-01,2.71436e-06,9.99999e-01,2.71436e-06,9.99999e-01
5.158567776e-01,3.49636e-06,9.99999e-01,3.49636e-06,9.99999e-01
5.184360615e-01,4.48119e-06,9.99999e-01,4.48119e-06,9.99999e-01
5.210282418e-01,5.71533e-06,9.99999e-01,5.71533e-06,9.99999e-01
5.236333830e-01,7.25442e-06,9.99999e-01,7.25442e-06,9.99999e-01
5.262515499e-01,9.16470e-06,9.99999e-01,9.16470e-06,9.99999e-01
5.288828077e-01,1.15247e-05,9.99999e-01,1.15247e-05,9.99999e-01
5.315272217e-01,1.44269e-05,9.99999e-01,1.44269e-05,9.99999e-01
5.341848578e-01,1.79801e-05,9.99999e-01,1.79801e-05,9.99999e-01
5.368557821e-01,2.23112e-05,9.99999e-01,2.23112e-05,9.99999e-01
5.395400610e-01,2.75677e-05,9.99999e-01,2.75677e-05,9.99999e-01
5.422377613e-01,3.39206e-05,9.99999e-01,3.39206e-05,9.99999e-01
5.449489501e-01,4.15669e-05,9.99999e-01,4.15669e-05,9.99999e-01
5.476736949e-01,5.07328e-05,9.99999e-01,5.07328e-05,9.99999e-01
5.504120634e-01,6.16765e-05,9.99999e-01,6.16765e-05,9.99999e-01
5.531641237e-01,7.46922e-05,9.99999e-01,7.46922e-05,9.99999e-01
5.559299443e-01,9.01132e-05,9.99999e-01,9.01132e-05,9.99999e-01
5.587095940e-01,1.08316e-04,9.99999e-01,1.08316e-04,9.99999e-01
5.615031420e-01,1.29723e-04,9.99999e-01,1.29723e-04,9.99999e-01
5.643106577e-01,1.54808e-04,9.99999e-01,1.54808e-04,9.99999e-01
5.671322110e-01,1.84100e-04,9.99999e-01,1.84100e-04,9.99999e-01
5.699678720e-01,2.18187e-04,9.99999e-01,2.18187e-04,9.99999e-01
5.728177114e-01,2.57719e-04,9.99999e-01,2.57719e-04,9.99999e-01
5.756818000e-01,3.03414e-04,9.99999e-01,3.03414e-04,9.99999e-01
5.785602090e-01,3.56060e-04,9.99999e-01,3.56060e-04,9.99999e-01
5.814530100e-01,4.16523e-04,9.99999e-01,4.16523e-04,9.99999e-01
5.843602750e-01,4.85747e-04,9.99999e-01,4.85747e-04,9.99999e-01
5.872820764e-01,5.64757e-04,9.99999e-01,5.64757e-04,9.99999e-01
5.902184868e-01,6.54667e-04,9.99999e-01,6.54667e-04,9.99999e-01
5.931695792e-01,7.56679e-04,9.99999e-01,7.56679e-04,9.99999e-01
5.961354271e-01,8.72089e-04,9.99999e-01,8.72089e-04,9.99999e-01
5.991161043e-01,1.00229e-03,9.99999e-01,1.00229e-03,9.99999e-01
6.021116848e-01,1.14876e-03,9.99999e-01,1.14876e-03,9.99999e-01
6.051222432e-01,1.31310e-03,9.99999e-01,1.31310e-03,9.99999e-01
6.081478544e-01,1.49699e-03,9.99999e-01,1.49699e-03,9.99999e-01
6.111885937e-01,1.70222e-03,9.99999e-01,1.70222e-03,9.99999e-01
6.142445367e-01,1.93068e-03,9.99999e-01,1.93068e-03,9.99999e-01
6.173157594e-01,2.18436e-03,9.99999e-01,2.18436e-03,9.99999e-01
6.204023382e-01,2.46535e-03,9.99999e-01,2.46535e-03,9.99999e-01
6.235043498e-01,2.77585e-03,9.99999e-01,2.77585e-03,9.99999e-01
6.266218716e-01,3.11813e-03,9.99999e-01,3.11813e-03,9.99999e-01
6.297549810e-01,3.49459e-03,9.99999e-01,3.49459e-03,9.99999e-01
6.329037559e-01,3.90769e-03,9.99999e-01,3.90769e-03,9.99999e-01
6.360682746e-01,4.35999e-03,9.99999e-01,4.35999e-03,9.99999e-01
6.392486160e-01,4.85413e-03,9.99999e-01,4.85413e-03,9.99999e-01
6.424448591e-01,5.39283e-03,9.99999e-01,5.39283e-03,9.99999e-01
6.456570834e-01,5.97887e-03,9.99999e-01,5.97887e-03,9.99999e-01
6.488853688e-01,6.61510e-03,9.99999e-01,6.61510e-03,9.99999e-01
6.521297956e-01,7.30443e-03,9.99999e-01,7.30443e-03,9.99999e-01
6.553904446e-01,8.04981e-03,9.99999e-01,8.04981e-03,9.99999e-01
6.586673968e-01,8.85424e-03,9.99999e-01,8.85424e-03,9.99999e-01
6.619607338e-01,9.72076e-03,9.99999e-01,9.72076e-03,9.99999e-01
6.652705375e-01,1.06524e-02,9.99999e-01,1.06524e-02,9.99999e-01
6.685968902e-01,1.16523e-02,9.99999e-01,1.16523e-02,9.99999e-01
6.719398746e-01,1.27234e-02,9.99999e-01,1.27234e-02,9.99999e-01
6.752995740e-01,1.38689e-02,9.99999e-01,1.38689e-02,9.99999e-01
6.786760719e-01,1.50918e-02,9.99999e-01,1.50918e-02,9.99999e-01
6.820694522e-01,1.63952e-02,9.99999e-01,1.63952e-02,9.99999e-01
6.854797995e-01,1.77820e-02,9.99999e-01,1.77820e-02,9.99999e-01
6.889071985e-01,1.92552e-02,9.99999e-01,1.92552e-02,9.99999e-01
6.923517345e-01,2.08177e-02,9.99999e-01,2.08177e-02,9.99999e-01
6.958134932e-01,2.24723e-02,9.99999e-01,2.24723e-02,9.99999e-01
6.992925606e-01,2.42218e-02,9.99999e-01,2.42218e-02,9.99999e-01
7.027890234e-01,2.60689e-02,9.99999e-01,2.60689e-02,9.99999e-01
7.063029686e-01,2.80161e-02,9.99999e-01,2.80161e-02,9.99999e-01
7.098344834e-01,3.00660e-02,9.99999e-01,3.00660e-02,9.99999e-01
7.133836558e-01,3.22208e-02,9.99999e-01,3.22208e-02,9.99999e-01
7.169505741e-01,3.44830e-02,9.99999e-01,3.44830e-02,9.99999e-01
7.205353270e-01,3.68545e-02,9.99999e-01,3.68545e-02,9.99999e-01
7.241380036e-01,3.93374e-02,9.99999e-01,3.93374e-02,9.99999e-01
7.277586936e-01,4.19336e-02,9.99999e-01,4.19336e-02,9.99999e-01
7.313974871e-01,4.46447e-02,9.99999e-01,4.46447e-02,9.99999e-01
7.350544745e-01,4.74723e-02,9.99999e-01,4.74723e-02,9.99999e-01
7.387297469e-01,5.04178e-02,9.99999e-01,5.04178e-02,9.99999e-01
7.424233956e-01,5.34824e-02,9.99999e-01,5.34824e-02,9.99999e-01
7.461355126e-01,5.66672e-02,9.99999e-01,5.66672e-02,9.99999e-01
7.498661902e-01,5.99732e-02,9.99999e-01,5.99732e-02,9.99999e-01
7.536155211e-01,6.34009e-02,9.99999e-01,6.34009e-02,9.99999e-01
7.573835987e-01,6.69510e-02,9.99999e-01,6.69510e-02,9.99999e-01
7.611705167e-01,7.06238e-02,9.99999e-01,7.06238e-02,9.99999e-01
7.649763693e-01,7.44196e-02,9.99999e-01,7.44196e-02,9.99999e-01
7.688012511e-01,7.83383e-02,9.99999e-01,7.83383e-02,9.99999e-01
7.726452574e-01,8.23798e-02,9.99999e-01,8.23798e-02,9.99999e-01
7.765084837e-01,8.65438e-02,9.99999e-01,8.65438e-02,9.99999e-01
7.803910261e-01,8.22020e-02,9.05011e-01,9.08298e-02,9.99999e-01
7.842929812e-01,5.92794e-02,6.22440e-01,9.52370e-02,9.99999e-01
7.882144461e-01,6.03210e-02,6.04633e-01,9.97647e-02,9.99999e-01
7.921555184e-01,7.65026e-02,7.32700e-01,1.04412e-01,9.99999e-01
7.961162960e-01,8.85620e-02,8.11176e-01,1.09177e-01,9.99999e-01
8.000968774e-01,1.01787e-01,8.92402e-01,1.14059e-01,9.99999e-01
8.040973618e-01,1.12254e-01,9.42855e-01,1.19057e-01,9.99999e-01
8.081178486e-01,1.20842e-01,9.73210e-01,1.24168e-01,9.99999e-01
8.121584379e-01,1.28323e-01,9.91740e-01,1.29392e-01,9.99999e-01
8.162192301e-01,1.34478e-01,9.98168e-01,1.34725e-01,9.99999e-01
8.203003262e-01,1.40163e-01,9.99974e-01,1.40166e-01,9.99999e-01
8.244018279e-01,1.45714e-01,9.99999e-01,1.45714e-01,9.99999e-01
8.285238370e-01,1.51364e-01,9.99999e-01,1.51364e-01,9.99999e-01
8.326664562e-01,1.57116e-01,9.99999e-01,1.57116e-01,9.99999e-01
8.368297885e-01,1.62966e-01,9.99999e-01,1.62966e-01,9.99999e-01
8.410139374e-01,1.68912e-01,9.99999e-01,1.68912e-01,9.99999e-01
8.452190071e-01,1.74950e-01,9.99999e-01,1.74950e-01,9.99999e-01
8.494451021e-01,1.81079e-01,9.99999e-01,1.81079e-01,9.99999e-01
8.536923276e-01,1.87296e-01,9.99999e-01,1.87296e-01,9.99999e-01
8.579607893e-01,1.93596e-01,9.99999e-01,1.93596e-01,9.99999e-01
8.622505932e-01,1.99978e-01,9.99999e-01,1.99978e-01,9.99999e-01
8.665618462e-01,1.77527e-01,8.59949e-01,2.06438e-01,9.99999e-01
8.708946554e-01,6.61521e-02,3.10612e-01,2.12973e-01,9.99999e-01
8.752491287e-01,8.29214e-02,3.77637e-01,2.19580e-01,9.99999e-01
8.796253743e-01,1.30792e-01,5.78074e-01,2.26255e-01,9.99999e-01
8.840235012e-01,1.74350e-01,7.48301e-01,2.32994e-01,9.99999e-01
8.884436187e-01,2.13821e-01,8.91679e-01,2.39796e-01,9.99999e-01
8.928858368e-01,2.35409e-01,9.54400e-01,2.46656e-01,9.99999e-01
8.973502660e-01,2.50728e-01,9.88789e-01,2.53571e-01,9.99999e-01
9.018370173e-01,2.60215e-01,9.98762e-01,2.60537e-01,9.99999e-01
9.063462024e-01,2.59039e-01,9.68182e-01,2.67552e-01,9.99999e-01
9.108779334e-01,2.55104e-01,9.28962e-01,2.74611e-01,9.99999e-01
9.154323231e-01,2.76932e-01,9.83033e-01,2.81712e-01,9.99999e-01
9.200094847e-01,2.31487e-01,8.01407e-01,2.88850e-01,9.99999e-01
9.246095321e-01,2.06791e-01,6.98564e-01,2.96023e-01,9.99999e-01
9.292325798e-01,2.29523e-01,7.56933e-01,3.03227e-01,9.99999e-01
9.338787427e-01,2.36968e-01,7.63283e-01,3.10459e-01,9.99999e-01
9.385481364e-01,2.60040e-01,8.18468e-01,3.17716e-01,9.99999e-01
9.432408771e-01,2.87365e-01,8.84217e-01,3.24993e-01,9.99999e-01
9.479570815e-01,3.11896e-01,9.38626e-01,3.32289e-01,9.99999e-01
9.526968669e-01,3.29419e-01,9.70021e-01,3.39600e-01,9.99999e-01
9.574603512e-01,3.42436e-01,9.87067e-01,3.46922e-01,9.99999e-01
9.622476530e-01,3.52820e-01,9.95952e-01,3.54253e-01,9.99999e-01
9.670588912e-01,3.61152e-01,9.98788e-01,3.61589e-01,9.99999e-01
9.718941857e-01,3.68898e-01,9.99916e-01,3.68928e-01,9.99999e-01
9.767536566e-01,3.76267e-01,9.99999e-01,3.76267e-01,9.99999e-01
9.816374249e-01,3.83602e-01,9.99999e-01,3.83602e-01,9.99999e-01
9.865456120e-01,3.90931e-01,9.99999e-01,3.90931e-01,9.99999e-01
9.914783401e-01,3.98252e-01,9.99999e-01,3.98252e-01,9.99999e-01
9.964357318e-01,4.05560e-01,9.99999e-01,4.05560e-01,9.99999e-01
1.001417910e+00,4.12855e-01,9.99999e-01,4.12855e-01,9.99999e-01
1.006425000e+00,4.20132e-01,9.99999e-01,4.20132e-01,9.99999e-01
1.011457125e+00,4.27391e-01,9.99999e-01,4.27391e-01,9.99999e-01
1.016514411e+00,4.34628e-01,9.99999e-01,4.34628e-01,9.99999e-01
1.021596983e+00,4.41753e-01,9.99801e-01,4.41840e-01,9.99999e-01
1.026704968e+00,4.43296e-01,9.87235e-01,4.49027e-01,9.99999e-01
1.031838492e+00,4.08792e-01,8.96109e-01,4.56185e-01,9.99999e-01
1.036997685e+00,2.13533e-02,4.60883e-02,4.63312e-01,9.99999e-01
1.042182673e+00,1.21503e-03,2.58293e-03,4.70407e-01,9.99999e-01
1.047393587e+00,3.20255e-03,6.70738e-03,4.77466e-01,9.99999e-01
1.052630555e+00,2.30148e-07,4.75032e-07,4.84490e-01,9.99999e-01
1.057893707e+00,8.88096e-07,1.80700e-06,4.91474e-01,9.99999e-01
1.063183176e+00,2.86023e-05,5.73861e-05,4.98419e-01,9.99999e-01
1.068499092e+00,3.14227e-04,6.21836e-04,5.05321e-01,9.99999e-01
1.073841587e+00,4.38196e-03,8.55550e-03,5.12180e-01,9.99999e-01
1.079210795e+00,2.62656e-02,5.06086e-02,5.18994e-01,9.99999e-01
1.084606849e+00,9.64212e-02,1.83393e-01,5.25762e-01,9.99999e-01
1.090029883e+00,2.18653e-01,4.10630e-01,5.32481e-01,9.99999e-01
1.095480033e+00,3.47256e-01,6.44080e-01,5.39151e-01,9.99999e-01
1.100957433e+00,4.40937e-01,8.07916e-01,5.45770e-01,9.99999e-01
1.106462220e+00,5.05693e-01,9.15551e-01,5.52337e-01,9.99999e-01
1.111994531e+00,5.40845e-01,9.67779e-01,5.58851e-01,9.99999e-01
1.117554504e+00,5.60835e-01,9.92080e-01,5.65311e-01,9.99999e-01
1.123142276e+00,5.71421e-01,9.99482e-01,5.71717e-01,9.99999e-01
1.128757988e+00,5.78065e-01,9.99999e-01,5.78065e-01,9.99999e-01
1.134401778e+00,5.84357e-01,9.99999e-01,5.84357e-01,9.99999e-01
1.140073787e+00,5.90592e-01,9.99999e-01,5.90592e-01,9.99999e-01
1.145774156e+00,5.96767e-01,9.99999e-01,5.96767e-01,9.99999e-01
1.151503026e+00,6.02883e-01,9.99999e-01,6.02883e-01,9.99999e-01
1.157260541e+00,6.08940e-01,9.99999e-01,6.08940e-01,9.99999e-01
1.163046844e+00,6.14935e-01,9.99999e-01,6.14935e-01,9.99999e-01
1.168862078e+00,6.20870e-01,9.99999e-01,6.20870e-01,9.99999e-01
1.174706389e+00,6.26743e-01,9.99999e-01,6.26743e-01,9.99999e-01
1.180579921e+00,6.32553e-01,9.99999e-01,6.32553e-01,9.99999e-01
1.186482820e+00,6.38283e-01,9.99969e-01,6.38302e-01,9.99999e-01
1.192415234e+00,6.16028e-01,9.56583e-01,6.43987e-01,9.99999e-01
1.198377311e+00,3.31618e-01,5.10488e-01,6.49610e-01,9.99999e-01
1.204369197e+00,2.19477e-32,3.34993e-32,6.55168e-01,9.99999e-01
1.210391043e+00,1.00079e-131,1.51482e-131,6.60664e-01,9.99999e-01
1.216442998e+00,5.81319e-114,8.72726e-114,6.66095e-01,9.99999e-01
1.222525213e+00,3.00441e-112,4.47443e-112,6.71463e-01,9.99999e-01
1.228637839e+00,1.49533e-86,2.20952e-86,6.76766e-01,9.99999e-01
1.234781029e+00,9.08739e-54,1.33245e-53,6.82005e-01,9.99999e-01
1.240954934e+00,1.31117e-35,1.90804e-35,6.87181e-01,9.99999e-01
1.247159708e+00,4.73018e-17,6.83263e-17,6.92292e-01,9.99999e-01
1.253395507e+00,1.36251e-11,1.95387e-11,6.97339e-01,9.99999e-01
1.259662485e+00,6.72976e-07,9.58215e-07,7.02322e-01,9.99999e-01
1.265960797e+00,3.69496e-04,5.22446e-04,7.07241e-01,9.99999e-01
1.272290601e+00,1.96988e-02,2.76630e-02,7.12097e-01,9.99999e-01
1.278652054e+00,1.80529e-02,2.51823e-02,7.16888e-01,9.99999e-01
1.285045314e+00,1.39123e-05,1.92793e-05,7.21617e-01,9.99999e-01
1.291470541e+00,1.92762e-15,2.65409e-15,7.26282e-01,9.99999e-01
1.297927893e+00,1.65826e-05,2.26884e-05,7.30885e-01,9.99999e-01
1.304417533e+00,9.74643e-04,1.32528e-03,7.35425e-01,9.99999e-01
1.310939621e+00,1.86621e-04,2.52224e-04,7.39903e-01,9.99999e-01
1.317494319e+00,2.22163e-45,2.98478e-45,7.44318e-01,9.99999e-01
1.324081790e+00,9.72678e-21,1.29920e-20,7.48672e-01,9.99999e-01
1.330702199e+00,2.11222e-17,2.80520e-17,7.52965e-01,9.99999e-01
1.337355710e+00,7.01953e-16,9.27041e-16,7.57197e-01,9.99999e-01
1.344042489e+00,3.82296e-16,5.02117e-16,7.61368e-01,9.99999e-01
1.350762701e+00,1.05805e-17,1.38220e-17,7.65479e-01,9.99999e-01
1.357516515e+00,9.58222e-11,1.24520e-10,7.69531e-01,9.99999e-01
1.364304097e+00,6.15904e-08,7.96231e-08,7.73523e-01,9.99999e-01
1.371125618e+00,1.92118e-04,2.47111e-04,7.77457e-01,9.99999e-01
1.377981246e+00,5.78210e-04,7.40031e-04,7.81332e-01,9.99999e-01
1.384871152e+00,1.15862e-02,1.47567e-02,7.85150e-01,9.99999e-01
1.391795508e+00,1.64742e-02,2.08822e-02,7.88910e-01,9.99999e-01
1.398754485e+00,6.82252e-02,8.60762e-02,7.92613e-01,9.99999e-01
1.405748258e+00,1.34327e-01,1.68697e-01,7.96260e-01,9.99999e-01
1.412776999e+00,2.57341e-01,3.21735e-01,7.99852e-01,9.99999e-01
1.419840884e+00,2.41635e-01,3.00770e-01,8.03388e-01,9.99999e-01
1.426940089e+00,8.25761e-03,1.02341e-02,8.06870e-01,9.99999e-01
1.434074789e+00,0.00000e+00,0.00000e+00,8.10297e-01,9.99999e-01
1.441245163e+00,0.00000e+00,0.00000e+00,8.13671e-01,9.99999e-01
1.448451389e+00,0.00000e+00,0.00000e+00,8.16991e-01,9.99999e-01
1.455693646e+00,0.00000e+00,0.00000e+00,8.20260e-01,9.99999e-01
1.462972114e+00,0.00000e+00,0.00000e+00,8.23476e-01,9.99999e-01
1.470286975e+00,1.76636e-218,2.13679e-218,8.26641e-01,9.99999e-01
1.477638409e+00,5.78913e-137,6.97690e-137,8.29756e-01,9.99999e-01
1.485026601e+00,7.36801e-76,8.84705e-76,8.32820e-01,9.99999e-01
1.492451734e+00,1.46913e-64,1.75767e-64,8.35835e-01,9.99999e-01
1.499913993e+00,1.72652e-27,2.05831e-27,8.38801e-01,9.99999e-01
1.507413563e+00,3.09151e-26,3.67285e-26,8.41718e-01,9.99999e-01
1.514950631e+00,7.81790e-28,9.25645e-28,8.44588e-01,9.99999e-01
1.522525384e+00,4.35618e-97,5.14058e-97,8.47411e-01,9.99999e-01
1.530138011e+00,3.05485e-233,3.59315e-233,8.50186e-01,9.99999e-01
1.537788701e+00,2.81822e-172,3.30421e-172,8.52916e-01,9.99999e-01
1.545477645e+00,1.32810e-35,1.55224e-35,8.55601e-01,9.99999e-01
1.553205033e+00,4.67215e-26,5.44386e-26,8.58241e-01,9.99999e-01
1.560971058e+00,3.01801e-26,3.50590e-26,8.60836e-01,9.99999e-01
1.568775913e+00,0.00000e+00,0.00000e+00,8.63388e-01,9.99999e-01
1.576619793e+00,0.00000e+00,0.00000e+00,8.65896e-01,9.99999e-01
1.584502892e+00,0.00000e+00,0.00000e+00,8.68363e-01,9.99999e-01
1.592425406e+00,0.00000e+00,0.00000e+00,8.70787e-01,9.99999e-01
1.600387533e+00,0.00000e+00,0.00000e+00,8.73170e-01,9.99999e-01
1.608389471e+00,0.00000e+00,0.00000e+00,8.75512e-01,9.99999e-01
1.616431418e+00,0.00000e+00,0.00000e+00,8.77814e-01,9.99999e-01
1.624513575e+00,0.00000e+00,0.00000e+00,8.80077e-01,9.99999e-01
1.632636143e+00,0.00000e+00,0.00000e+00,8.82300e-01,9.99999e-01
1.640799324e+00,2.41916e-202,2.73511e-202,8.84485e-01,9.99999e-01
1.649003321e+00,2.42346e-202,2.73333e-202,8.86633e-01,9.99999e-01
1.657248337e+00,3.82638e-156,4.30538e-156,8.88742e-01,9.99999e-01
1.665534579e+00,3.40360e-157,3.82077e-157,8.90815e-01,9.99999e-01
1.673862252e+00,7.22596e-100,8.09311e-100,8.92852e-01,9.99999e-01
1.682231563e+00,7.66670e-69,8.56755e-69,8.94853e-01,9.99999e-01
1.690642721e+00,8.44903e-38,9.42111e-38,8.96819e-01,9.99999e-01
1.699095934e+00,6.14419e-24,6.83637e-24,8.98750e-01,9.99999e-01
1.707591414e+00,5.55701e-12,6.17002e-12,9.00647e-01,9.99999e-01
1.716129371e+00,2.35355e-07,2.60778e-07,9.02511e-01,9.99999e-01
1.724710018e+00,1.36603e-04,1.51053e-04,9.04341e-01,9.99999e-01
1.733333568e+00,2.35769e-03,2.60190e-03,9.06139e-01,9.99999e-01
1.742000236e+00,2.83618e-02,3.12387e-02,9.07905e-01,9.99999e-01
1.750710237e+00,4.74364e-05,5.21486e-05,9.09639e-01,9.99999e-01
1.759463788e+00,2.51743e-95,2.76233e-95,9.11342e-01,9.99999e-01
1.768261107e+00,8.57863e-100,9.39592e-100,9.13015e-01,9.99999e-01
1.777102413e+00,2.64106e-97,2.88748e-97,9.14657e-01,9.99999e-01
1.785987925e+00,5.78970e-91,6.31876e-91,9.16271e-01,9.99999e-01
1.794917864e+00,7.89474e-87,8.60129e-87,9.17855e-01,9.99999e-01
1.803892454e+00,2.12418e-83,2.31037e-83,9.19410e-01,9.99999e-01
1.812911916e+00,4.04497e-80,4.39223e-80,9.20937e-01,9.99999e-01
1.821976476e+00,3.46456e-80,3.75587e-80,9.22436e-01,9.99999e-01
1.831086358e+00,3.51428e-64,3.80371e-64,9.23909e-01,9.99999e-01
1.840241790e+00,1.38082e-54,1.49221e-54,9.25354e-01,9.99999e-01
1.849442999e+00,7.69271e-38,8.30052e-38,9.26773e-01,9.99999e-01
1.858690214e+00,1.18930e-35,1.28134e-35,9.28166e-01,9.99999e-01
1.867983665e+00,3.37394e-36,3.62971e-36,9.29534e-01,9.99999e-01
1.877323583e+00,3.87864e-183,4.16665e-183,9.30877e-01,9.99999e-01
