#,Wave/freq,Total,CO2,Rayleigh,CIA
4.000000000e-01,6.47890e-21,9.99999e-01,6.47890e-21,9.99999e-01
4.020000000e-01,1.62435e-20,9.99999e-01,1.62435e-20,9.99999e-01
4.040100000e-01,3.99547e-20,9.99999e-01,3.99547e-20,9.99999e-01
4.060300500e-01,9.65460e-20,9.99999e-01,9.65460e-20,9.99999e-01
4.080602003e-01,2.29263e-19,9.99999e-01,2.29263e-19,9.99999e-01
4.101005013e-01,5.35196e-19,9.99999e-01,5.35196e-19,9.99999e-01
4.121510038e-01,1.22863e-18,9.99999e-01,1.22863e-18,9.99999e-01
4.142117588e-01,2.77459e-18,9.99999e-01,2.77459e-18,9.99999e-01
4.162828176e-01,6.16579e-18,9.99999e-01,6.16579e-18,9.99999e-01
4.183642317e-01,1.34874e-17,9.99999e-01,1.34874e-17,9.99999e-01
4.204560528e-01,2.90506e-17,9.99999e-01,2.90506e-17,9.99999e-01
4.225583331e-01,6.16309e-17,9.99999e-01,6.16309e-17,9.99999e-01
4.246711247e-01,1.28822e-16,9.99999e-01,1.28822e-16,9.99999e-01
4.267944804e-01,2.65373e-16,9.99999e-01,2.65373e-16,9.99999e-01
4.289284528e-01,5.38920e-16,9.99999e-01,5.38920e-16,9.99999e-01
4.310730950e-01,1.07923e-15,9.99999e-01,1.07923e-15,9.99999e-01
4.332284605e-01,2.13181e-15,9.99999e-01,2.13181e-15,9.99999e-01
4.353946028e-01,4.15472e-15,9.99999e-01,4.15472e-15,9.99999e-01
4.375715758e-01,7.99118e-15,9.99999e-01,7.99118e-15,9.99999e-01
4.397594337e-01,1.51729e-14,9.99999e-01,1.51729e-14,9.99999e-01
4.419582309e-01,2.84464e-14,9.99999e-01,2.84464e-14,9.99999e-01
4.441680220e-01,5.26737e-14,9.99999e-01,5.26737e-14,9.99999e-01
4.463888621e-01,9.63552e-14,9.99999e-01,9.63552e-14,9.99999e-01
4.486208064e-01,1.74171e-13,9.99999e-01,1.74171e-13,9.99999e-01
4.508639105e-01,3.11170e-13,9.99999e-01,3.11170e-13,9.99999e-01
4.531182300e-01,5.49595e-13,9.99999e-01,5.49595e-13,9.99999e-01
4.553838212e-01,9.59858e-13,9.99999e-01,9.59858e-13,9.99999e-01
4.576607403e-01,1.65801e-12,9.99999e-01,1.65801e-12,9.99999e-01
4.599490440e-01,2.83322e-12,9.99999e-01,2.83322e-12,9.99999e-01
4.622487892e-01,4.79045e-12,9.99999e-01,4.79045e-12,9.99999e-01
4.645600332e-01,8.01618e-12,9.99999e-01,8.01618e-12,9.99999e-01
4.668828333e-01,1.32783e-11,9.99999e-01,1.32783e-11,9.99999e-01
4.692172475e-01,2.17764e-11,9.99999e-01,2.17764e-11,9.99999e-01
4.715633337e-01,3.53661e-11,9.99999e-01,3.53661e-11,9.99999e-01
4.739211504e-01,5.68891e-11,9.99999e-01,5.68891e-11,9.99999e-01
4.762907561e-01,9.06551e-11,9.99999e-01,9.06551e-11,9.99999e-01
4.786722099e-01,1.43139e-10,9.99999e-01,1.43139e-10,9.99999e-01
4.810655710e-01,2.23979e-10,9.99999e-01,2.23979e-10,9.99999e-01
4.834708988e-01,3.47387e-10,9.99999e-01,3.47387e-10,9.99999e-01
4.858882533e-01,5.34142e-10,9.99999e-01,5.34142e-10,9.99999e-01
4.883176946e-01,8.14345e-10,9.99999e-01,8.14345e-10,9.99999e-01
4.907592831e-01,1.23124e-09,9.99999e-01,1.23124e-09,9.99999e-01
4.932130795e-01,1.84642e-09,9.99999e-01,1.84642e-09,9.99999e-01
4.956791449e-01,2.74689e-09,9.99999e-01,2.74689e-09,9.99999e-01
4.981575406e-01,4.05458e-09,9.99999e-01,4.05458e-09,9.99999e-01
5.006483283e-01,5.93895e-09,9.99999e-01,5.93895e-09,9.99999e-01
5.031515699e-01,8.63375e-09,9.99999e-01,8.63375e-09,9.99999e-01
5.056673278e-01,1.24589e-08,9.99999e-01,1.24589e-08,9.99999e-01
5.081956644e-01,1.78490e-08,9.99999e-01,1.78490e-08,9.99999e-01
5.107366428e-01,2.53900e-08,9.99999e-01,2.53900e-08,9.99999e-01
5.132903260e-01,3.58666e-08,9.99999e-01,3.58666e-08,9.99999e-01
5.158567776e-01,5.03214e-08,9.99999e-01,5.03214e-08,9.99999e-01
5.184360615e-01,7.01312e-08,9.99999e-01,7.01312e-08,9.99999e-01
5.210282418e-01,9.71007e-08,9.99999e-01,9.71007e-08,9.99999e-01
5.236333830e-01,1.33580e-07,9.99999e-01,1.33580e-07,9.99999e-01
5.262515499e-01,1.82611e-07,9.99999e-01,1.82611e-07,9.99999e-01
5.288828077e-01,2.48100e-07,9.99999e-01,2.48100e-07,9.99999e-01
5.315272217e-01,3.35042e-07,9.99999e-01,3.35042e-07,9.99999e-01
5.341848578e-01,4.49775e-07,9.99999e-01,4.49775e-07,9.99999e-01
5.368557821e-01,6.00294e-07,9.99999e-01,6.00294e-07,9.99999e-01
5.395400610e-01,7.96631e-07,9.99999e-01,7.96631e-07,9.99999e-01
5.422377613e-01,1.05129e-06,9.99999e-01,1.05129e-06,9.99999e-01
5.449489501e-01,1.37977e-06,9.99999e-01,1.37977e-06,9.99999e-01
5.476736949e-01,1.80120e-06,9.99999e-01,1.80120e-06,9.99999e-01
5.504120634e-01,2.33899e-06,9.99999e-01,2.33899e-06,9.99999e-01
5.531641237e-01,3.02172e-06,9.99999e-01,3.02172e-06,9.99999e-01
5.559299443e-01,3.88403e-06,9.99999e-01,3.88403e-06,9.99999e-01
5.587095940e-01,4.96773e-06,9.99999e-01,4.96773e-06,9.99999e-01
5.615031420e-01,6.32298e-06,9.99999e-01,6.32298e-06,9.99999e-01
5.643106577e-01,8.00970e-06,9.99999e-01,8.00970e-06,9.99999e-01
5.671322110e-01,1.00991e-05,9.99999e-01,1.00991e-05,9.99999e-01
5.699678720e-01,1.26754e-05,9.99999e-01,1.26754e-05,9.99999e-01
5.728177114e-01,1.58376e-05,9.99999e-01,1.58376e-05,9.99999e-01
5.756818000e-01,1.97018e-05,9.99999e-01,1.97018e-05,9.99999e-01
5.785602090e-01,2.44035e-05,9.99999e-01,2.44035e-05,9.99999e-01
5.814530100e-01,3.00996e-05,9.99999e-01,3.00996e-05,9.99999e-01
5.843602750e-01,3.69718e-05,9.99999e-01,3.69718e-05,9.99999e-01
5.872820764e-01,4.52289e-05,9.99999e-01,4.52289e-05,9.99999e-01
5.902184868e-01,5.51103e-05,9.99999e-01,5.51103e-05,9.99999e-01
5.931695792e-01,6.68889e-05,9.99999e-01,6.68889e-05,9.99999e-01
5.961354271e-01,8.08749e-05,9.99999e-01,8.08749e-05,9.99999e-01
5.991161043e-01,9.74192e-05,9.99999e-01,9.74192e-05,9.99999e-01
6.021116848e-01,1.16917e-04,9.99999e-01,1.16917e-04,9.99999e-01
6.051222432e-01,1.39813e-04,9.99999e-01,1.39813e-04,9.99999e-01
6.081478544e-01,1.66603e-04,9.99999e-01,1.66603e-04,9.99999e-01
6.111885937e-01,1.97840e-04,9.99999e-01,1.97840e-04,9.99999e-01
6.142445367e-01,2.34137e-04,9.99999e-01,2.34137e-04,9.99999e-01
6.173157594e-01,2.76174e-04,9.99999e-01,2.76174e-04,9.99999e-01
6.204023382e-01,3.24697e-04,9.99999e-01,3.24697e-04,9.99999e-01
6.235043498e-01,3.80527e-04,9.99999e-01,3.80527e-04,9.99999e-01
6.266218716e-01,4.44561e-04,9.99999e-01,4.44561e-04,9.99999e-01
6.297549810e-01,5.17777e-04,9.99999e-01,5.17777e-04,9.99999e-01
6.329037559e-01,6.01238e-04,9.99999e-01,6.01238e-04,9.99999e-01
6.360682746e-01,6.96095e-04,9.99999e-01,6.96095e-04,9.99999e-01
6.392486160e-01,8.03588e-04,9.99999e-01,8.03588e-04,9.99999e-01
6.424448591e-01,9.25053e-04,9.99999e-01,9.25053e-04,9.99999e-01
6.456570834e-01,1.06192e-03,9.99999e-01,1.06192e-03,9.99999e-01
6.488853688e-01,1.21572e-03,9.99999e-01,1.21572e-03,9.99999e-01
6.521297956e-01,1.38809e-03,9.99999e-01,1.38809e-03,9.99999e-01
6.553904446e-01,1.58074e-03,9.99999e-01,1.58074e-03,9.99999e-01
6.586673968e-01,1.79552e-03,9.99999e-01,1.79552e-03,9.99999e-01
6.619607338e-01,2.03435e-03,9.99999e-01,2.03435e-03,9.99999e-01
6.652705375e-01,2.29928e-03,9.99999e-01,2.29928e-03,9.99999e-01
6.685968902e-01,2.59243e-03,9.99999e-01,2.59243e-03,9.99999e-01
6.719398746e-01,2.91603e-03,9.99999e-01,2.91603e-03,9.99999e-01
6.752995740e-01,3.27242e-03,9.99999e-01,3.27242e-03,9.99999e-01
6.786760719e-01,3.66401e-03,9.99999e-01,3.66401e-03,9.99999e-01
6.820694522e-01,4.09331e-03,9.99999e-01,4.09331e-03,9.99999e-01
6.854797995e-01,4.56291e-03,9.99999e-01,4.56291e-03,9.99999e-01
6.889071985e-01,5.07549e-03,9.99999e-01,5.07549e-03,9.99999e-01
6.923517345e-01,5.63378e-03,9.99999e-01,5.63378e-03,9.99999e-01
6.958134932e-01,6.24062e-03,9.99999e-01,6.24062e-03,9.99999e-01
6.992925606e-01,6.89886e-03,9.99999e-01,6.89886e-03,9.99999e-01
7.027890234e-01,7.61144e-03,9.99999e-01,7.61144e-03,9.99999e-01
7.063029686e-01,8.38133e-03,9.99999e-01,8.38133e-03,9.99999e-01
7.098344834e-01,9.21155e-03,9.99999e-01,9.21155e-03,9.99999e-01
7.133836558e-01,1.01051e-02,9.99999e-01,1.01051e-02,9.99999e-01
7.169505741e-01,1.10652e-02,9.99999e-01,1.10652e-02,9.99999e-01
7.205353270e-01,1.20947e-02,9.99999e-01,1.20947e-02,9.99999e-01
7.241380036e-01,1.31968e-02,9.99999e-01,1.31968e-02,9.99999e-01
7.277586936e-01,1.43745e-02,9.99999e-01,1.43745e-02,9.99999e-01
7.313974871e-01,1.56309e-02,9.99999e-01,1.56309e-02,9.99999e-01
7.350544745e-01,1.69691e-02,9.99999e-01,1.69691e-02,9.99999e-01
7.387297469e-01,1.83919e-02,9.99999e-01,1.83919e-02,9.99999e-01
7.424233956e-01,1.99024e-02,9.99999e-01,1.99024e-02,9.99999e-01
7.461355126e-01,2.15033e-02,9.99999e-01,2.15033e-02,9.99999e-01
7.498661902e-01,2.31976e-02,9.99999e-01,2.31976e-02,9.99999e-01
7.536155211e-01,2.49879e-02,9.99999e-01,2.49879e-02,9.99999e-01
7.573835987e-01,2.68768e-02,9.99999e-01,2.68768e-02,9.99999e-01
7.611705167e-01,2.88670e-02,9.99999e-01,2.88670e-02,9.99999e-01
7.649763693e-01,3.09608e-02,9.99999e-01,3.09608e-02,9.99999e-01
7.688012511e-01,3.31606e-02,9.99999e-01,3.31606e-02,9.99999e-01
7.726452574e-01,3.54686e-02,9.99999e-01,3.54686e-02,9.99999e-01
7.765084837e-01,3.78868e-02,9.99999e-01,3.78868e-02,9.99999e-01
7.803910261e-01,3.57810e-02,8.85289e-01,4.04173e-02,9.99999e-01
7.842929812e-01,2.31418e-02,5.37409e-01,4.30616e-02,9.99999e-01
7.882144461e-01,2.38625e-02,5.20768e-01,4.58216e-02,9.99999e-01
7.921555184e-01,3.22524e-02,6.62284e-01,4.86987e-02,9.99999e-01
7.961162960e-01,3.90750e-02,7.55886e-01,5.16943e-02,9.99999e-01
8.000968774e-01,4.70706e-02,8.58804e-01,5.48094e-02,9.99999e-01
8.040973618e-01,5.36410e-02,9.24124e-01,5.80452e-02,9.99999e-01
8.081178486e-01,5.92092e-02,9.64283e-01,6.14023e-02,9.99999e-01
8.121584379e-01,6.41608e-02,9.88891e-01,6.48815e-02,9.99999e-01
8.162192301e-01,6.83145e-02,9.97535e-01,6.84833e-02,9.99999e-01
8.203003262e-01,7.22054e-02,9.99964e-01,7.22079e-02,9.99999e-01
8.244018279e-01,7.60555e-02,9.99999e-01,7.60555e-02,9.99999e-01
8.285238370e-01,8.00259e-02,9.99999e-01,8.00259e-02,9.99999e-01
8.326664562e-01,8.41191e-02,9.99999e-01,8.41191e-02,9.99999e-01
8.368297885e-01,8.83346e-02,9.99999e-01,8.83346e-02,9.99999e-01
8.410139374e-01,9.26717e-02,9.99999e-01,9.26717e-02,9.99999e-01
8.452190071e-01,9.71298e-02,9.99999e-01,9.71298e-02,9.99999e-01
8.494451021e-01,1.01708e-01,9.99999e-01,1.01708e-01,9.99999e-01
8.536923276e-01,1.06405e-01,9.99999e-01,1.06405e-01,9.99999e-01
8.579607893e-01,1.11220e-01,9.99999e-01,1.11220e-01,9.99999e-01
8.622505932e-01,1.16151e-01,9.99999e-01,1.16151e-01,9.99999e-01
8.665618462e-01,1.02477e-01,8.45542e-01,1.21197e-01,9.99999e-01
8.708946554e-01,2.79609e-02,2.21288e-01,1.26355e-01,9.99999e-01
8.752491287e-01,3.66070e-02,2.78115e-01,1.31625e-01,9.99999e-01
8.796253743e-01,6.63858e-02,4.84551e-01,1.37004e-01,9.99999e-01
8.840235012e-01,9.68179e-02,6.79468e-01,1.42491e-01,9.99999e-01
8.884436187e-01,1.26982e-01,8.57513e-01,1.48082e-01,9.99999e-01
8.928858368e-01,1.44444e-01,9.39319e-01,1.53775e-01,9.99999e-01
8.973502660e-01,1.57167e-01,9.84949e-01,1.59568e-01,9.99999e-01
9.018370173e-01,1.65183e-01,9.98332e-01,1.65459e-01,9.99999e-01
9.063462024e-01,1.64332e-01,9.58516e-01,1.71444e-01,9.99999e-01
9.108779334e-01,1.60855e-01,9.06116e-01,1.77522e-01,9.99999e-01
9.154323231e-01,1.79505e-01,9.77226e-01,1.83688e-01,9.99999e-01
9.200094847e-01,1.44254e-01,7.59473e-01,1.89940e-01,9.99999e-01
9.246095321e-01,1.21670e-01,6.19893e-01,1.96275e-01,9.99999e-01
9.292325798e-01,1.40502e-01,6.93184e-01,2.02690e-01,9.99999e-01
9.338787427e-01,1.46082e-01,6.98348e-01,2.09182e-01,9.99999e-01
9.385481364e-01,1.65163e-01,7.65538e-01,2.15748e-01,9.99999e-01
9.432408771e-01,1.88598e-01,8.48074e-01,2.22384e-01,9.99999e-01
9.479570815e-01,2.10462e-01,9.18700e-01,2.29086e-01,9.99999e-01
9.526968669e-01,2.26429e-01,9.60043e-01,2.35853e-01,9.99999e-01
9.574603512e-01,2.38480e-01,9.82694e-01,2.42679e-01,9.99999e-01
9.622476530e-01,2.48208e-01,9.94571e-01,2.49563e-01,9.99999e-01
9.670588912e-01,2.56082e-01,9.98372e-01,2.56500e-01,9.99999e-01
9.718941857e-01,2.63457e-01,9.99886e-01,2.63487e-01,9.99999e-01
9.767536566e-01,2.70521e-01,9.99999e-01,2.70521e-01,9.99999e-01
9.816374249e-01,2.77598e-01,9.99999e-01,2.77598e-01,9.99999e-01
9.865456120e-01,2.84714e-01,9.99999e-01,2.84714e-01,9.99999e-01
9.914783401e-01,2.91868e-01,9.99999e-01,2.91868e-01,9.99999e-01
9.964357318e-01,2.99054e-01,9.99999e-01,2.99054e-01,9.99999e-01
1.001417910e+00,3.06271e-01,9.99999e-01,3.06271e-01,9.99999e-01
1.006425000e+00,3.13513e-01,9.99999e-01,3.13513e-01,9.99999e-01
1.011457125e+00,3.20779e-01,9.99999e-01,3.20779e-01,9.99999e-01
1.016514411e+00,3.28065e-01,9.99999e-01,3.28065e-01,9.99999e-01
1.021596983e+00,3.35284e-01,9.99751e-01,3.35367e-01,9.99999e-01
1.026704968e+00,3.36936e-01,9.83226e-01,3.42683e-01,9.99999e-01
1.031838492e+00,3.07373e-01,8.78183e-01,3.50010e-01,9.99999e-01
1.036997685e+00,1.16126e-02,3.24970e-02,3.57343e-01,9.99999e-01
1.042182673e+00,2.30724e-04,6.32672e-04,3.64681e-01,9.99999e-01
1.047393587e+00,6.74073e-04,1.81192e-03,3.72020e-01,9.99999e-01
1.052630555e+00,3.74009e-09,9.85901e-09,3.79358e-01,9.99999e-01
1.057893707e+00,1.41235e-08,3.65240e-08,3.86691e-01,9.99999e-01
1.063183176e+00,1.54175e-06,3.91292e-06,3.94016e-01,9.99999e-01
1.068499092e+00,2.72195e-05,6.78227e-05,4.01332e-01,9.99999e-01
1.073841587e+00,7.74068e-04,1.89428e-03,4.08635e-01,9.99999e-01
1.079210795e+00,8.38394e-03,2.01574e-02,4.15923e-01,9.99999e-01
1.084606849e+00,4.46658e-02,1.05545e-01,4.23193e-01,9.99999e-01
1.090029883e+00,1.31797e-01,3.06190e-01,4.30442e-01,9.99999e-01
1.095480033e+00,2.43417e-01,5.56166e-01,4.37669e-01,9.99999e-01
1.100957433e+00,3.34500e-01,7.51902e-01,4.44871e-01,9.99999e-01
1.106462220e+00,4.01666e-01,8.88551e-01,4.52046e-01,9.99999e-01
1.111994531e+00,4.39472e-01,9.57056e-01,4.59191e-01,9.99999e-01
1.117554504e+00,4.61349e-01,9.89371e-01,4.66305e-01,9.99999e-01
1.123142276e+00,4.73055e-01,9.99301e-01,4.73385e-01,9.99999e-01
1.128757988e+00,4.80430e-01,9.99999e-01,4.80430e-01,9.99999e-01
1.134401778e+00,4.87437e-01,9.99999e-01,4.87437e-01,9.99999e-01
1.140073787e+00,4.94405e-01,9.99999e-01,4.94405e-01,9.99999e-01
1.145774156e+00,5.01332e-01,9.99999e-01,5.01332e-01,9.99999e-01
1.151503026e+00,5.08216e-01,9.99999e-01,5.08216e-01,9.99999e-01
1.157260541e+00,5.15057e-01,9.99999e-01,5.15057e-01,9.99999e-01
1.163046844e+00,5.21851e-01,9.99999e-01,5.21851e-01,9.99999e-01
1.168862078e+00,5.28598e-01,9.99999e-01,5.28598e-01,9.99999e-01
1.174706389e+00,5.35297e-01,9.99999e-01,5.35297e-01,9.99999e-01
1.180579921e+00,5.41945e-01,9.99999e-01,5.41945e-01,9.99999e-01
1.186482820e+00,5.48523e-01,9.99964e-01,5.48543e-01,9.99999e-01
1.192415234e+00,5.24175e-01,9.44310e-01,5.55088e-01,9.99999e-01
1.198377311e+00,2.75746e-01,4.91019e-01,5.61580e-01,9.99999e-01
1.204369197e+00,1.50458e-42,2.64884e-42,5.68017e-01,9.99999e-01
1.210391043e+00,2.11324e-175,3.67904e-175,5.74398e-01,9.99999e-01
1.216442998e+00,1.20846e-151,2.08096e-151,5.80723e-01,9.99999e-01
1.222525213e+00,2.36001e-149,4.02051e-149,5.86991e-01,9.99999e-01
1.228637839e+00,5.30704e-115,8.94645e-115,5.93200e-01,9.99999e-01
1.234781029e+00,3.80790e-71,6.35336e-71,5.99351e-01,9.99999e-01
1.240954934e+00,6.35586e-47,1.04979e-46,6.05442e-01,9.99999e-01
1.247159708e+00,4.81264e-22,7.87057e-22,6.11473e-01,9.99999e-01
1.253395507e+00,5.05825e-15,8.19225e-15,6.17443e-01,9.99999e-01
1.259662485e+00,9.92139e-09,1.59162e-08,6.23351e-01,9.99999e-01
1.265960797e+00,4.07659e-05,6.47902e-05,6.29198e-01,9.99999e-01
1.272290601e+00,5.68329e-03,8.95029e-03,6.34983e-01,9.99999e-01
1.278652054e+00,5.75650e-03,8.98464e-03,6.40705e-01,9.99999e-01
1.285045314e+00,1.02004e-06,1.57812e-06,6.46364e-01,9.99999e-01
1.291470541e+00,4.49200e-20,6.88999e-20,6.51959e-01,9.99999e-01
1.297927893e+00,1.23848e-06,1.88364e-06,6.57491e-01,9.99999e-01
1.304417533e+00,1.07624e-04,1.62339e-04,6.62960e-01,9.99999e-01
1.310939621e+00,2.33513e-05,3.49380e-05,6.68364e-01,9.99999e-01
1.317494319e+00,5.25369e-60,7.79820e-60,6.73705e-01,9.99999e-01
1.324081790e+00,2.31550e-38,3.41025e-38,6.78981e-01,9.99999e-01
1.330702199e+00,7.98367e-23,1.16687e-22,6.84193e-01,9.99999e-01
1.337355710e+00,1.25480e-20,1.82029e-20,6.89342e-01,9.99999e-01
1.344042489e+00,7.85849e-21,1.13165e-20,6.94426e-01,9.99999e-01
1.350762701e+00,3.67487e-23,5.25396e-23,6.99446e-01,9.99999e-01
1.357516515e+00,1.02903e-13,1.46085e-13,7.04402e-01,9.99999e-01
1.364304097e+00,3.36676e-10,4.74663e-10,7.09294e-01,9.99999e-01
1.371125618e+00,1.32442e-05,1.85460e-05,7.14123e-01,9.99999e-01
1.377981246e+00,5.33952e-05,7.42746e-05,7.18888e-01,9.99999e-01
1.384871152e+00,2.71617e-03,3.75374e-03,7.23590e-01,9.99999e-01
1.391795508e+00,4.43810e-03,6.09436e-03,7.28229e-01,9.99999e-01
1.398754485e+00,2.76917e-02,3.77885e-02,7.32805e-01,9.99999e-01
1.405748258e+00,6.91866e-02,9.38352e-02,7.37319e-01,9.99999e-01
1.412776999e+00,1.63299e-01,2.20147e-01,7.41770e-01,9.99999e-01
1.419840884e+00,1.62980e-01,2.18424e-01,7.46160e-01,9.99999e-01
1.426940089e+00,4.58732e-03,6.11245e-03,7.50488e-01,9.99999e-01
1.434074789e+00,0.00000e+00,0.00000e+00,7.54755e-01,9.99999e-01
1.441245163e+00,0.00000e+00,0.00000e+00,7.58962e-01,9.99999e-01
1.448451389e+00,0.00000e+00,0.00000e+00,7.63107e-01,9.99999e-01
1.455693646e+00,0.00000e+00,0.00000e+00,7.67193e-01,9.99999e-01
1.462972114e+00,0.00000e+00,0.00000e+00,7.71220e-01,9.99999e-01
1.470286975e+00,2.08992e-291,2.69602e-291,7.75188e-01,9.99999e-01
1.477638409e+00,2.11672e-182,2.71689e-182,7.79097e-01,9.99999e-01
1.485026601e+00,1.09436e-100,1.39774e-100,7.82947e-01,9.99999e-01
1.492451734e+00,1.31393e-85,1.67009e-85,7.86741e-01,9.99999e-01
1.499913993e+00,5.27772e-36,6.67662e-36,7.90477e-01,9.99999e-01
1.507413563e+00,1.03507e-34,1.30336e-34,7.94157e-01,9.99999e-01
1.514950631e+00,1.83802e-36,2.30391e-36,7.97780e-01,9.99999e-01
1.522525384e+00,4.46901e-129,5.57686e-129,8.01348e-01,9.99999e-01
1.530138011e+00,3.61646e-311,4.49326e-311,8.04861e-01,9.99999e-01
1.537788701e+00,1.23603e-229,1.52914e-229,8.08320e-01,9.99999e-01
1.545477645e+00,7.45594e-47,9.18530e-47,8.11725e-01,9.99999e-01
1.553205033e+00,2.42562e-34,2.97593e-34,8.15076e-01,9.99999e-01
1.560971058e+00,2.24295e-34,2.74073e-34,8.18375e-01,9.99999e-01
1.568775913e+00,0.00000e+00,0.00000e+00,8.21621e-01,9.99999e-01
1.576619793e+00,0.00000e+00,0.00000e+00,8.24816e-01,9.99999e-01
1.584502892e+00,0.00000e+00,0.00000e+00,8.27960e-01,9.99999e-01
1.592425406e+00,0.00000e+00,0.00000e+00,8.31053e-01,9.99999e-01
1.600387533e+00,0.00000e+00,0.00000e+00,8.34096e-01,9.99999e-01
1.608389471e+00,0.00000e+00,0.00000e+00,8.37090e-01,9.99999e-01
1.616431418e+00,0.00000e+00,0.00000e+00,8.40036e-01,9.99999e-01
1.624513575e+00,0.00000e+00,0.00000e+00,8.42933e-01,9.99999e-01
1.632636143e+00,0.00000e+00,0.00000e+00,8.45783e-01,9.99999e-01
1.640799324e+00,7.85163e-270,9.25260e-270,8.48586e-01,9.99999e-01
1.649003321e+00,7.87028e-270,9.24455e-270,8.51342e-01,9.99999e-01
1.657248337e+00,4.68828e-208,5.48944e-208,8.54053e-01,9.99999e-01
1.665534579e+00,1.84075e-209,2.14860e-209,8.56718e-01,9.99999e-01
1.673862252e+00,8.53496e-133,9.93200e-133,8.59339e-01,9.99999e-01
1.682231563e+00,2.65319e-91,3.07824e-91,8.61916e-01,9.99999e-01
1.690642721e+00,8.64383e-50,9.99922e-50,8.64450e-01,9.99999e-01
1.699095934e+00,2.55528e-31,2.94746e-31,8.66941e-01,9.99999e-01
1.707591414e+00,2.72271e-15,3.13174e-15,8.69389e-01,9.99999e-01
1.716129371e+00,2.44642e-09,2.80619e-09,8.71796e-01,9.99999e-01
1.724710018e+00,9.43131e-06,1.07890e-05,8.74162e-01,9.99999e-01
1.733333568e+00,3.51690e-04,4.01249e-04,8.76487e-01,9.99999e-01
1.742000236e+00,9.16949e-03,1.04344e-02,8.78772e-01,9.99999e-01
1.750710237e+00,5.08188e-06,5.76818e-06,8.81018e-01,9.99999e-01
1.759463788e+00,1.01654e-126,1.15094e-126,8.83226e-01,9.99999e-01
1.768261107e+00,1.08038e-132,1.22022e-132,8.85395e-01,9.99999e-01
1.777102413e+00,2.01546e-129,2.27087e-129,8.87526e-01,9.99999e-01
1.785987925e+00,6.96101e-121,7.82470e-121,8.89620e-01,9.99999e-01
1.794917864e+00,2.34587e-115,2.63085e-115,8.91678e-01,9.99999e-01
1.803892454e+00,9.10283e-111,1.01856e-110,8.93699e-01,9.99999e-01
1.812911916e+00,2.19976e-106,2.45594e-106,8.95685e-01,9.99999e-01
1.821976476e+00,1.79987e-106,2.00512e-106,8.97637e-01,9.99999e-01
1.831086358e+00,4.56943e-85,5.07966e-85,8.99553e-01,9.99999e-01
1.840241790e+00,2.92171e-72,3.24117e-72,9.01436e-01,9.99999e-01
1.849442999e+00,5.48256e-50,6.06957e-50,9.03286e-01,9.99999e-01
1.858690214e+00,3.86350e-47,4.26858e-47,9.05102e-01,9.99999e-01
1.867983665e+00,1.19581e-47,1.31858e-47,9.06887e-01,9.99999e-01
1.877323583e+00,3.67263e-244,4.04189e-244,9.08639e-01,9.99999e-01
