#,Wave/freq,Total,CO2,Rayleigh,CIA
4.000000000e-01,3.07641e-06,9.99999e-01,3.07641e-06,9.99999e-01
4.020000000e-01,3.95396e-06,9.99999e-01,3.95396e-06,9.99999e-01
4.040100000e-01,5.05539e-06,9.99999e-01,5.05539e-06,9.99999e-01
4.060300500e-01,6.43234e-06,9.99999e-01,6.43234e-06,9.99999e-01
4.080602003e-01,8.14547e-06,9.99999e-01,8.14547e-06,9.99999e-01
4.101005013e-01,1.02669e-05,9.99999e-01,1.02669e-05,9.99999e-01
4.121510038e-01,1.28817e-05,9.99999e-01,1.28817e-05,9.99999e-01
4.142117588e-01,1.60903e-05,9.99999e-01,1.60903e-05,9.99999e-01
4.162828176e-01,2.00100e-05,9.99999e-01,2.00100e-05,9.99999e-01
4.183642317e-01,2.47776e-05,9.99999e-01,2.47776e-05,9.99999e-01
4.204560528e-01,3.05519e-05,9.99999e-01,3.05519e-05,9.99999e-01
4.225583331e-01,3.75163e-05,9.99999e-01,3.75163e-05,9.99999e-01
4.246711247e-01,4.58817e-05,9.99999e-01,4.58817e-05,9.99999e-01
4.267944804e-01,5.58899e-05,9.99999e-01,5.58899e-05,9.99999e-01
4.289284528e-01,6.78162e-05,9.99999e-01,6.78162e-05,9.99999e-01
4.310730950e-01,8.19738e-05,9.99999e-01,8.19738e-05,9.99999e-01
4.332284605e-01,9.87166e-05,9.99999e-01,9.87166e-05,9.99999e-01
4.353946028e-01,1.18443e-04,9.99999e-01,1.18443e-04,9.99999e-01
4.375715758e-01,1.41602e-04,9.99999e-01,1.41602e-04,9.99999e-01
4.397594337e-01,1.68692e-04,9.99999e-01,1.68692e-04,9.99999e-01
4.419582309e-01,2.00271e-04,9.99999e-01,2.00271e-04,9.99999e-01
4.441680220e-01,2.36958e-04,9.99999e-01,2.36958e-04,9.99999e-01
4.463888621e-01,2.79435e-04,9.99999e-01,2.79435e-04,9.99999e-01
4.486208064e-01,3.28454e-04,9.99999e-01,3.28454e-04,9.99999e-01
4.508639105e-01,3.84843e-04,9.99999e-01,3.84843e-04,9.99999e-01
4.531182300e-01,4.49503e-04,9.99999e-01,4.49503e-04,9.99999e-01
4.553838212e-01,5.23419e-04,9.99999e-01,5.23419e-04,9.99999e-01
4.576607403e-01,6.07659e-04,9.99999e-01,6.07659e-04,9.99999e-01
4.599490440e-01,7.03381e-04,9.99999e-01,7.03381e-04,9.99999e-01
4.622487892e-01,8.11833e-04,9.99999e-01,8.11833e-04,9.99999e-01
4.645600332e-01,9.34356e-04,9.99999e-01,9.34356e-04,9.99999e-01
4.668828333e-01,1.07239e-03,9.99999e-01,1.07239e-03,9.99999e-01
4.692172475e-01,1.22747e-03,9.99999e-01,1.22747e-03,9.99999e-01
4.715633337e-01,1.40123e-03,9.99999e-01,1.40123e-03,9.99999e-01
4.739211504e-01,1.59541e-03,9.99999e-01,1.59541e-03,9.99999e-01
4.762907561e-01,1.81185e-03,9.99999e-01,1.81185e-03,9.99999e-01
4.786722099e-01,2.05249e-03,9.99999e-01,2.05249e-03,9.99999e-01
4.810655710e-01,2.31937e-03,9.99999e-01,2.31937e-03,9.99999e-01
4.834708988e-01,2.61464e-03,9.99999e-01,2.61464e-03,9.99999e-01
4.858882533e-01,2.94052e-03,9.99999e-01,2.94052e-03,9.99999e-01
4.883176946e-01,3.29935e-03,9.99999e-01,3.29935e-03,9.99999e-01
4.907592831e-01,3.69357e-03,9.99999e-01,3.69357e-03,9.99999e-01
4.932130795e-01,4.12567e-03,9.99999e-01,4.12567e-03,9.99999e-01
4.956791449e-01,4.59827e-03,9.99999e-01,4.59827e-03,9.99999e-01
4.981575406e-01,5.11404e-03,9.99999e-01,5.11404e-03,9.99999e-01
5.006483283e-01,5.67573e-03,9.99999e-01,5.67573e-03,9.99999e-01
5.031515699e-01,6.28616e-03,9.99999e-01,6.28616e-03,9.99999e-01
5.056673278e-01,6.94821e-03,9.99999e-01,6.94821e-03,9.99999e-01
5.081956644e-01,7.66481e-03,9.99999e-01,7.66481e-03,9.99999e-01
5.107366428e-01,8.43893e-03,9.99999e-01,8.43893e-03,9.99999e-01
5.132903260e-01,9.27360e-03,9.99999e-01,9.27360e-03,9.99999e-01
5.158567776e-01,1.01719e-02,9.99999e-01,1.01719e-02,9.99999e-01
5.184360615e-01,1.11368e-02,9.99999e-01,1.11368e-02,9.99999e-01
5.210282418e-01,1.21714e-02,9.99999e-01,1.21714e-02,9.99999e-01
5.236333830e-01,1.32788e-02,9.99999e-01,1.32788e-02,9.99999e-01
5.262515499e-01,1.44621e-02,9.99999e-01,1.44621e-02,9.99999e-01
5.288828077e-01,1.57243e-02,9.99999e-01,1.57243e-02,9.99999e-01
5.315272217e-01,1.70685e-02,9.99999e-01,1.70685e-02,9.99999e-01
5.341848578e-01,1.84975e-02,9.99999e-01,1.84975e-02,9.99999e-01
5.368557821e-01,2.00143e-02,9.99999e-01,2.00143e-02,9.99999e-01
5.395400610e-01,2.16219e-02,9.99999e-01,2.16219e-02,9.99999e-01
5.422377613e-01,2.33230e-02,9.99999e-01,2.33230e-02,9.99999e-01
5.449489501e-01,2.51203e-02,9.99999e-01,2.51203e-02,9.99999e-01
5.476736949e-01,2.70164e-02,9.99999e-01,2.70164e-02,9.99999e-01
5.504120634e-01,2.90140e-02,9.99999e-01,2.90140e-02,9.99999e-01
5.531641237e-01,3.11153e-02,9.99999e-01,3.11153e-02,9.99999e-01
5.559299443e-01,3.33228e-02,9.99999e-01,3.33228e-02,9.99999e-01
5.587095940e-01,3.56387e-02,9.99999e-01,3.56387e-02,9.99999e-01
5.615031420e-01,3.80649e-02,9.99999e-01,3.80649e-02,9.99999e-01
5.643106577e-01,4.06034e-02,9.99999e-01,4.06034e-02,9.99999e-01
5.671322110e-01,4.32561e-02,9.99999e-01,4.32561e-02,9.99999e-01
5.699678720e-01,4.60244e-02,9.99999e-01,4.60244e-02,9.99999e-01
5.728177114e-01,4.89100e-02,9.99999e-01,4.89100e-02,9.99999e-01
5.756818000e-01,5.19141e-02,9.99999e-01,5.19141e-02,9.99999e-01
5.785602090e-01,5.50379e-02,9.99999e-01,5.50379e-02,9.99999e-01
5.814530100e-01,5.82823e-02,9.99999e-01,5.82823e-02,9.99999e-01
5.843602750e-01,6.16482e-02,9.99999e-01,6.16482e-02,9.99999e-01
5.872820764e-01,6.51362e-02,9.99999e-01,6.51362e-02,9.99999e-01
5.902184868e-01,6.87468e-02,9.99999e-01,6.87468e-02,9.99999e-01
5.931695792e-01,7.24802e-02,9.99999e-01,7.24802e-02,9.99999e-01
5.961354271e-01,7.63366e-02,9.99999e-01,7.63366e-02,9.99999e-01
5.991161043e-01,8.03160e-02,9.99999e-01,8.03160e-02,9.99999e-01
6.021116848e-01,8.44179e-02,9.99999e-01,8.44179e-02,9.99999e-01
6.051222432e-01,8.86421e-02,9.99999e-01,8.86421e-02,9.99999e-01
6.081478544e-01,9.29880e-02,9.99999e-01,9.29880e-02,9.99999e-01
6.111885937e-01,9.74548e-02,9.99999e-01,9.74548e-02,9.99999e-01
6.142445367e-01,1.02041e-01,9.99999e-01,1.02041e-01,9.99999e-01
6.173157594e-01,1.06747e-01,9.99999e-01,1.06747e-01,9.99999e-01
6.204023382e-01,1.11570e-01,9.99999e-01,1.11570e-01,9.99999e-01
6.235043498e-01,1.16510e-01,9.99999e-01,1.16510e-01,9.99999e-01
6.266218716e-01,1.21563e-01,9.99999e-01,1.21563e-01,9.99999e-01
6.297549810e-01,1.26730e-01,9.99999e-01,1.26730e-01,9.99999e-01
6.329037559e-01,1.32008e-01,9.99999e-01,1.32008e-01,9.99999e-01
6.360682746e-01,1.37395e-01,9.99999e-01,1.37395e-01,9.99999e-01
6.392486160e-01,1.42889e-01,9.99999e-01,1.42889e-01,9.99999e-01
6.424448591e-01,1.48487e-01,9.99999e-01,1.48487e-01,9.99999e-01
6.456570834e-01,1.54188e-01,9.99999e-01,1.54188e-01,9.99999e-01
6.488853688e-01,1.59988e-01,9.99999e-01,1.59988e-01,9.99999e-01
6.521297956e-01,1.65886e-01,9.99999e-01,1.65886e-01,9.99999e-01
6.553904446e-01,1.71878e-01,9.99999e-01,1.71878e-01,9.99999e-01
6.586673968e-01,1.77962e-01,9.99999e-01,1.77962e-01,9.99999e-01
6.619607338e-01,1.84134e-01,9.99999e-01,1.84134e-01,9.99999e-01
6.652705375e-01,1.90393e-01,9.99999e-01,1.90393e-01,9.99999e-01
6.685968902e-01,1.96734e-01,9.99999e-01,1.96734e-01,9.99999e-01
6.719398746e-01,2.03154e-01,9.99999e-01,2.03154e-01,9.99999e-01
6.752995740e-01,2.09652e-01,9.99999e-01,2.09652e-01,9.99999e-01
6.786760719e-01,2.16222e-01,9.99999e-01,2.16222e-01,9.99999e-01
6.820694522e-01,2.22863e-01,9.99999e-01,2.22863e-01,9.99999e-01
6.854797995e-01,2.29570e-01,9.99999e-01,2.29570e-01,9.99999e-01
6.889071985e-01,2.36341e-01,9.99999e-01,2.36341e-01,9.99999e-01
6.923517345e-01,2.43172e-01,9.99999e-01,2.43172e-01,9.99999e-01
6.958134932e-01,2.50059e-01,9.99999e-01,2.50059e-01,9.99999e-01
6.992925606e-01,2.57000e-01,9.99999e-01,2.57000e-01,9.99999e-01
7.027890234e-01,2.63991e-01,9.99999e-01,2.63991e-01,9.99999e-01
7.063029686e-01,2.71028e-01,9.99999e-01,2.71028e-01,9.99999e-01
7.098344834e-01,2.78108e-01,9.99999e-01,2.78108e-01,9.99999e-01
7.133836558e-01,2.85227e-01,9.99999e-01,2.85227e-01,9.99999e-01
7.169505741e-01,2.92383e-01,9.99999e-01,2.92383e-01,9.99999e-01
7.205353270e-01,2.99572e-01,9.99999e-01,2.99572e-01,9.99999e-01
7.241380036e-01,3.06790e-01,9.99999e-01,3.06790e-01,9.99999e-01
7.277586936e-01,3.14035e-01,9.99999e-01,3.14035e-01,9.99999e-01
7.313974871e-01,3.21302e-01,9.99999e-01,3.21302e-01,9.99999e-01
7.350544745e-01,3.28589e-01,9.99999e-01,3.28589e-01,9.99999e-01
7.387297469e-01,3.35893e-01,9.99999e-01,3.35893e-01,9.99999e-01
7.424233956e-01,3.43209e-01,9.99999e-01,3.43209e-01,9.99999e-01
7.461355126e-01,3.50536e-01,9.99999e-01,3.50536e-01,9.99999e-01
7.498661902e-01,3.57870e-01,9.99999e-01,3.57870e-01,9.99999e-01
7.536155211e-01,3.65208e-01,9.99999e-01,3.65208e-01,9.99999e-01
7.573835987e-01,3.72547e-01,9.99999e-01,3.72547e-01,9.99999e-01
7.611705167e-01,3.79885e-01,9.99999e-01,3.79885e-01,9.99999e-01
7.649763693e-01,3.87217e-01,9.99999e-01,3.87217e-01,9.99999e-01
7.688012511e-01,3.94542e-01,9.99999e-01,3.94542e-01,9.99999e-01
7.726452574e-01,4.01857e-01,9.99999e-01,4.01857e-01,9.99999e-01
7.765084837e-01,4.09159e-01,9.99999e-01,4.09159e-01,9.99999e-01
7.803910261e-01,4.00144e-01,9.60853e-01,4.16446e-01,9.99999e-01
7.842929812e-01,3.52305e-01,8.31469e-01,4.23714e-01,9.99999e-01
7.882144461e-01,3.54112e-01,8.21677e-01,4.30962e-01,9.99999e-01
7.921555184e-01,3.90497e-01,8.91164e-01,4.38188e-01,9.99999e-01
7.961162960e-01,4.12111e-01,9.25284e-01,4.45388e-01,9.99999e-01
8.000968774e-01,4.33927e-01,9.58826e-01,4.52560e-01,9.99999e-01
8.040973618e-01,4.49769e-01,9.78389e-01,4.59703e-01,9.99999e-01
8.081178486e-01,4.62172e-01,9.90052e-01,4.66815e-01,9.99999e-01
8.121584379e-01,4.72423e-01,9.96898e-01,4.73892e-01,9.99999e-01
8.162192301e-01,4.80605e-01,9.99314e-01,4.80934e-01,9.99999e-01
8.203003262e-01,4.87934e-01,9.99988e-01,4.87939e-01,9.99999e-01
8.244018279e-01,4.94904e-01,9.99999e-01,4.94904e-01,9.99999e-01
8.285238370e-01,5.01828e-01,9.99999e-01,5.01828e-01,9.99999e-01
8.326664562e-01,5.08709e-01,9.99999e-01,5.08709e-01,9.99999e-01
8.368297885e-01,5.15546e-01,9.99999e-01,5.15546e-01,9.99999e-01
8.410139374e-01,5.22337e-01,9.99999e-01,5.22337e-01,9.99999e-01
8.452190071e-01,5.29081e-01,9.99999e-01,5.29081e-01,9.99999e-01
8.494451021e-01,5.35776e-01,9.99999e-01,5.35776e-01,9.99999e-01
8.536923276e-01,5.42421e-01,9.99999e-01,5.42421e-01,9.99999e-01
8.579607893e-01,5.49015e-01,9.99999e-01,5.49015e-01,9.99999e-01
8.622505932e-01,5.55556e-01,9.99999e-01,5.55556e-01,9.99999e-01
8.665618462e-01,5.16097e-01,9.18250e-01,5.62044e-01,9.99999e-01
8.708946554e-01,3.57205e-01,6.28354e-01,5.68477e-01,9.99999e-01
8.752491287e-01,3.94229e-01,6.85789e-01,5.74854e-01,9.99999e-01
8.796253743e-01,4.71939e-01,8.12042e-01,5.81175e-01,9.99999e-01
8.840235012e-01,5.27222e-01,8.97491e-01,5.87439e-01,9.99999e-01
8.884436187e-01,5.68789e-01,9.58130e-01,5.93644e-01,9.99999e-01
8.928858368e-01,5.89508e-01,9.82856e-01,5.99791e-01,9.99999e-01
8.973502660e-01,6.03327e-01,9.95790e-01,6.05877e-01,9.99999e-01
9.018370173e-01,6.11619e-01,9.99534e-01,6.11904e-01,9.99999e-01
9.063462024e-01,6.10716e-01,9.88422e-01,6.17869e-01,9.99999e-01
9.108779334e-01,6.07009e-01,9.73123e-01,6.23774e-01,9.99999e-01
9.154323231e-01,6.25576e-01,9.93583e-01,6.29616e-01,9.99999e-01
9.200094847e-01,5.80422e-01,9.13481e-01,6.35396e-01,9.99999e-01
9.246095321e-01,5.61180e-01,8.75320e-01,6.41113e-01,9.99999e-01
9.292325798e-01,5.83252e-01,9.01794e-01,6.46768e-01,9.99999e-01
9.338787427e-01,5.89822e-01,9.04137e-01,6.52359e-01,9.99999e-01
9.385481364e-01,6.10896e-01,9.28573e-01,6.57886e-01,9.99999e-01
9.432408771e-01,6.33846e-01,9.55521e-01,6.63350e-01,9.99999e-01
9.479570815e-01,6.53353e-01,9.76975e-01,6.68750e-01,9.99999e-01
9.526968669e-01,6.66549e-01,9.88819e-01,6.74086e-01,9.99999e-01
9.574603512e-01,6.76098e-01,9.95201e-01,6.79358e-01,9.99999e-01
9.622476530e-01,6.83539e-01,9.98499e-01,6.84566e-01,9.99999e-01
9.670588912e-01,6.89399e-01,9.99549e-01,6.89709e-01,9.99999e-01
9.718941857e-01,6.94766e-01,9.99967e-01,6.94789e-01,9.99999e-01
9.767536566e-01,6.99804e-01,9.99999e-01,6.99804e-01,9.99999e-01
9.816374249e-01,7.04756e-01,9.99999e-01,7.04756e-01,9.99999e-01
9.865456120e-01,7.09643e-01,9.99999e-01,7.09643e-01,9.99999e-01
9.914783401e-01,7.14468e-01,9.99999e-01,7.14468e-01,9.99999e-01
9.964357318e-01,7.19228e-01,9.99999e-01,7.19228e-01,9.99999e-01
1.001417910e+00,7.23926e-01,9.99999e-01,7.23926e-01,9.99999e-01
1.006425000e+00,7.28560e-01,9.99999e-01,7.28560e-01,9.99999e-01
1.011457125e+00,7.33132e-01,9.99999e-01,7.33132e-01,9.99999e-01
1.016514411e+00,7.37641e-01,9.99999e-01,7.37641e-01,9.99999e-01
1.021596983e+00,7.42045e-01,9.99942e-01,7.42088e-01,9.99999e-01
1.026704968e+00,7.43098e-01,9.95477e-01,7.46473e-01,9.99999e-01
1.031838492e+00,7.14553e-01,9.51725e-01,7.50797e-01,9.99999e-01
1.036997685e+00,9.67698e-02,1.28162e-01,7.55059e-01,9.99999e-01
1.042182673e+00,5.89081e-02,7.75860e-02,7.59261e-01,9.99999e-01
1.047393587e+00,7.91191e-02,1.03640e-01,7.63403e-01,9.99999e-01
1.052630555e+00,1.12718e-03,1.46866e-03,7.67485e-01,9.99999e-01
1.057893707e+00,3.12787e-03,4.05423e-03,7.71507e-01,9.99999e-01
1.063183176e+00,1.31181e-02,1.69163e-02,7.75470e-01,9.99999e-01
1.068499092e+00,4.42070e-02,5.67210e-02,7.79375e-01,9.99999e-01
1.073841587e+00,1.26845e-01,1.61952e-01,7.83222e-01,9.99999e-01
1.079210795e+00,2.48457e-01,3.15697e-01,7.87011e-01,9.99999e-01
1.084606849e+00,4.17838e-01,5.28412e-01,7.90743e-01,9.99999e-01
1.090029883e+00,5.70369e-01,7.17970e-01,7.94419e-01,9.99999e-01
1.095480033e+00,6.77672e-01,8.49172e-01,7.98038e-01,9.99999e-01
1.100957433e+00,7.40863e-01,9.24226e-01,8.01603e-01,9.99999e-01
1.106462220e+00,7.79275e-01,9.67908e-01,8.05112e-01,9.99999e-01
1.111994531e+00,7.98850e-01,9.87982e-01,8.08566e-01,9.99999e-01
1.117554504e+00,8.09567e-01,9.97043e-01,8.11967e-01,9.99999e-01
1.123142276e+00,8.15156e-01,9.99804e-01,8.15315e-01,9.99999e-01
1.128757988e+00,8.18610e-01,9.99999e-01,8.18610e-01,9.99999e-01
1.134401778e+00,8.21852e-01,9.99999e-01,8.21852e-01,9.99999e-01
1.140073787e+00,8.25043e-01,9.99999e-01,8.25043e-01,9.99999e-01
1.145774156e+00,8.28184e-01,9.99999e-01,8.28184e-01,9.99999e-01
1.151503026e+00,8.31273e-01,9.99999e-01,8.31273e-01,9.99999e-01
1.157260541e+00,8.34313e-01,9.99999e-01,8.34313e-01,9.99999e-01
1.163046844e+00,8.37304e-01,9.99999e-01,8.37304e-01,9.99999e-01
1.168862078e+00,8.40246e-01,9.99999e-01,8.40246e-01,9.99999e-01
1.174706389e+00,8.43139e-01,9.99999e-01,8.43139e-01,9.99999e-01
1.180579921e+00,8.45986e-01,9.99999e-01,8.45986e-01,9.99999e-01
1.186482820e+00,8.48780e-01,9.99993e-01,8.48785e-01,9.99999e-01
1.192415234e+00,8.37972e-01,9.84068e-01,8.51538e-01,9.99999e-01
1.198377311e+00,4.75516e-01,5.56650e-01,8.54246e-01,9.99999e-01
1.204369197e+00,2.97164e-13,3.46786e-13,8.56908e-01,9.99999e-01
1.210391043e+00,1.59217e-49,1.85238e-49,8.59526e-01,9.99999e-01
1.216442998e+00,4.87008e-43,5.64908e-43,8.62100e-01,9.99999e-01
1.222525213e+00,2.05827e-42,2.38052e-42,8.64630e-01,9.99999e-01
1.228637839e+00,7.49443e-33,8.64291e-33,8.67118e-01,9.99999e-01
1.234781029e+00,4.63493e-21,5.33018e-21,8.69563e-01,9.99999e-01
1.240954934e+00,3.39018e-14,3.88796e-14,8.71967e-01,9.99999e-01
1.247159708e+00,1.21269e-07,1.38700e-07,8.74330e-01,9.99999e-01
1.253395507e+00,5.20382e-05,5.93601e-05,8.76653e-01,9.99999e-01
1.259662485e+00,3.29008e-03,3.74325e-03,8.78935e-01,9.99999e-01
1.265960797e+00,3.49171e-02,3.96254e-02,8.81178e-01,9.99999e-01
1.272290601e+00,1.99047e-01,2.25323e-01,8.83383e-01,9.99999e-01
1.278652054e+00,1.90961e-01,2.15641e-01,8.85549e-01,9.99999e-01
1.285045314e+00,3.58515e-03,4.03879e-03,8.87678e-01,9.99999e-01
1.291470541e+00,1.83325e-06,2.06036e-06,8.89769e-01,9.99999e-01
1.297927893e+00,1.80036e-03,2.01873e-03,8.91824e-01,9.99999e-01
1.304417533e+00,7.18182e-02,8.03476e-02,8.93843e-01,9.99999e-01
1.310939621e+00,1.75289e-02,1.95673e-02,8.95827e-01,9.99999e-01
1.317494319e+00,1.89091e-17,2.10622e-17,8.97775e-01,9.99999e-01
1.324081790e+00,6.20615e-12,6.89810e-12,8.99690e-01,9.99999e-01
1.330702199e+00,4.62068e-07,5.12514e-07,9.01570e-01,9.99999e-01
1.337355710e+00,8.03592e-07,8.89502e-07,9.03417e-01,9.99999e-01
1.344042489e+00,2.65795e-07,2.93621e-07,9.05232e-01,9.99999e-01
1.350762701e+00,2.69186e-07,2.96782e-07,9.07014e-01,9.99999e-01
1.357516515e+00,6.65863e-05,7.32712e-05,9.08764e-01,9.99999e-01
1.364304097e+00,1.65642e-03,1.81927e-03,9.10483e-01,9.99999e-01
1.371125618e+00,3.44574e-02,3.77751e-02,9.12171e-01,9.99999e-01
1.377981246e+00,6.06736e-02,6.63949e-02,9.13829e-01,9.99999e-01
1.384871152e+00,1.88841e-01,2.06281e-01,9.15457e-01,9.99999e-01
1.391795508e+00,2.13009e-01,2.32275e-01,9.17055e-01,9.99999e-01
1.398754485e+00,3.72400e-01,4.05388e-01,9.18625e-01,9.99999e-01
1.405748258e+00,4.73547e-01,5.14632e-01,9.20166e-01,9.99999e-01
1.412776999e+00,6.05397e-01,6.56840e-01,9.21680e-01,9.99999e-01
1.419840884e+00,5.46594e-01,5.92085e-01,9.23166e-01,9.99999e-01
1.426940089e+00,4.38884e-02,4.74662e-02,9.24625e-01,9.99999e-01
1.434074789e+00,0.00000e+00,0.00000e+00,9.26057e-01,9.99999e-01
1.441245163e+00,0.00000e+00,0.00000e+00,9.27463e-01,9.99999e-01
1.448451389e+00,0.00000e+00,0.00000e+00,9.28844e-01,9.99999e-01
1.455693646e+00,0.00000e+00,0.00000e+00,9.30199e-01,9.99999e-01
1.462972114e+00,3.88449e-194,4.17001e-194,9.31530e-01,9.99999e-01
1.470286975e+00,3.30786e-81,3.54602e-81,9.32835e-01,9.99999e-01
1.477638409e+00,1.93538e-51,2.07188e-51,9.34117e-01,9.99999e-01
1.485026601e+00,4.13143e-29,4.41687e-29,9.35376e-01,9.99999e-01
1.492451734e+00,8.26104e-25,8.82013e-25,9.36611e-01,9.99999e-01
1.499913993e+00,2.05094e-11,2.18692e-11,9.37823e-01,9.99999e-01
1.507413563e+00,3.47191e-10,3.69740e-10,9.39013e-01,9.99999e-01
1.514950631e+00,1.36525e-11,1.45211e-11,9.40181e-01,9.99999e-01
1.522525384e+00,7.05218e-37,7.49173e-37,9.41327e-01,9.99999e-01
1.530138011e+00,1.40487e-86,1.49065e-86,9.42452e-01,9.99999e-01
1.537788701e+00,2.52812e-64,2.67935e-64,9.43556e-01,9.99999e-01
1.545477645e+00,1.98909e-14,2.10565e-14,9.44639e-01,9.99999e-01
1.553205033e+00,2.83493e-10,2.99769e-10,9.45703e-01,9.99999e-01
1.560971058e+00,9.32601e-11,9.85059e-11,9.46746e-01,9.99999e-01
1.568775913e+00,8.03887e-218,8.48187e-218,9.47770e-01,9.99999e-01
1.576619793e+00,0.00000e+00,0.00000e+00,9.48775e-01,9.99999e-01
1.584502892e+00,1.87933e-278,1.97874e-278,9.49761e-01,9.99999e-01
1.592425406e+00,3.29459e-194,3.46533e-194,9.50728e-01,9.99999e-01
1.600387533e+00,1.06353e-312,1.11753e-312,9.51677e-01,9.99999e-01
1.608389471e+00,0.00000e+00,0.00000e+00,9.52609e-01,9.99999e-01
1.616431418e+00,0.00000e+00,0.00000e+00,9.53523e-01,9.99999e-01
1.624513575e+00,1.45889e-246,1.52856e-246,9.54420e-01,9.99999e-01
1.632636143e+00,2.91734e-183,3.05385e-183,9.55300e-01,9.99999e-01
1.640799324e+00,2.59509e-75,2.71406e-75,9.56163e-01,9.99999e-01
1.649003321e+00,2.60955e-75,2.72677e-75,9.57010e-01,9.99999e-01
1.657248337e+00,1.98103e-58,2.06822e-58,9.57841e-01,9.99999e-01
1.665534579e+00,8.19568e-59,8.54913e-59,9.58656e-01,9.99999e-01
1.673862252e+00,7.19671e-38,7.50082e-38,9.59456e-01,9.99999e-01
1.682231563e+00,1.55323e-26,1.61754e-26,9.60241e-01,9.99999e-01
1.690642721e+00,3.20562e-15,3.33567e-15,9.61010e-01,9.99999e-01
1.699095934e+00,7.17906e-10,7.46445e-10,9.61766e-01,9.99999e-01
1.707591414e+00,1.53209e-05,1.59177e-05,9.62507e-01,9.99999e-01
1.716129371e+00,1.87016e-03,1.94154e-03,9.63233e-01,9.99999e-01
1.724710018e+00,2.99670e-02,3.10878e-02,9.63946e-01,9.99999e-01
1.733333568e+00,1.00851e-01,1.04547e-01,9.64646e-01,9.99999e-01
1.742000236e+00,2.52754e-01,2.61831e-01,9.65332e-01,9.99999e-01
1.750710237e+00,4.89813e-03,5.07050e-03,9.66005e-01,9.99999e-01
1.759463788e+00,3.84182e-36,3.97430e-36,9.66665e-01,9.99999e-01
1.768261107e+00,7.23533e-38,7.47982e-38,9.67312e-01,9.99999e-01
1.777102413e+00,1.27059e-36,1.31267e-36,9.67948e-01,9.99999e-01
1.785987925e+00,1.27635e-34,1.31776e-34,9.68571e-01,9.99999e-01
1.794917864e+00,4.86352e-33,5.01817e-33,9.69182e-01,9.99999e-01
1.803892454e+00,6.98804e-32,7.20579e-32,9.69781e-01,9.99999e-01
1.812911916e+00,1.37719e-30,1.41924e-30,9.70369e-01,9.99999e-01
1.821976476e+00,1.05330e-30,1.08482e-30,9.70946e-01,9.99999e-01
1.831086358e+00,7.34783e-25,7.56329e-25,9.71511e-01,9.99999e-01
1.840241790e+00,3.48447e-21,3.58460e-21,9.72066e-01,9.99999e-01
1.849442999e+00,8.24115e-15,8.47322e-15,9.72610e-01,9.99999e-01
1.858690214e+00,8.66320e-14,8.90227e-14,9.73144e-01,9.99999e-01
1.867983665e+00,1.63528e-14,1.67950e-14,9.73667e-01,9.99999e-01
1.877323583e+00,2.75096e-68,2.82386e-68,9.74181e-01,9.99999e-01
