#,Wave/freq,Total,CO2,Rayleigh,CIA
4.000000000e-01,4.06422e-04,9.99999e-01,4.06422e-04,9.99999e-01
4.020000000e-01,4.74274e-04,9.99999e-01,4.74274e-04,9.99999e-01
4.040100000e-01,5.51678e-04,9.99999e-01,5.51678e-04,9.99999e-01
4.060300500e-01,6.39802e-04,9.99999e-01,6.39802e-04,9.99999e-01
4.080602003e-01,7.39834e-04,9.99999e-01,7.39834e-04,9.99999e-01
4.101005013e-01,8.53054e-04,9.99999e-01,8.53054e-04,9.99999e-01
4.121510038e-01,9.80838e-04,9.99999e-01,9.80838e-04,9.99999e-01
4.142117588e-01,1.12466e-03,9.99999e-01,1.12466e-03,9.99999e-01
4.162828176e-01,1.28609e-03,9.99999e-01,1.28609e-03,9.99999e-01
4.183642317e-01,1.46679e-03,9.99999e-01,1.46679e-03,9.99999e-01
4.204560528e-01,1.66856e-03,9.99999e-01,1.66856e-03,9.99999e-01
4.225583331e-01,1.89324e-03,9.99999e-01,1.89324e-03,9.99999e-01
4.246711247e-01,2.14283e-03,9.99999e-01,2.14283e-03,9.99999e-01
4.267944804e-01,2.41940e-03,9.99999e-01,2.41940e-03,9.99999e-01
4.289284528e-01,2.72512e-03,9.99999e-01,2.72512e-03,9.99999e-01
4.310730950e-01,3.06227e-03,9.99999e-01,3.06227e-03,9.99999e-01
4.332284605e-01,3.43321e-03,9.99999e-01,3.43321e-03,9.99999e-01
4.353946028e-01,3.84040e-03,9.99999e-01,3.84040e-03,9.99999e-01
4.375715758e-01,4.28638e-03,9.99999e-01,4.28638e-03,9.99999e-01
4.397594337e-01,4.77379e-03,9.99999e-01,4.77379e-03,9.99999e-01
4.419582309e-01,5.30531e-03,9.99999e-01,5.30531e-03,9.99999e-01
4.441680220e-01,5.88374e-03,9.99999e-01,5.88374e-03,9.99999e-01
4.463888621e-01,6.51191e-03,9.99999e-01,6.51191e-03,9.99999e-01
4.486208064e-01,7.19272e-03,9.99999e-01,7.19272e-03,9.99999e-01
4.508639105e-01,7.92912e-03,9.99999e-01,7.92912e-03,9.99999e-01
4.531182300e-01,8.72410e-03,9.99999e-01,8.72410e-03,9.99999e-01
4.553838212e-01,9.58068e-03,9.99999e-01,9.58068e-03,9.99999e-01
4.576607403e-01,1.05019e-02,9.99999e-01,1.05019e-02,9.99999e-01
4.599490440e-01,1.14909e-02,9.99999e-01,1.14909e-02,9.99999e-01
4.622487892e-01,1.25507e-02,9.99999e-01,1.25507e-02,9.99999e-01
4.645600332e-01,1.36843e-02,9.99999e-01,1.36843e-02,9.99999e-01
4.668828333e-01,1.48949e-02,9.99999e-01,1.48949e-02,9.99999e-01
4.692172475e-01,1.61854e-02,9.99999e-01,1.61854e-02,9.99999e-01
4.715633337e-01,1.75589e-02,9.99999e-01,1.75589e-02,9.99999e-01
4.739211504e-01,1.90184e-02,9.99999e-01,1.90184e-02,9.99999e-01
4.762907561e-01,2.05667e-02,9.99999e-01,2.05667e-02,9.99999e-01
4.786722099e-01,2.22067e-02,9.99999e-01,2.22067e-02,9.99999e-01
4.810655710e-01,2.39411e-02,9.99999e-01,2.39411e-02,9.99999e-01
4.834708988e-01,2.57727e-02,9.99999e-01,2.57727e-02,9.99999e-01
4.858882533e-01,2.77041e-02,9.99999e-01,2.77041e-02,9.99999e-01
4.883176946e-01,2.97377e-02,9.99999e-01,2.97377e-02,9.99999e-01
4.907592831e-01,3.18760e-02,9.99999e-01,3.18760e-02,9.99999e-01
4.932130795e-01,3.41211e-02,9.99999e-01,3.41211e-02,9.99999e-01
4.956791449e-01,3.64754e-02,9.99999e-01,3.64754e-02,9.99999e-01
4.981575406e-01,3.89407e-02,9.99999e-01,3.89407e-02,9.99999e-01
5.006483283e-01,4.15190e-02,9.99999e-01,4.15190e-02,9.99999e-01
5.031515699e-01,4.42120e-02,9.99999e-01,4.42120e-02,9.99999e-01
5.056673278e-01,4.70212e-02,9.99999e-01,4.70212e-02,9.99999e-01
5.081956644e-01,4.99482e-02,9.99999e-01,4.99482e-02,9.99999e-01
5.107366428e-01,5.29940e-02,9.99999e-01,5.29940e-02,9.99999e-01
5.132903260e-01,5.61599e-02,9.99999e-01,5.61599e-02,9.99999e-01
5.158567776e-01,5.94468e-02,9.99999e-01,5.94468e-02,9.99999e-01
5.184360615e-01,6.28554e-02,9.99999e-01,6.28554e-02,9.99999e-01
5.210282418e-01,6.63863e-02,9.99999e-01,6.63863e-02,9.99999e-01
5.236333830e-01,7.00398e-02,9.99999e-01,7.00398e-02,9.99999e-01
5.262515499e-01,7.38163e-02,9.99999e-01,7.38163e-02,9.99999e-01
5.288828077e-01,7.77158e-02,9.99999e-01,7.77158e-02,9.99999e-01
5.315272217e-01,8.17381e-02,9.99999e-01,8.17381e-02,9.99999e-01
5.341848578e-01,8.58829e-02,9.99999e-01,8.58829e-02,9.99999e-01
5.368557821e-01,9.01498e-02,9.99999e-01,9.01498e-02,9.99999e-01
5.395400610e-01,9.45380e-02,9.99999e-01,9.45380e-02,9.99999e-01
5.422377613e-01,9.90469e-02,9.99999e-01,9.90469e-02,9.99999e-01
5.449489501e-01,1.03675e-01,9.99999e-01,1.03675e-01,9.99999e-01
5.476736949e-01,1.08422e-01,9.99999e-01,1.08422e-01,9.99999e-01
5.504120634e-01,1.13286e-01,9.99999e-01,1.13286e-01,9.99999e-01
5.531641237e-01,1.18266e-01,9.99999e-01,1.18266e-01,9.99999e-01
5.559299443e-01,1.23360e-01,9.99999e-01,1.23360e-01,9.99999e-01
5.587095940e-01,1.28565e-01,9.99999e-01,1.28565e-01,9.99999e-01
5.615031420e-01,1.33882e-01,9.99999e-01,1.33882e-01,9.99999e-01
5.643106577e-01,1.39306e-01,9.99999e-01,1.39306e-01,9.99999e-01
5.671322110e-01,1.44837e-01,9.99999e-01,1.44837e-01,9.99999e-01
5.699678720e-01,1.50471e-01,9.99999e-01,1.50471e-01,9.99999e-01
5.728177114e-01,1.56207e-01,9.99999e-01,1.56207e-01,9.99999e-01
5.756818000e-01,1.62042e-01,9.99999e-01,1.62042e-01,9.99999e-01
5.785602090e-01,1.67973e-01,9.99999e-01,1.67973e-01,9.99999e-01
5.814530100e-01,1.73998e-01,9.99999e-01,1.73998e-01,9.99999e-01
5.843602750e-01,1.80113e-01,9.99999e-01,1.80113e-01,9.99999e-01
5.872820764e-01,1.86316e-01,9.99999e-01,1.86316e-01,9.99999e-01
5.902184868e-01,1.92603e-01,9.99999e-01,1.92603e-01,9.99999e-01
5.931695792e-01,1.98973e-01,9.99999e-01,1.98973e-01,9.99999e-01
5.961354271e-01,2.05420e-01,9.99999e-01,2.05420e-01,9.99999e-01
5.991161043e-01,2.11944e-01,9.99999e-01,2.11944e-01,9.99999e-01
6.021116848e-01,2.18539e-01,9.99999e-01,2.18539e-01,9.99999e-01
6.051222432e-01,2.25204e-01,9.99999e-01,2.25204e-01,9.99999e-01
6.081478544e-01,2.31934e-01,9.99999e-01,2.31934e-01,9.99999e-01
6.111885937e-01,2.38726e-01,9.99999e-01,2.38726e-01,9.99999e-01
6.142445367e-01,2.45577e-01,9.99999e-01,2.45577e-01,9.99999e-01
6.173157594e-01,2.52483e-01,9.99999e-01,2.52483e-01,9.99999e-01
6.204023382e-01,2.59442e-01,9.99999e-01,2.59442e-01,9.99999e-01
6.235043498e-01,2.66449e-01,9.99999e-01,2.66449e-01,9.99999e-01
6.266218716e-01,2.73501e-01,9.99999e-01,2.73501e-01,9.99999e-01
6.297549810e-01,2.80596e-01,9.99999e-01,2.80596e-01,9.99999e-01
6.329037559e-01,2.87728e-01,9.99999e-01,2.87728e-01,9.99999e-01
6.360682746e-01,2.94896e-01,9.99999e-01,2.94896e-01,9.99999e-01
6.392486160e-01,3.02096e-01,9.99999e-01,3.02096e-01,9.99999e-01
6.424448591e-01,3.09324e-01,9.99999e-01,3.09324e-01,9.99999e-01
6.456570834e-01,3.16576e-01,9.99999e-01,3.16576e-01,9.99999e-01
6.488853688e-01,3.23851e-01,9.99999e-01,3.23851e-01,9.99999e-01
6.521297956e-01,3.31144e-01,9.99999e-01,3.31144e-01,9.99999e-01
6.553904446e-01,3.38453e-01,9.99999e-01,3.38453e-01,9.99999e-01
6.586673968e-01,3.45774e-01,9.99999e-01,3.45774e-01,9.99999e-01
6.619607338e-01,3.53103e-01,9.99999e-01,3.53103e-01,9.99999e-01
6.652705375e-01,3.60439e-01,9.99999e-01,3.60439e-01,9.99999e-01
6.685968902e-01,3.67778e-01,9.99999e-01,3.67778e-01,9.99999e-01
6.719398746e-01,3.75117e-01,9.99999e-01,3.75117e-01,9.99999e-01
6.752995740e-01,3.82452e-01,9.99999e-01,3.82452e-01,9.99999e-01
6.786760719e-01,3.89783e-01,9.99999e-01,3.89783e-01,9.99999e-01
6.820694522e-01,3.97105e-01,9.99999e-01,3.97105e-01,9.99999e-01
6.854797995e-01,4.04415e-01,9.99999e-01,4.04415e-01,9.99999e-01
6.889071985e-01,4.11712e-01,9.99999e-01,4.11712e-01,9.99999e-01
6.923517345e-01,4.18993e-01,9.99999e-01,4.18993e-01,9.99999e-01
6.958134932e-01,4.26254e-01,9.99999e-01,4.26254e-01,9.99999e-01
6.992925606e-01,4.33495e-01,9.99999e-01,4.33495e-01,9.99999e-01
7.027890234e-01,4.40711e-01,9.99999e-01,4.40711e-01,9.99999e-01
7.063029686e-01,4.47902e-01,9.99999e-01,4.47902e-01,9.99999e-01
7.098344834e-01,4.55064e-01,9.99999e-01,4.55064e-01,9.99999e-01
7.133836558e-01,4.62197e-01,9.99999e-01,4.62197e-01,9.99999e-01
7.169505741e-01,4.69296e-01,9.99999e-01,4.69296e-01,9.99999e-01
7.205353270e-01,4.76362e-01,9.99999e-01,4.76362e-01,9.99999e-01
7.241380036e-01,4.83391e-01,9.99999e-01,4.83391e-01,9.99999e-01
7.277586936e-01,4.90382e-01,9.99999e-01,4.90382e-01,9.99999e-01
7.313974871e-01,4.97333e-01,9.99999e-01,4.97333e-01,9.99999e-01
7.350544745e-01,5.04242e-01,9.99999e-01,5.04242e-01,9.99999e-01
7.387297469e-01,5.11108e-01,9.99999e-01,5.11108e-01,9.99999e-01
7.424233956e-01,5.17929e-01,9.99999e-01,5.17929e-01,9.99999e-01
7.461355126e-01,5.24704e-01,9.99999e-01,5.24704e-01,9.99999e-01
7.498661902e-01,5.31431e-01,9.99999e-01,5.31431e-01,9.99999e-01
7.536155211e-01,5.38108e-01,9.99999e-01,5.38108e-01,9.99999e-01
7.573835987e-01,5.44735e-01,9.99999e-01,5.44735e-01,9.99999e-01
7.611705167e-01,5.51311e-01,9.99999e-01,5.51311e-01,9.99999e-01
7.649763693e-01,5.57834e-01,9.99999e-01,5.57834e-01,9.99999e-01
7.688012511e-01,5.64302e-01,9.99999e-01,5.64302e-01,9.99999e-01
7.726452574e-01,5.70716e-01,9.99999e-01,5.70716e-01,9.99999e-01
7.765084837e-01,5.77074e-01,9.99999e-01,5.77074e-01,9.99999e-01
7.803910261e-01,5.68770e-01,9.74963e-01,5.83375e-01,9.99999e-01
7.842929812e-01,5.25360e-01,8.91016e-01,5.89618e-01,9.99999e-01
7.882144461e-01,5.26858e-01,8.84282e-01,5.95803e-01,9.99999e-01
7.921555184e-01,5.60593e-01,9.31327e-01,6.01928e-01,9.99999e-01
7.961162960e-01,5.79550e-01,9.53216e-01,6.07994e-01,9.99999e-01
8.000968774e-01,5.98289e-01,9.74413e-01,6.13999e-01,9.99999e-01
8.040973618e-01,6.11645e-01,9.86613e-01,6.19943e-01,9.99999e-01
8.081178486e-01,6.21984e-01,9.93860e-01,6.25826e-01,9.99999e-01
8.121584379e-01,6.30437e-01,9.98084e-01,6.31647e-01,9.99999e-01
8.162192301e-01,6.37135e-01,9.99576e-01,6.37405e-01,9.99999e-01
8.203003262e-01,6.43095e-01,9.99992e-01,6.43100e-01,9.99999e-01
8.244018279e-01,6.48732e-01,9.99999e-01,6.48732e-01,9.99999e-01
8.285238370e-01,6.54301e-01,9.99999e-01,6.54301e-01,9.99999e-01
8.326664562e-01,6.59806e-01,9.99999e-01,6.59806e-01,9.99999e-01
8.368297885e-01,6.65248e-01,9.99999e-01,6.65248e-01,9.99999e-01
8.410139374e-01,6.70625e-01,9.99999e-01,6.70625e-01,9.99999e-01
8.452190071e-01,6.75939e-01,9.99999e-01,6.75939e-01,9.99999e-01
8.494451021e-01,6.81188e-01,9.99999e-01,6.81188e-01,9.99999e-01
8.536923276e-01,6.86373e-01,9.99999e-01,6.86373e-01,9.99999e-01
8.579607893e-01,6.91495e-01,9.99999e-01,6.91495e-01,9.99999e-01
8.622505932e-01,6.96552e-01,9.99999e-01,6.96552e-01,9.99999e-01
8.665618462e-01,6.59226e-01,9.39676e-01,7.01545e-01,9.99999e-01
8.708946554e-01,5.26718e-01,7.45558e-01,7.06474e-01,9.99999e-01
8.752491287e-01,5.61751e-01,7.89708e-01,7.11340e-01,9.99999e-01
8.796253743e-01,6.29341e-01,8.78793e-01,7.16141e-01,9.99999e-01
8.840235012e-01,6.74305e-01,9.35390e-01,7.20880e-01,9.99999e-01
8.884436187e-01,7.06646e-01,9.73938e-01,7.25555e-01,9.99999e-01
8.928858368e-01,7.22425e-01,9.89396e-01,7.30168e-01,9.99999e-01
8.973502660e-01,7.32806e-01,9.97398e-01,7.34717e-01,9.99999e-01
9.018370173e-01,7.38992e-01,9.99712e-01,7.39205e-01,9.99999e-01
9.063462024e-01,7.38326e-01,9.92866e-01,7.43630e-01,9.99999e-01
9.108779334e-01,7.35535e-01,9.83343e-01,7.47994e-01,9.99999e-01
9.154323231e-01,7.49309e-01,9.96029e-01,7.52296e-01,9.99999e-01
9.200094847e-01,7.14371e-01,9.44263e-01,7.56537e-01,9.99999e-01
9.246095321e-01,7.00687e-01,9.21085e-01,7.60718e-01,9.99999e-01
9.292325798e-01,7.17488e-01,9.38089e-01,7.64839e-01,9.99999e-01
9.338787427e-01,7.22463e-01,9.39605e-01,7.68900e-01,9.99999e-01
9.385481364e-01,7.38369e-01,9.55320e-01,7.72901e-01,9.99999e-01
9.432408771e-01,7.55353e-01,9.72334e-01,7.76844e-01,9.99999e-01
9.479570815e-01,7.69608e-01,9.85755e-01,7.80728e-01,9.99999e-01
9.526968669e-01,7.79137e-01,9.93094e-01,7.84555e-01,9.99999e-01
9.574603512e-01,7.85991e-01,9.97040e-01,7.88324e-01,9.99999e-01
9.622476530e-01,7.91304e-01,9.99074e-01,7.92036e-01,9.99999e-01
9.670588912e-01,7.95471e-01,9.99721e-01,7.95692e-01,9.99999e-01
9.718941857e-01,7.99276e-01,9.99979e-01,7.99292e-01,9.99999e-01
9.767536566e-01,8.02837e-01,9.99999e-01,8.02837e-01,9.99999e-01
9.816374249e-01,8.06327e-01,9.99999e-01,8.06327e-01,9.99999e-01
9.865456120e-01,8.09763e-01,9.99999e-01,8.09763e-01,9.99999e-01
9.914783401e-01,8.13145e-01,9.99999e-01,8.13145e-01,9.99999e-01
9.964357318e-01,8.16474e-01,9.99999e-01,8.16474e-01,9.99999e-01
1.001417910e+00,8.19751e-01,9.99999e-01,8.19751e-01,9.99999e-01
1.006425000e+00,8.22975e-01,9.99999e-01,8.22975e-01,9.99999e-01
1.011457125e+00,8.26149e-01,9.99999e-01,8.26149e-01,9.99999e-01
1.016514411e+00,8.29271e-01,9.99999e-01,8.29271e-01,9.99999e-01
1.021596983e+00,8.32315e-01,9.99965e-01,8.32343e-01,9.99999e-01
1.026704968e+00,8.33050e-01,9.97227e-01,8.35366e-01,9.99999e-01
1.031838492e+00,8.10090e-01,9.66302e-01,8.38339e-01,9.99999e-01
1.036997685e+00,1.67368e-01,1.98949e-01,8.41264e-01,9.99999e-01
1.042182673e+00,1.63972e-01,1.94247e-01,8.44141e-01,9.99999e-01
1.047393587e+00,1.75169e-01,2.06818e-01,8.46971e-01,9.99999e-01
1.052630555e+00,1.04952e-02,1.23509e-02,8.49754e-01,9.99999e-01
1.057893707e+00,2.31827e-02,2.71940e-02,8.52491e-01,9.99999e-01
1.063183176e+00,6.11849e-02,7.15459e-02,8.55183e-01,9.99999e-01
1.068499092e+00,1.42081e-01,1.65629e-01,8.57830e-01,9.99999e-01
1.073841587e+00,2.75643e-01,3.20354e-01,8.60432e-01,9.99999e-01
1.079210795e+00,4.20243e-01,4.86960e-01,8.62990e-01,9.99999e-01
1.084606849e+00,5.82989e-01,6.73582e-01,8.65506e-01,9.99999e-01
1.090029883e+00,7.07346e-01,8.14934e-01,8.67979e-01,9.99999e-01
1.095480033e+00,7.86850e-01,9.03998e-01,8.70410e-01,9.99999e-01
1.100957433e+00,8.31414e-01,9.52583e-01,8.72799e-01,9.99999e-01
1.106462220e+00,8.57728e-01,9.80094e-01,8.75148e-01,9.99999e-01
1.111994531e+00,8.70944e-01,9.92577e-01,8.77456e-01,9.99999e-01
1.117554504e+00,8.78120e-01,9.98174e-01,8.79725e-01,9.99999e-01
1.123142276e+00,8.81848e-01,9.99878e-01,8.81954e-01,9.99999e-01
1.128757988e+00,8.84145e-01,9.99999e-01,8.84145e-01,9.99999e-01
1.134401778e+00,8.86298e-01,9.99999e-01,8.86298e-01,9.99999e-01
1.140073787e+00,8.88414e-01,9.99999e-01,8.88414e-01,9.99999e-01
1.145774156e+00,8.90493e-01,9.99999e-01,8.90493e-01,9.99999e-01
1.151503026e+00,8.92535e-01,9.99999e-01,8.92535e-01,9.99999e-01
1.157260541e+00,8.94542e-01,9.99999e-01,8.94542e-01,9.99999e-01
1.163046844e+00,8.96513e-01,9.99999e-01,8.96513e-01,9.99999e-01
1.168862078e+00,8.98449e-01,9.99999e-01,8.98449e-01,9.99999e-01
1.174706389e+00,9.00352e-01,9.99999e-01,9.00352e-01,9.99999e-01
1.180579921e+00,9.02221e-01,9.99999e-01,9.02221e-01,9.99999e-01
1.186482820e+00,9.04053e-01,9.99995e-01,9.04056e-01,9.99999e-01
1.192415234e+00,8.96941e-01,9.90154e-01,9.05859e-01,9.99999e-01
1.198377311e+00,5.17585e-01,5.70260e-01,9.07630e-01,9.99999e-01
1.204369197e+00,5.09673e-09,5.60469e-09,9.09369e-01,9.99999e-01
1.210391043e+00,2.47313e-31,2.71451e-31,9.11077e-01,9.99999e-01
1.216442998e+00,2.41700e-27,2.64803e-27,9.12755e-01,9.99999e-01
1.222525213e+00,5.89463e-27,6.44643e-27,9.14402e-01,9.99999e-01
1.228637839e+00,7.53722e-21,8.22822e-21,9.16020e-01,9.99999e-01
1.234781029e+00,8.04974e-14,8.77251e-14,9.17608e-01,9.99999e-01
1.240954934e+00,2.17205e-09,2.36306e-09,9.19168e-01,9.99999e-01
1.247159708e+00,1.85810e-05,2.01814e-05,9.20699e-01,9.99999e-01
1.253395507e+00,1.79474e-03,1.94614e-03,9.22203e-01,9.99999e-01
1.259662485e+00,1.96541e-02,2.12780e-02,9.23680e-01,9.99999e-01
1.265960797e+00,1.15917e-01,1.25298e-01,9.25129e-01,9.99999e-01
1.272290601e+00,3.64447e-01,3.93336e-01,9.26552e-01,9.99999e-01
1.278652054e+00,3.41532e-01,3.68050e-01,9.27950e-01,9.99999e-01
1.285045314e+00,1.48520e-02,1.59816e-02,9.29321e-01,9.99999e-01
1.291470541e+00,2.22123e-04,2.38670e-04,9.30668e-01,9.99999e-01
1.297927893e+00,1.18970e-02,1.27652e-02,9.31989e-01,9.99999e-01
1.304417533e+00,1.94197e-01,2.08078e-01,9.33287e-01,9.99999e-01
1.310939621e+00,5.12901e-02,5.48814e-02,9.34561e-01,9.99999e-01
1.317494319e+00,3.02006e-11,3.22721e-11,9.35811e-01,9.99999e-01
1.324081790e+00,5.50115e-08,5.87078e-08,9.37038e-01,9.99999e-01
1.330702199e+00,1.02794e-04,1.09560e-04,9.38242e-01,9.99999e-01
1.337355710e+00,9.65388e-05,1.02764e-04,9.39424e-01,9.99999e-01
1.344042489e+00,2.95498e-05,3.14164e-05,9.40585e-01,9.99999e-01
1.350762701e+00,6.83368e-05,7.25656e-05,9.41723e-01,9.99999e-01
1.357516515e+00,1.92200e-03,2.03851e-03,9.42841e-01,9.99999e-01
1.364304097e+00,1.81737e-02,1.92531e-02,9.43938e-01,9.99999e-01
1.371125618e+00,1.18517e-01,1.25412e-01,9.45014e-01,9.99999e-01
1.377981246e+00,1.76539e-01,1.86602e-01,9.46070e-01,9.99999e-01
1.384871152e+00,3.56235e-01,3.76130e-01,9.47107e-01,9.99999e-01
1.391795508e+00,3.84066e-01,4.05080e-01,9.48124e-01,9.99999e-01
1.398754485e+00,5.44060e-01,5.73224e-01,9.49122e-01,9.99999e-01
1.405748258e+00,6.30143e-01,6.63237e-01,9.50101e-01,9.99999e-01
1.412776999e+00,7.33844e-01,7.71603e-01,9.51063e-01,9.99999e-01
1.419840884e+00,6.71325e-01,7.05168e-01,9.52006e-01,9.99999e-01
1.426940089e+00,7.43291e-02,7.80004e-02,9.52931e-01,9.99999e-01
1.434074789e+00,0.00000e+00,0.00000e+00,9.53839e-01,9.99999e-01
1.441245163e+00,0.00000e+00,0.00000e+00,9.54730e-01,9.99999e-01
1.448451389e+00,0.00000e+00,0.00000e+00,9.55604e-01,9.99999e-01
1.455693646e+00,1.06899e-247,1.11765e-247,9.56461e-01,9.99999e-01
1.462972114e+00,2.65962e-120,2.77824e-120,9.57303e-01,9.99999e-01
1.470286975e+00,7.96486e-51,8.31293e-51,9.58128e-01,9.99999e-01
1.477638409e+00,1.64879e-32,1.71939e-32,9.58938e-01,9.99999e-01
1.485026601e+00,1.02615e-18,1.06920e-18,9.59732e-01,9.99999e-01
1.492451734e+00,6.13017e-16,6.38218e-16,9.60512e-01,9.99999e-01
1.499913993e+00,8.74966e-08,9.10212e-08,9.61276e-01,9.99999e-01
1.507413563e+00,1.33965e-06,1.39253e-06,9.62027e-01,9.99999e-01
1.514950631e+00,5.44094e-08,5.65138e-08,9.62763e-01,9.99999e-01
1.522525384e+00,1.49097e-23,1.54747e-23,9.63484e-01,9.99999e-01
1.530138011e+00,4.35306e-54,4.51472e-54,9.64193e-01,9.99999e-01
1.537788701e+00,2.09602e-40,2.17230e-40,9.64887e-01,9.99999e-01
1.545477645e+00,9.66061e-10,1.00051e-09,9.65569e-01,9.99999e-01
1.553205033e+00,1.04698e-06,1.08356e-06,9.66237e-01,9.99999e-01
1.560971058e+00,3.00986e-07,3.11292e-07,9.66893e-01,9.99999e-01
1.568775913e+00,7.16246e-135,7.40277e-135,9.67536e-01,9.99999e-01
1.576619793e+00,4.27575e-315,4.41633e-315,9.68167e-01,9.99999e-01
1.584502892e+00,3.59107e-172,3.70677e-172,9.68786e-01,9.99999e-01
1.592425406e+00,2.73100e-120,2.81722e-120,9.69393e-01,9.99999e-01
1.600387533e+00,3.06387e-193,3.15867e-193,9.69988e-01,9.99999e-01
1.608389471e+00,4.94066e-324,4.94066e-324,9.70572e-01,9.99999e-01
1.616431418e+00,0.00000e+00,0.00000e+00,9.71145e-01,9.99999e-01
1.624513575e+00,1.49089e-152,1.53430e-152,9.71707e-01,9.99999e-01
1.632636143e+00,1.31772e-113,1.35532e-113,9.72258e-01,9.99999e-01
1.640799324e+00,3.37221e-47,3.46650e-47,9.72798e-01,9.99999e-01
1.649003321e+00,3.55334e-47,3.65071e-47,9.73328e-01,9.99999e-01
1.657248337e+00,9.21788e-37,9.46540e-37,9.73848e-01,9.99999e-01
1.665534579e+00,5.37349e-37,5.51490e-37,9.74358e-01,9.99999e-01
1.673862252e+00,4.27993e-24,4.39031e-24,9.74858e-01,9.99999e-01
1.682231563e+00,4.23690e-17,4.34398e-17,9.75349e-01,9.99999e-01
1.690642721e+00,3.53709e-10,3.62470e-10,9.75830e-01,9.99999e-01
1.699095934e+00,1.22793e-06,1.25773e-06,9.76301e-01,9.99999e-01
1.707591414e+00,6.71292e-04,6.87260e-04,9.76764e-01,9.99999e-01
1.716129371e+00,1.75305e-02,1.79392e-02,9.77218e-01,9.99999e-01
1.724710018e+00,1.10517e-01,1.13042e-01,9.77662e-01,9.99999e-01
1.733333568e+00,2.40780e-01,2.46171e-01,9.78099e-01,9.99999e-01
1.742000236e+00,4.18333e-01,4.27512e-01,9.78527e-01,9.99999e-01
1.750710237e+00,1.75338e-02,1.79109e-02,9.78946e-01,9.99999e-01
1.759463788e+00,6.06075e-23,6.18849e-23,9.79358e-01,9.99999e-01
1.768261107e+00,3.67407e-24,3.74996e-24,9.79761e-01,9.99999e-01
1.777102413e+00,4.65274e-23,4.74692e-23,9.80157e-01,9.99999e-01
1.785987925e+00,4.32146e-22,4.40720e-22,9.80545e-01,9.99999e-01
1.794917864e+00,5.81026e-21,5.92323e-21,9.80926e-01,9.99999e-01
1.803892454e+00,1.78375e-20,1.81774e-20,9.81299e-01,9.99999e-01
1.812911916e+00,1.58436e-19,1.61395e-19,9.81665e-01,9.99999e-01
1.821976476e+00,1.01139e-19,1.02990e-19,9.82024e-01,9.99999e-01
1.831086358e+00,3.98212e-16,4.05356e-16,9.82376e-01,9.99999e-01
1.840241790e+00,1.08145e-13,1.10046e-13,9.82721e-01,9.99999e-01
1.849442999e+00,1.24831e-09,1.26982e-09,9.83059e-01,9.99999e-01
1.858690214e+00,7.86424e-09,7.99706e-09,9.83391e-01,9.99999e-01
1.867983665e+00,1.32065e-09,1.34251e-09,9.83716e-01,9.99999e-01
1.877323583e+00,7.77020e-43,7.89625e-43,9.84035e-01,9.99999e-01
