#,Wave/freq,Total,CO2,Rayleigh,CIA
4.000000000e-01,9.08454e-17,9.99999e-01,9.08454e-17,9.99999e-01
4.020000000e-01,1.88574e-16,9.99999e-01,1.88574e-16,9.99999e-01
4.040100000e-01,3.85550e-16,9.99999e-01,3.85550e-16,9.99999e-01
4.060300500e-01,7.77220e-16,9.99999e-01,7.77220e-16,9.99999e-01
4.080602003e-01,1.54523e-15,9.99999e-01,1.54523e-15,9.99999e-01
4.101005013e-01,3.03073e-15,9.99999e-01,3.03073e-15,9.99999e-01
4.121510038e-01,5.86574e-15,9.99999e-01,5.86574e-15,9.99999e-01
4.142117588e-01,1.12056e-14,9.99999e-01,1.12056e-14,9.99999e-01
4.162828176e-01,2.11345e-14,9.99999e-01,2.11345e-14,9.99999e-01
4.183642317e-01,3.93647e-14,9.99999e-01,3.93647e-14,9.99999e-01
4.204560528e-01,7.24247e-14,9.99999e-01,7.24247e-14,9.99999e-01
4.225583331e-01,1.31655e-13,9.99999e-01,1.31655e-13,9.99999e-01
4.246711247e-01,2.36516e-13,9.99999e-01,2.36516e-13,9.99999e-01
4.267944804e-01,4.20008e-13,9.99999e-01,4.20008e-13,9.99999e-01
4.289284528e-01,7.37443e-13,9.99999e-01,7.37443e-13,9.99999e-01
4.310730950e-01,1.28047e-12,9.99999e-01,1.28047e-12,9.99999e-01
4.332284605e-01,2.19928e-12,9.99999e-01,2.19928e-12,9.99999e-01
4.353946028e-01,3.73722e-12,9.99999e-01,3.73722e-12,9.99999e-01
4.375715758e-01,6.28448e-12,9.99999e-01,6.28448e-12,9.99999e-01
4.397594337e-01,1.04600e-11,9.99999e-01,1.04600e-11,9.99999e-01
4.419582309e-01,1.72355e-11,9.99999e-01,1.72355e-11,9.99999e-01
4.441680220e-01,2.81210e-11,9.99999e-01,2.81210e-11,9.99999e-01
4.463888621e-01,4.54399e-11,9.99999e-01,4.54399e-11,9.99999e-01
4.486208064e-01,7.27326e-11,9.99999e-01,7.27326e-11,9.99999e-01
4.508639105e-01,1.15341e-10,9.99999e-01,1.15341e-10,9.99999e-01
4.531182300e-01,1.81253e-10,9.99999e-01,1.81253e-10,9.99999e-01
4.553838212e-01,2.82298e-10,9.99999e-01,2.82298e-10,9.99999e-01
4.576607403e-01,4.35844e-10,9.99999e-01,4.35844e-10,9.99999e-01
4.599490440e-01,6.67155e-10,9.99999e-01,6.67155e-10,9.99999e-01
4.622487892e-01,1.01268e-09,9.99999e-01,1.01268e-09,9.99999e-01
4.645600332e-01,1.52453e-09,9.99999e-01,1.52453e-09,9.99999e-01
4.668828333e-01,2.27662e-09,9.99999e-01,2.27662e-09,9.99999e-01
4.692172475e-01,3.37291e-09,9.99999e-01,3.37291e-09,9.99999e-01
4.715633337e-01,4.95848e-09,9.99999e-01,4.95848e-09,9.99999e-01
4.739211504e-01,7.23412e-09,9.99999e-01,7.23412e-09,9.99999e-01
4.762907561e-01,1.04757e-08,9.99999e-01,1.04757e-08,9.99999e-01
4.786722099e-01,1.50593e-08,9.99999e-01,1.50593e-08,9.99999e-01
4.810655710e-01,2.14937e-08,9.99999e-01,2.14937e-08,9.99999e-01
4.834708988e-01,3.04627e-08,9.99999e-01,3.04627e-08,9.99999e-01
4.858882533e-01,4.28777e-08,9.99999e-01,4.28777e-08,9.99999e-01
4.883176946e-01,5.99465e-08,9.99999e-01,5.99465e-08,9.99999e-01
4.907592831e-01,8.32570e-08,9.99999e-01,8.32570e-08,9.99999e-01
4.932130795e-01,1.14884e-07,9.99999e-01,1.14884e-07,9.99999e-01
4.956791449e-01,1.57520e-07,9.99999e-01,1.57520e-07,9.99999e-01
4.981575406e-01,2.14638e-07,9.99999e-01,2.14638e-07,9.99999e-01
5.006483283e-01,2.90684e-07,9.99999e-01,2.90684e-07,9.99999e-01
5.031515699e-01,3.91323e-07,9.99999e-01,3.91323e-07,9.99999e-01
5.056673278e-01,5.23719e-07,9.99999e-01,5.23719e-07,9.99999e-01
5.081956644e-01,6.96886e-07,9.99999e-01,6.96886e-07,9.99999e-01
5.107366428e-01,9.22093e-07,9.99999e-01,9.22093e-07,9.99999e-01
5.132903260e-01,1.21335e-06,9.99999e-01,1.21335e-06,9.99999e-01
5.158567776e-01,1.58797e-06,9.99999e-01,1.58797e-06,9.99999e-01
5.184360615e-01,2.06723e-06,9.99999e-01,2.06723e-06,9.99999e-01
5.210282418e-01,2.67716e-06,9.99999e-01,2.67716e-06,9.99999e-01
5.236333830e-01,3.44938e-06,9.99999e-01,3.44938e-06,9.99999e-01
5.262515499e-01,4.42216e-06,9.99999e-01,4.42216e-06,9.99999e-01
5.288828077e-01,5.64153e-06,9.99999e-01,5.64153e-06,9.99999e-01
5.315272217e-01,7.16258e-06,9.99999e-01,7.16258e-06,9.99999e-01
5.341848578e-01,9.05096e-06,9.99999e-01,9.05096e-06,9.99999e-01
5.368557821e-01,1.13845e-05,9.99999e-01,1.13845e-05,9.99999e-01
5.395400610e-01,1.42548e-05,9.99999e-01,1.42548e-05,9.99999e-01
5.422377613e-01,1.77698e-05,9.99999e-01,1.77698e-05,9.99999e-01
5.449489501e-01,2.20554e-05,9.99999e-01,2.20554e-05,9.99999e-01
5.476736949e-01,2.72578e-05,9.99999e-01,2.72578e-05,9.99999e-01
5.504120634e-01,3.35468e-05,9.99999e-01,3.35468e-05,9.99999e-01
5.531641237e-01,4.11179e-05,9.99999e-01,4.11179e-05,9.99999e-01
5.559299443e-01,5.01955e-05,9.99999e-01,5.01955e-05,9.99999e-01
5.587095940e-01,6.10362e-05,9.99999e-01,6.10362e-05,9.99999e-01
5.615031420e-01,7.39320e-05,9.99999e-01,7.39320e-05,9.99999e-01
5.643106577e-01,8.92141e-05,9.99999e-01,8.92141e-05,9.99999e-01
5.671322110e-01,1.07256e-04,9.99999e-01,1.07256e-04,9.99999e-01
5.699678720e-01,1.28479e-04,9.99999e-01,1.28479e-04,9.99999e-01
5.728177114e-01,1.53353e-04,9.99999e-01,1.53353e-04,9.99999e-01
5.756818000e-01,1.82404e-04,9.99999e-01,1.82404e-04,9.99999e-01
5.785602090e-01,2.16216e-04,9.99999e-01,2.16216e-04,9.99999e-01
5.814530100e-01,2.55436e-04,9.99999e-01,2.55436e-04,9.99999e-01
5.843602750e-01,3.00779e-04,9.99999e-01,3.00779e-04,9.99999e-01
5.872820764e-01,3.53029e-04,9.99999e-01,3.53029e-04,9.99999e-01
5.902184868e-01,4.13048e-04,9.99999e-01,4.13048e-04,9.99999e-01
5.931695792e-01,4.81773e-04,9.99999e-01,4.81773e-04,9.99999e-01
5.961354271e-01,5.60228e-04,9.99999e-01,5.60228e-04,9.99999e-01
5.991161043e-01,6.49520e-04,9.99999e-01,6.49520e-04,9.99999e-01
6.021116848e-01,7.50847e-04,9.99999e-01,7.50847e-04,9.99999e-01
6.051222432e-01,8.65500e-04,9.99999e-01,8.65500e-04,9.99999e-01
6.081478544e-01,9.94864e-04,9.99999e-01,9.94864e-04,9.99999e-01
6.111885937e-01,1.14042e-03,9.99999e-01,1.14042e-03,9.99999e-01
6.142445367e-01,1.30375e-03,9.99999e-01,1.30375e-03,9.99999e-01
6.173157594e-01,1.48654e-03,9.99999e-01,1.48654e-03,9.99999e-01
6.204023382e-01,1.69057e-03,9.99999e-01,1.69057e-03,9.99999e-01
6.235043498e-01,1.91773e-03,9.99999e-01,1.91773e-03,9.99999e-01
6.266218716e-01,2.17000e-03,9.99999e-01,2.17000e-03,9.99999e-01
6.297549810e-01,2.44946e-03,9.99999e-01,2.44946e-03,9.99999e-01
6.329037559e-01,2.75831e-03,9.99999e-01,2.75831e-03,9.99999e-01
6.360682746e-01,3.09882e-03,9.99999e-01,3.09882e-03,9.99999e-01
6.392486160e-01,3.47337e-03,9.99999e-01,3.47337e-03,9.99999e-01
6.424448591e-01,3.88443e-03,9.99999e-01,3.88443e-03,9.99999e-01
6.456570834e-01,4.33455e-03,9.99999e-01,4.33455e-03,9.99999e-01
6.488853688e-01,4.82637e-03,9.99999e-01,4.82637e-03,9.99999e-01
6.521297956e-01,5.36259e-03,9.99999e-01,5.36259e-03,9.99999e-01
6.553904446e-01,5.94601e-03,9.99999e-01,5.94601e-03,9.99999e-01
6.586673968e-01,6.57946e-03,9.99999e-01,6.57946e-03,9.99999e-01
6.619607338e-01,7.26584e-03,9.99999e-01,7.26584e-03,9.99999e-01
6.652705375e-01,8.00813e-03,9.99999e-01,8.00813e-03,9.99999e-01
6.685968902e-01,8.80930e-03,9.99999e-01,8.80930e-03,9.99999e-01
6.719398746e-01,9.67239e-03,9.99999e-01,9.67239e-03,9.99999e-01
6.752995740e-01,1.06005e-02,9.99999e-01,1.06005e-02,9.99999e-01
6.786760719e-01,1.15966e-02,9.99999e-01,1.15966e-02,9.99999e-01
6.820694522e-01,1.26638e-02,9.99999e-01,1.26638e-02,9.99999e-01
6.854797995e-01,1.38052e-02,9.99999e-01,1.38052e-02,9.99999e-01
6.889071985e-01,1.50239e-02,9.99999e-01,1.50239e-02,9.99999e-01
6.923517345e-01,1.63228e-02,9.99999e-01,1.63228e-02,9.99999e-01
6.958134932e-01,1.77050e-02,9.99999e-01,1.77050e-02,9.99999e-01
6.992925606e-01,1.91735e-02,9.99999e-01,1.91735e-02,9.99999e-01
7.027890234e-01,2.07311e-02,9.99999e-01,2.07311e-02,9.99999e-01
7.063029686e-01,2.23806e-02,9.99999e-01,2.23806e-02,9.99999e-01
7.098344834e-01,2.41250e-02,9.99999e-01,2.41250e-02,9.99999e-01
7.133836558e-01,2.59667e-02,9.99999e-01,2.59667e-02,9.99999e-01
7.169505741e-01,2.79085e-02,9.99999e-01,2.79085e-02,9.99999e-01
7.205353270e-01,2.99527e-02,9.99999e-01,2.99527e-02,9.99999e-01
7.241380036e-01,3.21019e-02,9.99999e-01,3.21019e-02,9.99999e-01
7.277586936e-01,3.43582e-02,9.99999e-01,3.43582e-02,9.99999e-01
7.313974871e-01,3.67238e-02,9.99999e-01,3.67238e-02,9.99999e-01
7.350544745e-01,3.92007e-02,9.99999e-01,3.92007e-02,9.99999e-01
7.387297469e-01,4.17907e-02,9.99999e-01,4.17907e-02,9.99999e-01
7.424233956e-01,4.44955e-02,9.99999e-01,4.44955e-02,9.99999e-01
7.461355126e-01,4.73168e-02,9.99999e-01,4.73168e-02,9.99999e-01
7.498661902e-01,5.02559e-02,9.99999e-01,5.02559e-02,9.99999e-01
7.536155211e-01,5.33141e-02,9.99999e-01,5.33141e-02,9.99999e-01
7.573835987e-01,5.64924e-02,9.99999e-01,5.64924e-02,9.99999e-01
7.611705167e-01,5.97917e-02,9.99999e-01,5.97917e-02,9.99999e-01
7.649763693e-01,6.32129e-02,9.99999e-01,6.32129e-02,9.99999e-01
7.688012511e-01,6.67564e-02,9.99999e-01,6.67564e-02,9.99999e-01
7.726452574e-01,7.04226e-02,9.99999e-01,7.04226e-02,9.99999e-01
7.765084837e-01,7.42117e-02,9.99999e-01,7.42117e-02,9.99999e-01
7.803910261e-01,7.02916e-02,8.99745e-01,7.81238e-02,9.99999e-01
7.842929812e-01,4.97841e-02,6.05950e-01,8.21587e-02,9.99999e-01
7.882144461e-01,5.07153e-02,5.87552e-01,8.63161e-02,9.99999e-01
7.921555184e-01,6.51207e-02,7.18806e-01,9.05955e-02,9.99999e-01
7.961162960e-01,7.60840e-02,8.00915e-01,9.49962e-02,9.99999e-01
8.000968774e-01,8.81902e-02,8.86177e-01,9.95174e-02,9.99999e-01
8.040973618e-01,9.78557e-02,9.39491e-01,1.04158e-01,9.99999e-01
8.081178486e-01,1.05822e-01,9.71578e-01,1.08917e-01,9.99999e-01
8.121584379e-01,1.12798e-01,9.91257e-01,1.13793e-01,9.99999e-01
8.162192301e-01,1.18554e-01,9.98060e-01,1.18785e-01,9.99999e-01
8.203003262e-01,1.23887e-01,9.99973e-01,1.23890e-01,9.99999e-01
8.244018279e-01,1.29107e-01,9.99999e-01,1.29107e-01,9.99999e-01
8.285238370e-01,1.34435e-01,9.99999e-01,1.34435e-01,9.99999e-01
8.326664562e-01,1.39870e-01,9.99999e-01,1.39870e-01,9.99999e-01
8.368297885e-01,1.45412e-01,9.99999e-01,1.45412e-01,9.99999e-01
8.410139374e-01,1.51057e-01,9.99999e-01,1.51057e-01,9.99999e-01
8.452190071e-01,1.56803e-01,9.99999e-01,1.56803e-01,9.99999e-01
8.494451021e-01,1.62648e-01,9.99999e-01,1.62648e-01,9.99999e-01
8.536923276e-01,1.68588e-01,9.99999e-01,1.68588e-01,9.99999e-01
8.579607893e-01,1.74622e-01,9.99999e-01,1.74622e-01,9.99999e-01
8.622505932e-01,1.80747e-01,9.99999e-01,1.80747e-01,9.99999e-01
8.665618462e-01,1.59890e-01,8.55215e-01,1.86958e-01,9.99999e-01
8.708946554e-01,5.62392e-02,2.91011e-01,1.93255e-01,9.99999e-01
8.752491287e-01,7.12549e-02,3.56931e-01,1.99632e-01,9.99999e-01
8.796253743e-01,1.15363e-01,5.59775e-01,2.06088e-01,9.99999e-01
8.840235012e-01,1.56349e-01,7.35346e-01,2.12619e-01,9.99999e-01
8.884436187e-01,1.94123e-01,8.85508e-01,2.19222e-01,9.99999e-01
8.928858368e-01,2.14983e-01,9.51705e-01,2.25893e-01,9.99999e-01
8.973502660e-01,2.29867e-01,9.88124e-01,2.32629e-01,9.99999e-01
9.018370173e-01,2.39114e-01,9.98690e-01,2.39428e-01,9.99999e-01
9.063462024e-01,2.37940e-01,9.66118e-01,2.46285e-01,9.99999e-01
9.108779334e-01,2.34154e-01,9.24791e-01,2.53197e-01,9.99999e-01
9.154323231e-01,2.55494e-01,9.82063e-01,2.60160e-01,9.99999e-01
9.200094847e-01,2.11599e-01,7.91994e-01,2.67172e-01,9.99999e-01
9.246095321e-01,1.87428e-01,6.83470e-01,2.74229e-01,9.99999e-01
9.292325798e-01,2.09313e-01,7.44019e-01,2.81328e-01,9.99999e-01
9.338787427e-01,2.16607e-01,7.50898e-01,2.88464e-01,9.99999e-01
9.385481364e-01,2.39012e-01,8.08468e-01,2.95635e-01,9.99999e-01
9.432408771e-01,2.65759e-01,8.77561e-01,3.02838e-01,9.99999e-01
9.479570815e-01,2.89899e-01,9.34950e-01,3.10068e-01,9.99999e-01
9.526968669e-01,3.07237e-01,9.68211e-01,3.17324e-01,9.99999e-01
9.574603512e-01,3.20148e-01,9.86282e-01,3.24600e-01,9.99999e-01
9.622476530e-01,3.30471e-01,9.95708e-01,3.31895e-01,9.99999e-01
9.670588912e-01,3.38770e-01,9.98715e-01,3.39205e-01,9.99999e-01
9.718941857e-01,3.46497e-01,9.99911e-01,3.46527e-01,9.99999e-01
9.767536566e-01,3.53857e-01,9.99999e-01,3.53857e-01,9.99999e-01
9.816374249e-01,3.61194e-01,9.99999e-01,3.61194e-01,9.99999e-01
9.865456120e-01,3.68533e-01,9.99999e-01,3.68533e-01,9.99999e-01
9.914783401e-01,3.75871e-01,9.99999e-01,3.75871e-01,9.99999e-01
9.964357318e-01,3.83207e-01,9.99999e-01,3.83207e-01,9.99999e-01
1.001417910e+00,3.90536e-01,9.99999e-01,3.90536e-01,9.99999e-01
1.006425000e+00,3.97857e-01,9.99999e-01,3.97857e-01,9.99999e-01
1.011457125e+00,4.05166e-01,9.99999e-01,4.05166e-01,9.99999e-01
1.016514411e+00,4.12462e-01,9.99999e-01,4.12462e-01,9.99999e-01
1.021596983e+00,4.19649e-01,9.99783e-01,4.19740e-01,9.99999e-01
1.026704968e+00,4.21178e-01,9.86365e-01,4.27000e-01,9.99999e-01
1.031838492e+00,3.86920e-01,8.91031e-01,4.34238e-01,9.99999e-01
1.036997685e+00,1.88435e-02,4.26851e-02,4.41452e-01,9.99999e-01
1.042182673e+00,8.77164e-04,1.95516e-03,4.48640e-01,9.99999e-01
1.047393587e+00,2.36984e-03,5.19930e-03,4.55799e-01,9.99999e-01
1.052630555e+00,1.05653e-07,2.28228e-07,4.62928e-01,9.99999e-01
1.057893707e+00,4.09371e-07,8.70955e-07,4.70025e-01,9.99999e-01
1.063183176e+00,1.63866e-05,3.43472e-05,4.77087e-01,9.99999e-01
1.068499092e+00,1.97281e-04,4.07511e-04,4.84112e-01,9.99999e-01
1.073841587e+00,3.17020e-03,6.45531e-03,4.91099e-01,9.99999e-01
1.079210795e+00,2.12146e-02,4.25957e-02,4.98045e-01,9.99999e-01
1.084606849e+00,8.36608e-02,1.65681e-01,5.04950e-01,9.99999e-01
1.090029883e+00,1.99092e-01,3.88994e-01,5.11812e-01,9.99999e-01
1.095480033e+00,3.25215e-01,6.27068e-01,5.18628e-01,9.99999e-01
1.100957433e+00,4.18941e-01,7.97378e-01,5.25398e-01,9.99999e-01
1.106462220e+00,4.84556e-01,9.10615e-01,5.32120e-01,9.99999e-01
1.111994531e+00,5.20383e-01,9.65832e-01,5.38792e-01,9.99999e-01
1.117554504e+00,5.40837e-01,9.91607e-01,5.45414e-01,9.99999e-01
1.123142276e+00,5.51682e-01,9.99451e-01,5.51984e-01,9.99999e-01
1.128757988e+00,5.58501e-01,9.99999e-01,5.58501e-01,9.99999e-01
1.134401778e+00,5.64964e-01,9.99999e-01,5.64964e-01,9.99999e-01
1.140073787e+00,5.71372e-01,9.99999e-01,5.71372e-01,9.99999e-01
1.145774156e+00,5.77724e-01,9.99999e-01,5.77724e-01,9.99999e-01
1.151503026e+00,5.84019e-01,9.99999e-01,5.84019e-01,9.99999e-01
1.157260541e+00,5.90257e-01,9.99999e-01,5.90257e-01,9.99999e-01
1.163046844e+00,5.96435e-01,9.99999e-01,5.96435e-01,9.99999e-01
1.168862078e+00,6.02555e-01,9.99999e-01,6.02555e-01,9.99999e-01
1.174706389e+00,6.08614e-01,9.99999e-01,6.08614e-01,9.99999e-01
1.180579921e+00,6.14613e-01,9.99999e-01,6.14613e-01,9.99999e-01
1.186482820e+00,6.20530e-01,9.99965e-01,6.20551e-01,9.99999e-01
1.192415234e+00,5.97459e-01,9.53755e-01,6.26427e-01,9.99999e-01
1.198377311e+00,3.19779e-01,5.05785e-01,6.32242e-01,9.99999e-01
1.204369197e+00,2.76300e-34,4.33077e-34,6.37993e-01,9.99999e-01
1.210391043e+00,6.98503e-140,1.08517e-139,6.43682e-01,9.99999e-01
1.216442998e+00,5.32301e-121,8.19797e-121,6.49308e-01,9.99999e-01
1.222525213e+00,3.53272e-119,5.39453e-119,6.54870e-01,9.99999e-01
1.228637839e+00,7.25580e-92,1.09875e-91,6.60369e-01,9.99999e-01
1.234781029e+00,5.15681e-57,7.74524e-57,6.65804e-01,9.99999e-01
1.240954934e+00,1.00844e-37,1.50250e-37,6.71175e-01,9.99999e-01
1.247159708e+00,5.51712e-18,8.15560e-18,6.76482e-01,9.99999e-01
1.253395507e+00,3.12420e-12,4.58278e-12,6.81724e-01,9.99999e-01
1.259662485e+00,3.04125e-07,4.42747e-07,6.86903e-01,9.99999e-01
1.265960797e+00,2.46389e-04,3.56044e-04,6.92018e-01,9.99999e-01
1.272290601e+00,1.56396e-02,2.24362e-02,6.97068e-01,9.99999e-01
1.278652054e+00,1.44669e-02,2.06065e-02,7.02055e-01,9.99999e-01
1.285045314e+00,8.50792e-06,1.20342e-05,7.06977e-01,9.99999e-01
1.291470541e+00,2.60458e-16,3.65895e-16,7.11836e-01,9.99999e-01
1.297927893e+00,1.01814e-05,1.42073e-05,7.16632e-01,9.99999e-01
1.304417533e+00,6.44822e-04,8.93893e-04,7.21364e-01,9.99999e-01
1.310939621e+00,1.25267e-04,1.72537e-04,7.26032e-01,9.99999e-01
1.317494319e+00,4.11800e-48,5.63617e-48,7.30638e-01,9.99999e-01
1.324081790e+00,6.64883e-22,9.04379e-22,7.35182e-01,9.99999e-01
1.330702199e+00,2.03685e-18,2.75375e-18,7.39663e-01,9.99999e-01
1.337355710e+00,1.22198e-16,1.64227e-16,7.44082e-01,9.99999e-01
1.344042489e+00,5.77216e-20,7.71225e-20,7.48439e-01,9.99999e-01
1.350762701e+00,1.01523e-18,1.34872e-18,7.52735e-01,9.99999e-01
1.357516515e+00,2.67282e-11,3.53094e-11,7.56970e-01,9.99999e-01
1.364304097e+00,2.32396e-08,3.05324e-08,7.61145e-01,9.99999e-01
1.371125618e+00,1.16945e-04,1.52817e-04,7.65259e-01,9.99999e-01
1.377981246e+00,3.70380e-04,4.81442e-04,7.69314e-01,9.99999e-01
1.384871152e+00,8.83293e-03,1.14222e-02,7.73309e-01,9.99999e-01
1.391795508e+00,1.29149e-02,1.66162e-02,7.77246e-01,9.99999e-01
1.398754485e+00,5.77240e-02,7.38984e-02,7.81125e-01,9.99999e-01
1.405748258e+00,1.18885e-01,1.51456e-01,7.84945e-01,9.99999e-01
1.412776999e+00,2.36787e-01,3.00221e-01,7.88709e-01,9.99999e-01
1.419840884e+00,2.23497e-01,2.82046e-01,7.92415e-01,9.99999e-01
1.426940089e+00,7.31410e-03,9.18781e-03,7.96065e-01,9.99999e-01
1.434074789e+00,0.00000e+00,0.00000e+00,7.99660e-01,9.99999e-01
1.441245163e+00,0.00000e+00,0.00000e+00,8.03199e-01,9.99999e-01
1.448451389e+00,0.00000e+00,0.00000e+00,8.06683e-01,9.99999e-01
1.455693646e+00,0.00000e+00,0.00000e+00,8.10113e-01,9.99999e-01
1.462972114e+00,0.00000e+00,0.00000e+00,8.13490e-01,9.99999e-01
1.470286975e+00,4.09775e-232,5.01674e-232,8.16814e-01,9.99999e-01
1.477638409e+00,1.86516e-145,2.27435e-145,8.20085e-01,9.99999e-01
1.485026601e+00,1.69036e-80,2.05314e-80,8.23304e-01,9.99999e-01
1.492451734e+00,1.71585e-68,2.07611e-68,8.26472e-01,9.99999e-01
1.499913993e+00,4.42122e-29,5.32940e-29,8.29589e-01,9.99999e-01
1.507413563e+00,8.00732e-28,9.61659e-28,8.32656e-01,9.99999e-01
1.514950631e+00,1.90544e-29,2.28012e-29,8.35674e-01,9.99999e-01
1.522525384e+00,4.59895e-103,5.48380e-103,8.38642e-01,9.99999e-01
1.530138011e+00,8.76584e-248,1.04161e-247,8.41562e-01,9.99999e-01
1.537788701e+00,5.54421e-183,6.56558e-183,8.44434e-01,9.99999e-01
1.545477645e+00,1.05157e-37,1.24114e-37,8.47260e-01,9.99999e-01
1.553205033e+00,1.32113e-27,1.55420e-27,8.50038e-01,9.99999e-01
1.560971058e+00,9.06222e-28,1.06268e-27,8.52770e-01,9.99999e-01
1.568775913e+00,0.00000e+00,0.00000e+00,8.55457e-01,9.99999e-01
1.576619793e+00,0.00000e+00,0.00000e+00,8.58099e-01,9.99999e-01
1.584502892e+00,0.00000e+00,0.00000e+00,8.60697e-01,9.99999e-01
1.592425406e+00,0.00000e+00,0.00000e+00,8.63251e-01,9.99999e-01
1.600387533e+00,0.00000e+00,0.00000e+00,8.65762e-01,9.99999e-01
1.608389471e+00,0.00000e+00,0.00000e+00,8.68231e-01,9.99999e-01
1.616431418e+00,0.00000e+00,0.00000e+00,8.70657e-01,9.99999e-01
1.624513575e+00,0.00000e+00,0.00000e+00,8.73043e-01,9.99999e-01
1.632636143e+00,0.00000e+00,0.00000e+00,8.75387e-01,9.99999e-01
1.640799324e+00,5.90367e-215,6.72635e-215,8.77691e-01,9.99999e-01
1.649003321e+00,5.91482e-215,6.72172e-215,8.79956e-01,9.99999e-01
1.657248337e+00,7.73126e-166,8.76379e-166,8.82181e-01,9.99999e-01
1.665534579e+00,5.91534e-167,6.68877e-167,8.84369e-01,9.99999e-01
1.673862252e+00,5.10193e-106,5.75502e-106,8.86518e-01,9.99999e-01
1.682231563e+00,4.86360e-73,5.47314e-73,8.88629e-01,9.99999e-01
1.690642721e+00,4.84503e-40,5.43954e-40,8.90704e-01,9.99999e-01
1.699095934e+00,2.55461e-25,2.86153e-25,8.92743e-01,9.99999e-01
1.707591414e+00,1.33682e-12,1.49407e-12,8.94746e-01,9.99999e-01
1.716129371e+00,1.00664e-07,1.12258e-07,8.96714e-01,9.99999e-01
1.724710018e+00,8.28467e-05,9.21904e-05,8.98647e-01,9.99999e-01
1.733333568e+00,1.64752e-03,1.82946e-03,9.00546e-01,9.99999e-01
1.742000236e+00,2.29203e-02,2.53989e-02,9.02411e-01,9.99999e-01
1.750710237e+00,3.10657e-05,3.43554e-05,9.04243e-01,9.99999e-01
1.759463788e+00,3.39914e-101,3.75163e-101,9.06043e-01,9.99999e-01
1.768261107e+00,6.08989e-106,6.70833e-106,9.07810e-01,9.99999e-01
1.777102413e+00,2.59205e-103,2.84982e-103,9.09546e-01,9.99999e-01
1.785987925e+00,1.47280e-96,1.61624e-96,9.11251e-01,9.99999e-01
1.794917864e+00,3.66422e-92,4.01370e-92,9.12925e-01,9.99999e-01
1.803892454e+00,1.61824e-88,1.76940e-88,9.14570e-01,9.99999e-01
1.812911916e+00,4.95223e-85,5.40527e-85,9.16184e-01,9.99999e-01
1.821976476e+00,4.20615e-85,4.58301e-85,9.17770e-01,9.99999e-01
1.831086358e+00,4.35765e-68,4.74004e-68,9.19327e-01,9.99999e-01
1.840241790e+00,6.81190e-58,7.39735e-58,9.20855e-01,9.99999e-01
1.849442999e+00,4.08652e-40,4.43052e-40,9.22356e-01,9.99999e-01
1.858690214e+00,8.44871e-38,9.14530e-38,9.23830e-01,9.99999e-01
1.867983665e+00,2.42914e-38,2.62531e-38,9.25277e-01,9.99999e-01
1.877323583e+00,1.58693e-194,1.71246e-194,9.26697e-01,9.99999e-01
