#,Wave/freq,Total,CO2,Rayleigh,CIA
4.000000000e-01,1.24640e-03,9.99999e-01,1.24640e-03,9.99999e-01
4.020000000e-01,1.42260e-03,9.99999e-01,1.42260e-03,9.99999e-01
4.040100000e-01,1.61926e-03,9.99999e-01,1.61926e-03,9.99999e-01
4.060300500e-01,1.83839e-03,9.99999e-01,1.83839e-03,9.99999e-01
4.080602003e-01,2.08196e-03,9.99999e-01,2.08196e-03,9.99999e-01
4.101005013e-01,2.35201e-03,9.99999e-01,2.35201e-03,9.99999e-01
4.121510038e-01,2.65070e-03,9.99999e-01,2.65070e-03,9.99999e-01
4.142117588e-01,2.98027e-03,9.99999e-01,2.98027e-03,9.99999e-01
4.162828176e-01,3.34306e-03,9.99999e-01,3.34306e-03,9.99999e-01
4.183642317e-01,3.74153e-03,9.99999e-01,3.74153e-03,9.99999e-01
4.204560528e-01,4.17818e-03,9.99999e-01,4.17818e-03,9.99999e-01
4.225583331e-01,4.65563e-03,9.99999e-01,4.65563e-03,9.99999e-01
4.246711247e-01,5.17657e-03,9.99999e-01,5.17657e-03,9.99999e-01
4.267944804e-01,5.74375e-03,9.99999e-01,5.74375e-03,9.99999e-01
4.289284528e-01,6.35999e-03,9.99999e-01,6.35999e-03,9.99999e-01
4.310730950e-01,7.02819e-03,9.99999e-01,7.02819e-03,9.99999e-01
4.332284605e-01,7.75129e-03,9.99999e-01,7.75129e-03,9.99999e-01
4.353946028e-01,8.53226e-03,9.99999e-01,8.53226e-03,9.99999e-01
4.375715758e-01,9.37412e-03,9.99999e-01,9.37412e-03,9.99999e-01
4.397594337e-01,1.02799e-02,9.99999e-01,1.02799e-02,9.99999e-01
4.419582309e-01,1.12527e-02,9.99999e-01,1.12527e-02,9.99999e-01
4.441680220e-01,1.22956e-02,9.99999e-01,1.22956e-02,9.99999e-01
4.463888621e-01,1.34117e-02,9.99999e-01,1.34117e-02,9.99999e-01
4.486208064e-01,1.46039e-02,9.99999e-01,1.46039e-02,9.99999e-01
4.508639105e-01,1.58754e-02,9.99999e-01,1.58754e-02,9.99999e-01
4.531182300e-01,1.72292e-02,9.99999e-01,1.72292e-02,9.99999e-01
4.553838212e-01,1.86683e-02,9.99999e-01,1.86683e-02,9.99999e-01
4.576607403e-01,2.01955e-02,9.99999e-01,2.01955e-02,9.99999e-01
4.599490440e-01,2.18137e-02,9.99999e-01,2.18137e-02,9.99999e-01
4.622487892e-01,2.35258e-02,9.99999e-01,2.35258e-02,9.99999e-01
4.645600332e-01,2.53343e-02,9.99999e-01,2.53343e-02,9.99999e-01
4.668828333e-01,2.72421e-02,9.99999e-01,2.72421e-02,9.99999e-01
4.692172475e-01,2.92515e-02,9.99999e-01,2.92515e-02,9.99999e-01
4.715633337e-01,3.13650e-02,9.99999e-01,3.13650e-02,9.99999e-01
4.739211504e-01,3.35849e-02,9.99999e-01,3.35849e-02,9.99999e-01
4.762907561e-01,3.59134e-02,9.99999e-01,3.59134e-02,9.99999e-01
4.786722099e-01,3.83525e-02,9.99999e-01,3.83525e-02,9.99999e-01
4.810655710e-01,4.09042e-02,9.99999e-01,4.09042e-02,9.99999e-01
4.834708988e-01,4.35701e-02,9.99999e-01,4.35701e-02,9.99999e-01
4.858882533e-01,4.63520e-02,9.99999e-01,4.63520e-02,9.99999e-01
4.883176946e-01,4.92512e-02,9.99999e-01,4.92512e-02,9.99999e-01
4.907592831e-01,5.22690e-02,9.99999e-01,5.22690e-02,9.99999e-01
4.932130795e-01,5.54067e-02,9.99999e-01,5.54067e-02,9.99999e-01
4.956791449e-01,5.86651e-02,9.99999e-01,5.86651e-02,9.99999e-01
4.981575406e-01,6.20451e-02,9.99999e-01,6.20451e-02,9.99999e-01
5.006483283e-01,6.55473e-02,9.99999e-01,6.55473e-02,9.99999e-01
5.031515699e-01,6.91720e-02,9.99999e-01,6.91720e-02,9.99999e-01
5.056673278e-01,7.29197e-02,9.99999e-01,7.29197e-02,9.99999e-01
5.081956644e-01,7.67903e-02,9.99999e-01,7.67903e-02,9.99999e-01
5.107366428e-01,8.07838e-02,9.99999e-01,8.07838e-02,9.99999e-01
5.132903260e-01,8.49000e-02,9.99999e-01,8.49000e-02,9.99999e-01
5.158567776e-01,8.91383e-02,9.99999e-01,8.91383e-02,9.99999e-01
5.184360615e-01,9.34982e-02,9.99999e-01,9.34982e-02,9.99999e-01
5.210282418e-01,9.79788e-02,9.99999e-01,9.79788e-02,9.99999e-01
5.236333830e-01,1.02579e-01,9.99999e-01,1.02579e-01,9.99999e-01
5.262515499e-01,1.07299e-01,9.99999e-01,1.07299e-01,9.99999e-01
5.288828077e-01,1.12135e-01,9.99999e-01,1.12135e-01,9.99999e-01
5.315272217e-01,1.17088e-01,9.99999e-01,1.17088e-01,9.99999e-01
5.341848578e-01,1.22155e-01,9.99999e-01,1.22155e-01,9.99999e-01
5.368557821e-01,1.27335e-01,9.99999e-01,1.27335e-01,9.99999e-01
5.395400610e-01,1.32625e-01,9.99999e-01,1.32625e-01,9.99999e-01
5.422377613e-01,1.38025e-01,9.99999e-01,1.38025e-01,9.99999e-01
5.449489501e-01,1.43531e-01,9.99999e-01,1.43531e-01,9.99999e-01
5.476736949e-01,1.49141e-01,9.99999e-01,1.49141e-01,9.99999e-01
5.504120634e-01,1.54853e-01,9.99999e-01,1.54853e-01,9.99999e-01
5.531641237e-01,1.60665e-01,9.99999e-01,1.60665e-01,9.99999e-01
5.559299443e-01,1.66574e-01,9.99999e-01,1.66574e-01,9.99999e-01
5.587095940e-01,1.72577e-01,9.99999e-01,1.72577e-01,9.99999e-01
5.615031420e-01,1.78671e-01,9.99999e-01,1.78671e-01,9.99999e-01
5.643106577e-01,1.84853e-01,9.99999e-01,1.84853e-01,9.99999e-01
5.671322110e-01,1.91121e-01,9.99999e-01,1.91121e-01,9.99999e-01
5.699678720e-01,1.97472e-01,9.99999e-01,1.97472e-01,9.99999e-01
5.728177114e-01,2.03902e-01,9.99999e-01,2.03902e-01,9.99999e-01
5.756818000e-01,2.10407e-01,9.99999e-01,2.10407e-01,9.99999e-01
5.785602090e-01,2.16986e-01,9.99999e-01,2.16986e-01,9.99999e-01
5.814530100e-01,2.23635e-01,9.99999e-01,2.23635e-01,9.99999e-01
5.843602750e-01,2.30350e-01,9.99999e-01,2.30350e-01,9.99999e-01
5.872820764e-01,2.37128e-01,9.99999e-01,2.37128e-01,9.99999e-01
5.902184868e-01,2.43965e-01,9.99999e-01,2.43965e-01,9.99999e-01
5.931695792e-01,2.50859e-01,9.99999e-01,2.50859e-01,9.99999e-01
5.961354271e-01,2.57806e-01,9.99999e-01,2.57806e-01,9.99999e-01
5.991161043e-01,2.64802e-01,9.99999e-01,2.64802e-01,9.99999e-01
6.021116848e-01,2.71844e-01,9.99999e-01,2.71844e-01,9.99999e-01
6.051222432e-01,2.78929e-01,9.99999e-01,2.78929e-01,9.99999e-01
6.081478544e-01,2.86053e-01,9.99999e-01,2.86053e-01,9.99999e-01
6.111885937e-01,2.93212e-01,9.99999e-01,2.93212e-01,9.99999e-01
6.142445367e-01,3.00405e-01,9.99999e-01,3.00405e-01,9.99999e-01
6.173157594e-01,3.07626e-01,9.99999e-01,3.07626e-01,9.99999e-01
6.204023382e-01,3.14874e-01,9.99999e-01,3.14874e-01,9.99999e-01
6.235043498e-01,3.22143e-01,9.99999e-01,3.22143e-01,9.99999e-01
6.266218716e-01,3.29433e-01,9.99999e-01,3.29433e-01,9.99999e-01
6.297549810e-01,3.36738e-01,9.99999e-01,3.36738e-01,9.99999e-01
6.329037559e-01,3.44056e-01,9.99999e-01,3.44056e-01,9.99999e-01
6.360682746e-01,3.51384e-01,9.99999e-01,3.51384e-01,9.99999e-01
6.392486160e-01,3.58718e-01,9.99999e-01,3.58718e-01,9.99999e-01
6.424448591e-01,3.66057e-01,9.99999e-01,3.66057e-01,9.99999e-01
6.456570834e-01,3.73396e-01,9.99999e-01,3.73396e-01,9.99999e-01
6.488853688e-01,3.80733e-01,9.99999e-01,3.80733e-01,9.99999e-01
6.521297956e-01,3.88064e-01,9.99999e-01,3.88064e-01,9.99999e-01
6.553904446e-01,3.95388e-01,9.99999e-01,3.95388e-01,9.99999e-01
6.586673968e-01,4.02702e-01,9.99999e-01,4.02702e-01,9.99999e-01
6.619607338e-01,4.10002e-01,9.99999e-01,4.10002e-01,9.99999e-01
6.652705375e-01,4.17287e-01,9.99999e-01,4.17287e-01,9.99999e-01
6.685968902e-01,4.24553e-01,9.99999e-01,4.24553e-01,9.99999e-01
6.719398746e-01,4.31799e-01,9.99999e-01,4.31799e-01,9.99999e-01
6.752995740e-01,4.39021e-01,9.99999e-01,4.39021e-01,9.99999e-01
6.786760719e-01,4.46218e-01,9.99999e-01,4.46218e-01,9.99999e-01
6.820694522e-01,4.53387e-01,9.99999e-01,4.53387e-01,9.99999e-01
6.854797995e-01,4.60527e-01,9.99999e-01,4.60527e-01,9.99999e-01
6.889071985e-01,4.67635e-01,9.99999e-01,4.67635e-01,9.99999e-01
6.923517345e-01,4.74708e-01,9.99999e-01,4.74708e-01,9.99999e-01
6.958134932e-01,4.81746e-01,9.99999e-01,4.81746e-01,9.99999e-01
6.992925606e-01,4.88746e-01,9.99999e-01,4.88746e-01,9.99999e-01
7.027890234e-01,4.95707e-01,9.99999e-01,4.95707e-01,9.99999e-01
7.063029686e-01,5.02626e-01,9.99999e-01,5.02626e-01,9.99999e-01
7.098344834e-01,5.09502e-01,9.99999e-01,5.09502e-01,9.99999e-01
7.133836558e-01,5.16334e-01,9.99999e-01,5.16334e-01,9.99999e-01
7.169505741e-01,5.23119e-01,9.99999e-01,5.23119e-01,9.99999e-01
7.205353270e-01,5.29857e-01,9.99999e-01,5.29857e-01,9.99999e-01
7.241380036e-01,5.36547e-01,9.99999e-01,5.36547e-01,9.99999e-01
7.277586936e-01,5.43186e-01,9.99999e-01,5.43186e-01,9.99999e-01
7.313974871e-01,5.49774e-01,9.99999e-01,5.49774e-01,9.99999e-01
7.350544745e-01,5.56309e-01,9.99999e-01,5.56309e-01,9.99999e-01
7.387297469e-01,5.62790e-01,9.99999e-01,5.62790e-01,9.99999e-01
7.424233956e-01,5.69217e-01,9.99999e-01,5.69217e-01,9.99999e-01
7.461355126e-01,5.75588e-01,9.99999e-01,5.75588e-01,9.99999e-01
7.498661902e-01,5.81902e-01,9.99999e-01,5.81902e-01,9.99999e-01
7.536155211e-01,5.88159e-01,9.99999e-01,5.88159e-01,9.99999e-01
7.573835987e-01,5.94358e-01,9.99999e-01,5.94358e-01,9.99999e-01
7.611705167e-01,6.00497e-01,9.99999e-01,6.00497e-01,9.99999e-01
7.649763693e-01,6.06577e-01,9.99999e-01,6.06577e-01,9.99999e-01
7.688012511e-01,6.12596e-01,9.99999e-01,6.12596e-01,9.99999e-01
7.726452574e-01,6.18555e-01,9.99999e-01,6.18555e-01,9.99999e-01
7.765084837e-01,6.24452e-01,9.99999e-01,6.24452e-01,9.99999e-01
7.803910261e-01,6.15352e-01,9.76303e-01,6.30287e-01,9.99999e-01
7.842929812e-01,5.76666e-01,9.06621e-01,6.36060e-01,9.99999e-01
7.882144461e-01,5.77178e-01,8.99353e-01,6.41770e-01,9.99999e-01
7.921555184e-01,6.08957e-01,9.40593e-01,6.47417e-01,9.99999e-01
7.961162960e-01,6.27055e-01,9.60266e-01,6.53001e-01,9.99999e-01
8.000968774e-01,6.44178e-01,9.78219e-01,6.58521e-01,9.99999e-01
8.040973618e-01,6.56484e-01,9.88713e-01,6.63978e-01,9.99999e-01
8.081178486e-01,6.65877e-01,9.94781e-01,6.69370e-01,9.99999e-01
8.121584379e-01,6.73622e-01,9.98404e-01,6.74699e-01,9.99999e-01
8.162192301e-01,6.79723e-01,9.99647e-01,6.79963e-01,9.99999e-01
8.203003262e-01,6.85160e-01,9.99994e-01,6.85163e-01,9.99999e-01
8.244018279e-01,6.90300e-01,9.99999e-01,6.90300e-01,9.99999e-01
8.285238370e-01,6.95372e-01,9.99999e-01,6.95372e-01,9.99999e-01
8.326664562e-01,7.00380e-01,9.99999e-01,7.00380e-01,9.99999e-01
8.368297885e-01,7.05324e-01,9.99999e-01,7.05324e-01,9.99999e-01
8.410139374e-01,7.10204e-01,9.99999e-01,7.10204e-01,9.99999e-01
8.452190071e-01,7.15021e-01,9.99999e-01,7.15021e-01,9.99999e-01
8.494451021e-01,7.19774e-01,9.99999e-01,7.19774e-01,9.99999e-01
8.536923276e-01,7.24465e-01,9.99999e-01,7.24465e-01,9.99999e-01
8.579607893e-01,7.29092e-01,9.99999e-01,7.29092e-01,9.99999e-01
8.622505932e-01,7.33656e-01,9.99999e-01,7.33656e-01,9.99999e-01
8.665618462e-01,6.94969e-01,9.41489e-01,7.38158e-01,9.99999e-01
8.708946554e-01,5.76600e-01,7.76463e-01,7.42598e-01,9.99999e-01
8.752491287e-01,6.10842e-01,8.17752e-01,7.46976e-01,9.99999e-01
8.796253743e-01,6.73303e-01,8.96191e-01,7.51293e-01,9.99999e-01
8.840235012e-01,7.13947e-01,9.44938e-01,7.55548e-01,9.99999e-01
8.884436187e-01,7.43071e-01,9.78055e-01,7.59743e-01,9.99999e-01
8.928858368e-01,7.57035e-01,9.91040e-01,7.63878e-01,9.99999e-01
8.973502660e-01,7.66287e-01,9.97830e-01,7.67953e-01,9.99999e-01
9.018370173e-01,7.71784e-01,9.99761e-01,7.71968e-01,9.99999e-01
9.063462024e-01,7.70980e-01,9.93627e-01,7.75925e-01,9.99999e-01
9.108779334e-01,7.68791e-01,9.85852e-01,7.79823e-01,9.99999e-01
9.154323231e-01,7.81080e-01,9.96703e-01,7.83663e-01,9.99999e-01
9.200094847e-01,7.48448e-01,9.50475e-01,7.87445e-01,9.99999e-01
9.246095321e-01,7.37747e-01,9.32474e-01,7.91171e-01,9.99999e-01
9.292325798e-01,7.51810e-01,9.45863e-01,7.94840e-01,9.99999e-01
9.338787427e-01,7.57205e-01,9.48339e-01,7.98453e-01,9.99999e-01
9.385481364e-01,7.71380e-01,9.61806e-01,8.02011e-01,9.99999e-01
9.432408771e-01,7.86611e-01,9.76532e-01,8.05514e-01,9.99999e-01
9.479570815e-01,7.99148e-01,9.87867e-01,8.08962e-01,9.99999e-01
9.526968669e-01,8.07602e-01,9.94146e-01,8.12357e-01,9.99999e-01
9.574603512e-01,8.13656e-01,9.97496e-01,8.15698e-01,9.99999e-01
9.622476530e-01,8.18348e-01,9.99219e-01,8.18987e-01,9.99999e-01
9.670588912e-01,8.22032e-01,9.99766e-01,8.22224e-01,9.99999e-01
9.718941857e-01,8.25396e-01,9.99983e-01,8.25409e-01,9.99999e-01
9.767536566e-01,8.28543e-01,9.99999e-01,8.28543e-01,9.99999e-01
9.816374249e-01,8.31627e-01,9.99999e-01,8.31627e-01,9.99999e-01
9.865456120e-01,8.34661e-01,9.99999e-01,8.34661e-01,9.99999e-01
9.914783401e-01,8.37646e-01,9.99999e-01,8.37646e-01,9.99999e-01
9.964357318e-01,8.40583e-01,9.99999e-01,8.40583e-01,9.99999e-01
1.001417910e+00,8.43471e-01,9.99999e-01,8.43471e-01,9.99999e-01
1.006425000e+00,8.46312e-01,9.99999e-01,8.46312e-01,9.99999e-01
1.011457125e+00,8.49106e-01,9.99999e-01,8.49106e-01,9.99999e-01
1.016514411e+00,8.51854e-01,9.99999e-01,8.51854e-01,9.99999e-01
1.021596983e+00,8.54523e-01,9.99960e-01,8.54556e-01,9.99999e-01
1.026704968e+00,8.55075e-01,9.97505e-01,8.57213e-01,9.99999e-01
1.031838492e+00,8.28991e-01,9.64138e-01,8.59826e-01,9.99999e-01
1.036997685e+00,1.92964e-01,2.23754e-01,8.62394e-01,9.99999e-01
1.042182673e+00,2.11703e-01,2.44766e-01,8.64920e-01,9.99999e-01
1.047393587e+00,2.08094e-01,2.39904e-01,8.67403e-01,9.99999e-01
1.052630555e+00,1.80744e-02,2.07789e-02,8.69843e-01,9.99999e-01
1.057893707e+00,3.84996e-02,4.41386e-02,8.72242e-01,9.99999e-01
1.063183176e+00,8.95657e-02,1.02407e-01,8.74601e-01,9.99999e-01
1.068499092e+00,1.86328e-01,2.12480e-01,8.76918e-01,9.99999e-01
1.073841587e+00,3.32235e-01,3.77884e-01,8.79196e-01,9.99999e-01
1.079210795e+00,4.76387e-01,5.40467e-01,8.81435e-01,9.99999e-01
1.084606849e+00,6.31400e-01,7.14548e-01,8.83635e-01,9.99999e-01
1.090029883e+00,7.44041e-01,8.39967e-01,8.85797e-01,9.99999e-01
1.095480033e+00,8.14986e-01,9.17857e-01,8.87921e-01,9.99999e-01
1.100957433e+00,8.54018e-01,9.59561e-01,8.90008e-01,9.99999e-01
1.106462220e+00,8.76995e-01,9.83112e-01,8.92059e-01,9.99999e-01
1.111994531e+00,8.88449e-01,9.93708e-01,8.94074e-01,9.99999e-01
1.117554504e+00,8.94683e-01,9.98469e-01,8.96054e-01,9.99999e-01
1.123142276e+00,8.97909e-01,9.99899e-01,8.97998e-01,9.99999e-01
1.128757988e+00,8.99909e-01,9.99999e-01,8.99909e-01,9.99999e-01
1.134401778e+00,9.01785e-01,9.99999e-01,9.01785e-01,9.99999e-01
1.140073787e+00,9.03629e-01,9.99999e-01,9.03629e-01,9.99999e-01
1.145774156e+00,9.05439e-01,9.99999e-01,9.05439e-01,9.99999e-01
1.151503026e+00,9.07217e-01,9.99999e-01,9.07217e-01,9.99999e-01
1.157260541e+00,9.08964e-01,9.99999e-01,9.08964e-01,9.99999e-01
1.163046844e+00,9.10679e-01,9.99999e-01,9.10679e-01,9.99999e-01
1.168862078e+00,9.12364e-01,9.99999e-01,9.12364e-01,9.99999e-01
1.174706389e+00,9.14018e-01,9.99999e-01,9.14018e-01,9.99999e-01
1.180579921e+00,9.15643e-01,9.99999e-01,9.15643e-01,9.99999e-01
1.186482820e+00,9.17233e-01,9.99993e-01,9.17238e-01,9.99999e-01
1.192415234e+00,9.10555e-01,9.91020e-01,9.18805e-01,9.99999e-01
1.198377311e+00,5.27044e-01,5.72660e-01,9.20343e-01,9.99999e-01
1.204369197e+00,4.75019e-08,5.15287e-08,9.21853e-01,9.99999e-01
1.210391043e+00,3.60977e-27,3.90948e-27,9.23336e-01,9.99999e-01
1.216442998e+00,9.47874e-24,1.02496e-23,9.24792e-01,9.99999e-01
1.222525213e+00,2.04811e-23,2.21125e-23,9.26221e-01,9.99999e-01
1.228637839e+00,4.35678e-18,4.69670e-18,9.27624e-01,9.99999e-01
1.234781029e+00,3.67904e-12,3.96021e-12,9.29002e-01,9.99999e-01
1.240954934e+00,3.15403e-08,3.39013e-08,9.30354e-01,9.99999e-01
1.247159708e+00,6.71713e-05,7.20967e-05,9.31682e-01,9.99999e-01
1.253395507e+00,4.28120e-03,4.58870e-03,9.32985e-01,9.99999e-01
1.259662485e+00,4.33325e-02,4.63814e-02,9.34264e-01,9.99999e-01
1.265960797e+00,1.58268e-01,1.69177e-01,9.35520e-01,9.99999e-01
1.272290601e+00,4.48238e-01,4.78502e-01,9.36752e-01,9.99999e-01
1.278652054e+00,3.86178e-01,4.11720e-01,9.37962e-01,9.99999e-01
1.285045314e+00,1.49147e-02,1.58810e-02,9.39149e-01,9.99999e-01
1.291470541e+00,6.91934e-04,7.35853e-04,9.40314e-01,9.99999e-01
1.297927893e+00,3.33565e-02,3.54306e-02,9.41458e-01,9.99999e-01
1.304417533e+00,2.46664e-01,2.61690e-01,9.42581e-01,9.99999e-01
1.310939621e+00,4.31650e-02,4.57410e-02,9.43682e-01,9.99999e-01
1.317494319e+00,7.68851e-10,8.13801e-10,9.44763e-01,9.99999e-01
1.324081790e+00,8.83657e-06,9.34271e-06,9.45824e-01,9.99999e-01
1.330702199e+00,3.62101e-04,3.82420e-04,9.46865e-01,9.99999e-01
1.337355710e+00,3.11941e-04,3.29090e-04,9.47887e-01,9.99999e-01
1.344042489e+00,9.09976e-05,9.58989e-05,9.48890e-01,9.99999e-01
1.350762701e+00,2.61206e-04,2.74990e-04,9.49873e-01,9.99999e-01
1.357516515e+00,4.56992e-03,4.80620e-03,9.50839e-01,9.99999e-01
1.364304097e+00,3.23406e-02,3.39788e-02,9.51786e-01,9.99999e-01
1.371125618e+00,1.61456e-01,1.69469e-01,9.52715e-01,9.99999e-01
1.377981246e+00,2.26927e-01,2.37962e-01,9.53627e-01,9.99999e-01
1.384871152e+00,4.14251e-01,4.33987e-01,9.54522e-01,9.99999e-01
1.391795508e+00,4.42051e-01,4.62686e-01,9.55400e-01,9.99999e-01
1.398754485e+00,5.94989e-01,6.22203e-01,9.56262e-01,9.99999e-01
1.405748258e+00,6.74813e-01,7.05054e-01,9.57107e-01,9.99999e-01
1.412776999e+00,7.68511e-01,8.02256e-01,9.57936e-01,9.99999e-01
1.419840884e+00,6.98614e-01,7.28672e-01,9.58749e-01,9.99999e-01
1.426940089e+00,8.21001e-02,8.55612e-02,9.59547e-01,9.99999e-01
1.434074789e+00,0.00000e+00,0.00000e+00,9.60330e-01,9.99999e-01
1.441245163e+00,0.00000e+00,0.00000e+00,9.61098e-01,9.99999e-01
1.448451389e+00,0.00000e+00,0.00000e+00,9.61852e-01,9.99999e-01
1.455693646e+00,1.48646e-212,1.54423e-212,9.62591e-01,9.99999e-01
1.462972114e+00,2.12583e-103,2.20678e-103,9.63316e-01,9.99999e-01
1.470286975e+00,7.19306e-44,7.46146e-44,9.64028e-01,9.99999e-01
1.477638409e+00,3.59744e-28,3.72897e-28,9.64726e-01,9.99999e-01
1.485026601e+00,2.85273e-16,2.95494e-16,9.65410e-01,9.99999e-01
1.492451734e+00,7.09522e-14,7.34432e-14,9.66082e-01,9.99999e-01
1.499913993e+00,6.91337e-07,7.15121e-07,9.66740e-01,9.99999e-01
1.507413563e+00,8.89712e-06,9.19706e-06,9.67386e-01,9.99999e-01
1.514950631e+00,3.65990e-07,3.78081e-07,9.68020e-01,9.99999e-01
1.522525384e+00,1.67539e-20,1.72962e-20,9.68642e-01,9.99999e-01
1.530138011e+00,1.22288e-46,1.26167e-46,9.69252e-01,9.99999e-01
1.537788701e+00,6.43752e-35,6.63765e-35,9.69850e-01,9.99999e-01
1.545477645e+00,1.14787e-08,1.18283e-08,9.70436e-01,9.99999e-01
1.553205033e+00,7.19176e-06,7.40646e-06,9.71012e-01,9.99999e-01
1.560971058e+00,1.78266e-06,1.83481e-06,9.71576e-01,9.99999e-01
1.568775913e+00,6.97979e-116,7.17989e-116,9.72130e-01,9.99999e-01
1.576619793e+00,2.65532e-270,2.72992e-270,9.72673e-01,9.99999e-01
1.584502892e+00,7.66595e-148,7.87701e-148,9.73205e-01,9.99999e-01
1.592425406e+00,2.37162e-103,2.43561e-103,9.73727e-01,9.99999e-01
1.600387533e+00,6.79598e-166,6.97567e-166,9.74239e-01,9.99999e-01
1.608389471e+00,3.79977e-278,3.89823e-278,9.74742e-01,9.99999e-01
1.616431418e+00,6.77594e-280,6.94801e-280,9.75234e-01,9.99999e-01
1.624513575e+00,4.94161e-131,5.06459e-131,9.75718e-01,9.99999e-01
1.632636143e+00,1.17589e-97,1.20457e-97,9.76191e-01,9.99999e-01
1.640799324e+00,9.19940e-41,9.41928e-41,9.76656e-01,9.99999e-01
1.649003321e+00,9.88720e-41,1.01188e-40,9.77112e-01,9.99999e-01
1.657248337e+00,8.91676e-32,9.12145e-32,9.77559e-01,9.99999e-01
1.665534579e+00,5.33841e-32,5.45851e-32,9.77997e-01,9.99999e-01
1.673862252e+00,7.37036e-21,7.53286e-21,9.78427e-01,9.99999e-01
1.682231563e+00,6.71343e-15,6.85849e-15,9.78849e-01,9.99999e-01
1.690642721e+00,5.96379e-09,6.09008e-09,9.79262e-01,9.99999e-01
1.699095934e+00,7.54407e-06,7.70064e-06,9.79667e-01,9.99999e-01
1.707591414e+00,1.83543e-03,1.87276e-03,9.80065e-01,9.99999e-01
1.716129371e+00,3.09924e-02,3.16102e-02,9.80455e-01,9.99999e-01
1.724710018e+00,1.52790e-01,1.55775e-01,9.80837e-01,9.99999e-01
1.733333568e+00,2.95130e-01,3.00781e-01,9.81212e-01,9.99999e-01
1.742000236e+00,4.66836e-01,4.75596e-01,9.81580e-01,9.99999e-01
1.750710237e+00,2.33227e-02,2.37516e-02,9.81940e-01,9.99999e-01
1.759463788e+00,6.57447e-20,6.69297e-20,9.82294e-01,9.99999e-01
1.768261107e+00,5.04687e-21,5.13603e-21,9.82641e-01,9.99999e-01
1.777102413e+00,6.21990e-20,6.32758e-20,9.82980e-01,9.99999e-01
1.785987925e+00,3.46279e-19,3.52155e-19,9.83314e-01,9.99999e-01
1.794917864e+00,3.66052e-18,3.72140e-18,9.83641e-01,9.99999e-01
1.803892454e+00,7.38865e-18,7.50908e-18,9.83961e-01,9.99999e-01
1.812911916e+00,5.54542e-17,5.63400e-17,9.84275e-01,9.99999e-01
1.821976476e+00,3.54336e-17,3.59884e-17,9.84584e-01,9.99999e-01
1.831086358e+00,4.29517e-14,4.36108e-14,9.84886e-01,9.99999e-01
1.840241790e+00,6.20752e-12,6.30088e-12,9.85182e-01,9.99999e-01
1.849442999e+00,2.02910e-08,2.05901e-08,9.85473e-01,9.99999e-01
1.858690214e+00,1.12227e-07,1.13848e-07,9.85758e-01,9.99999e-01
1.867983665e+00,1.59310e-08,1.61566e-08,9.86037e-01,9.99999e-01
1.877323583e+00,5.39553e-37,5.47041e-37,9.86311e-01,9.99999e-01
