#,Wave/freq,Total,CO2,Rayleigh,CIA
4.000000000e-01,2.45644e-03,9.99999e-01,2.45644e-03,9.99999e-01
4.020000000e-01,2.76636e-03,9.99999e-01,2.76636e-03,9.99999e-01
4.040100000e-01,3.10769e-03,9.99999e-01,3.10769e-03,9.99999e-01
4.060300500e-01,3.48312e-03,9.99999e-01,3.48312e-03,9.99999e-01
4.080602003e-01,3.89512e-03,9.99999e-01,3.89512e-03,9.99999e-01
4.101005013e-01,4.34624e-03,9.99999e-01,4.34624e-03,9.99999e-01
4.121510038e-01,4.83912e-03,9.99999e-01,4.83912e-03,9.99999e-01
4.142117588e-01,5.37648e-03,9.99999e-01,5.37648e-03,9.99999e-01
4.162828176e-01,5.96110e-03,9.99999e-01,5.96110e-03,9.99999e-01
4.183642317e-01,6.59583e-03,9.99999e-01,6.59583e-03,9.99999e-01
4.204560528e-01,7.28357e-03,9.99999e-01,7.28357e-03,9.99999e-01
4.225583331e-01,8.02728e-03,9.99999e-01,8.02728e-03,9.99999e-01
4.246711247e-01,8.82995e-03,9.99999e-01,8.82995e-03,9.99999e-01
4.267944804e-01,9.69461e-03,9.99999e-01,9.69461e-03,9.99999e-01
4.289284528e-01,1.06243e-02,9.99999e-01,1.06243e-02,9.99999e-01
4.310730950e-01,1.16222e-02,9.99999e-01,1.16222e-02,9.99999e-01
4.332284605e-01,1.26912e-02,9.99999e-01,1.26912e-02,9.99999e-01
4.353946028e-01,1.38345e-02,9.99999e-01,1.38345e-02,9.99999e-01
4.375715758e-01,1.50551e-02,9.99999e-01,1.50551e-02,9.99999e-01
4.397594337e-01,1.63561e-02,9.99999e-01,1.63561e-02,9.99999e-01
4.419582309e-01,1.77404e-02,9.99999e-01,1.77404e-02,9.99999e-01
4.441680220e-01,1.92110e-02,9.99999e-01,1.92110e-02,9.99999e-01
4.463888621e-01,2.07709e-02,9.99999e-01,2.07709e-02,9.99999e-01
4.486208064e-01,2.24227e-02,9.99999e-01,2.24227e-02,9.99999e-01
4.508639105e-01,2.41695e-02,9.99999e-01,2.41695e-02,9.99999e-01
4.531182300e-01,2.60137e-02,9.99999e-01,2.60137e-02,9.99999e-01
4.553838212e-01,2.79579e-02,9.99999e-01,2.79579e-02,9.99999e-01
4.576607403e-01,3.00048e-02,9.99999e-01,3.00048e-02,9.99999e-01
4.599490440e-01,3.21566e-02,9.99999e-01,3.21566e-02,9.99999e-01
4.622487892e-01,3.44156e-02,9.99999e-01,3.44156e-02,9.99999e-01
4.645600332e-01,3.67839e-02,9.99999e-01,3.67839e-02,9.99999e-01
4.668828333e-01,3.92635e-02,9.99999e-01,3.92635e-02,9.99999e-01
4.692172475e-01,4.18564e-02,9.99999e-01,4.18564e-02,9.99999e-01
4.715633337e-01,4.45641e-02,9.99999e-01,4.45641e-02,9.99999e-01
4.739211504e-01,4.73883e-02,9.99999e-01,4.73883e-02,9.99999e-01
4.762907561e-01,5.03303e-02,9.99999e-01,5.03303e-02,9.99999e-01
4.786722099e-01,5.33915e-02,9.99999e-01,5.33915e-02,9.99999e-01
4.810655710e-01,5.65728e-02,9.99999e-01,5.65728e-02,9.99999e-01
4.834708988e-01,5.98751e-02,9.99999e-01,5.98751e-02,9.99999e-01
4.858882533e-01,6.32993e-02,9.99999e-01,6.32993e-02,9.99999e-01
4.883176946e-01,6.68458e-02,9.99999e-01,6.68458e-02,9.99999e-01
4.907592831e-01,7.05151e-02,9.99999e-01,7.05151e-02,9.99999e-01
4.932130795e-01,7.43072e-02,9.99999e-01,7.43072e-02,9.99999e-01
4.956791449e-01,7.82224e-02,9.99999e-01,7.82224e-02,9.99999e-01
4.981575406e-01,8.22603e-02,9.99999e-01,8.22603e-02,9.99999e-01
5.006483283e-01,8.64208e-02,9.99999e-01,8.64208e-02,9.99999e-01
5.031515699e-01,9.07032e-02,9.99999e-01,9.07032e-02,9.99999e-01
5.056673278e-01,9.51069e-02,9.99999e-01,9.51069e-02,9.99999e-01
5.081956644e-01,9.96311e-02,9.99999e-01,9.96311e-02,9.99999e-01
5.107366428e-01,1.04275e-01,9.99999e-01,1.04275e-01,9.99999e-01
5.132903260e-01,1.09037e-01,9.99999e-01,1.09037e-01,9.99999e-01
5.158567776e-01,1.13916e-01,9.99999e-01,1.13916e-01,9.99999e-01
5.184360615e-01,1.18910e-01,9.99999e-01,1.18910e-01,9.99999e-01
5.210282418e-01,1.24018e-01,9.99999e-01,1.24018e-01,9.99999e-01
5.236333830e-01,1.29238e-01,9.99999e-01,1.29238e-01,9.99999e-01
5.262515499e-01,1.34568e-01,9.99999e-01,1.34568e-01,9.99999e-01
5.288828077e-01,1.40006e-01,9.99999e-01,1.40006e-01,9.99999e-01
5.315272217e-01,1.45551e-01,9.99999e-01,1.45551e-01,9.99999e-01
5.341848578e-01,1.51198e-01,9.99999e-01,1.51198e-01,9.99999e-01
5.368557821e-01,1.56947e-01,9.99999e-01,1.56947e-01,9.99999e-01
5.395400610e-01,1.62794e-01,9.99999e-01,1.62794e-01,9.99999e-01
5.422377613e-01,1.68737e-01,9.99999e-01,1.68737e-01,9.99999e-01
5.449489501e-01,1.74773e-01,9.99999e-01,1.74773e-01,9.99999e-01
5.476736949e-01,1.80900e-01,9.99999e-01,1.80900e-01,9.99999e-01
5.504120634e-01,1.87114e-01,9.99999e-01,1.87114e-01,9.99999e-01
5.531641237e-01,1.93412e-01,9.99999e-01,1.93412e-01,9.99999e-01
5.559299443e-01,1.99791e-01,9.99999e-01,1.99791e-01,9.99999e-01
5.587095940e-01,2.06249e-01,9.99999e-01,2.06249e-01,9.99999e-01
5.615031420e-01,2.12782e-01,9.99999e-01,2.12782e-01,9.99999e-01
5.643106577e-01,2.19386e-01,9.99999e-01,2.19386e-01,9.99999e-01
5.671322110e-01,2.26059e-01,9.99999e-01,2.26059e-01,9.99999e-01
5.699678720e-01,2.32797e-01,9.99999e-01,2.32797e-01,9.99999e-01
5.728177114e-01,2.39597e-01,9.99999e-01,2.39597e-01,9.99999e-01
5.756818000e-01,2.46455e-01,9.99999e-01,2.46455e-01,9.99999e-01
5.785602090e-01,2.53369e-01,9.99999e-01,2.53369e-01,9.99999e-01
5.814530100e-01,2.60334e-01,9.99999e-01,2.60334e-01,9.99999e-01
5.843602750e-01,2.67347e-01,9.99999e-01,2.67347e-01,9.99999e-01
5.872820764e-01,2.74405e-01,9.99999e-01,2.74405e-01,9.99999e-01
5.902184868e-01,2.81504e-01,9.99999e-01,2.81504e-01,9.99999e-01
5.931695792e-01,2.88642e-01,9.99999e-01,2.88642e-01,9.99999e-01
5.961354271e-01,2.95814e-01,9.99999e-01,2.95814e-01,9.99999e-01
5.991161043e-01,3.03017e-01,9.99999e-01,3.03017e-01,9.99999e-01
6.021116848e-01,3.10248e-01,9.99999e-01,3.10248e-01,9.99999e-01
6.051222432e-01,3.17504e-01,9.99999e-01,3.17504e-01,9.99999e-01
6.081478544e-01,3.24781e-01,9.99999e-01,3.24781e-01,9.99999e-01
6.111885937e-01,3.32076e-01,9.99999e-01,3.32076e-01,9.99999e-01
6.142445367e-01,3.39387e-01,9.99999e-01,3.39387e-01,9.99999e-01
6.173157594e-01,3.46709e-01,9.99999e-01,3.46709e-01,9.99999e-01
6.204023382e-01,3.54039e-01,9.99999e-01,3.54039e-01,9.99999e-01
6.235043498e-01,3.61376e-01,9.99999e-01,3.61376e-01,9.99999e-01
6.266218716e-01,3.68715e-01,9.99999e-01,3.68715e-01,9.99999e-01
6.297549810e-01,3.76053e-01,9.99999e-01,3.76053e-01,9.99999e-01
6.329037559e-01,3.83389e-01,9.99999e-01,3.83389e-01,9.99999e-01
6.360682746e-01,3.90718e-01,9.99999e-01,3.90718e-01,9.99999e-01
6.392486160e-01,3.98038e-01,9.99999e-01,3.98038e-01,9.99999e-01
6.424448591e-01,4.05347e-01,9.99999e-01,4.05347e-01,9.99999e-01
6.456570834e-01,4.12642e-01,9.99999e-01,4.12642e-01,9.99999e-01
6.488853688e-01,4.19921e-01,9.99999e-01,4.19921e-01,9.99999e-01
6.521297956e-01,4.27180e-01,9.99999e-01,4.27180e-01,9.99999e-01
6.553904446e-01,4.34417e-01,9.99999e-01,4.34417e-01,9.99999e-01
6.586673968e-01,4.41631e-01,9.99999e-01,4.41631e-01,9.99999e-01
6.619607338e-01,4.48818e-01,9.99999e-01,4.48818e-01,9.99999e-01
6.652705375e-01,4.55977e-01,9.99999e-01,4.55977e-01,9.99999e-01
6.685968902e-01,4.63105e-01,9.99999e-01,4.63105e-01,9.99999e-01
6.719398746e-01,4.70200e-01,9.99999e-01,4.70200e-01,9.99999e-01
6.752995740e-01,4.77261e-01,9.99999e-01,4.77261e-01,9.99999e-01
6.786760719e-01,4.84286e-01,9.99999e-01,4.84286e-01,9.99999e-01
6.820694522e-01,4.91271e-01,9.99999e-01,4.91271e-01,9.99999e-01
6.854797995e-01,4.98217e-01,9.99999e-01,4.98217e-01,9.99999e-01
6.889071985e-01,5.05121e-01,9.99999e-01,5.05121e-01,9.99999e-01
6.923517345e-01,5.11981e-01,9.99999e-01,5.11981e-01,9.99999e-01
6.958134932e-01,5.18796e-01,9.99999e-01,5.18796e-01,9.99999e-01
6.992925606e-01,5.25565e-01,9.99999e-01,5.25565e-01,9.99999e-01
7.027890234e-01,5.32286e-01,9.99999e-01,5.32286e-01,9.99999e-01
7.063029686e-01,5.38957e-01,9.99999e-01,5.38957e-01,9.99999e-01
7.098344834e-01,5.45578e-01,9.99999e-01,5.45578e-01,9.99999e-01
7.133836558e-01,5.52147e-01,9.99999e-01,5.52147e-01,9.99999e-01
7.169505741e-01,5.58662e-01,9.99999e-01,5.58662e-01,9.99999e-01
7.205353270e-01,5.65124e-01,9.99999e-01,5.65124e-01,9.99999e-01
7.241380036e-01,5.71531e-01,9.99999e-01,5.71531e-01,9.99999e-01
7.277586936e-01,5.77881e-01,9.99999e-01,5.77881e-01,9.99999e-01
7.313974871e-01,5.84175e-01,9.99999e-01,5.84175e-01,9.99999e-01
7.350544745e-01,5.90411e-01,9.99999e-01,5.90411e-01,9.99999e-01
7.387297469e-01,5.96588e-01,9.99999e-01,5.96588e-01,9.99999e-01
7.424233956e-01,6.02706e-01,9.99999e-01,6.02706e-01,9.99999e-01
7.461355126e-01,6.08764e-01,9.99999e-01,6.08764e-01,9.99999e-01
7.498661902e-01,6.14761e-01,9.99999e-01,6.14761e-01,9.99999e-01
7.536155211e-01,6.20698e-01,9.99999e-01,6.20698e-01,9.99999e-01
7.573835987e-01,6.26572e-01,9.99999e-01,6.26572e-01,9.99999e-01
7.611705167e-01,6.32385e-01,9.99999e-01,6.32385e-01,9.99999e-01
7.649763693e-01,6.38135e-01,9.99999e-01,6.38135e-01,9.99999e-01
7.688012511e-01,6.43822e-01,9.99999e-01,6.43822e-01,9.99999e-01
7.726452574e-01,6.49447e-01,9.99999e-01,6.49447e-01,9.99999e-01
7.765084837e-01,6.55007e-01,9.99999e-01,6.55007e-01,9.99999e-01
7.803910261e-01,6.47462e-01,9.80252e-01,6.60505e-01,9.99999e-01
7.842929812e-01,6.09076e-01,9.14613e-01,6.65938e-01,9.99999e-01
7.882144461e-01,6.10278e-01,9.09089e-01,6.71307e-01,9.99999e-01
7.921555184e-01,6.40500e-01,9.46627e-01,6.76612e-01,9.99999e-01
7.961162960e-01,6.57173e-01,9.63803e-01,6.81854e-01,9.99999e-01
8.000968774e-01,6.73465e-01,9.80253e-01,6.87031e-01,9.99999e-01
8.040973618e-01,6.85009e-01,9.89691e-01,6.92144e-01,9.99999e-01
8.081178486e-01,6.93898e-01,9.95273e-01,6.97193e-01,9.99999e-01
8.121584379e-01,7.01144e-01,9.98527e-01,7.02178e-01,9.99999e-01
8.162192301e-01,7.06869e-01,9.99674e-01,7.07099e-01,9.99999e-01
8.203003262e-01,7.11952e-01,9.99994e-01,7.11956e-01,9.99999e-01
8.244018279e-01,7.16750e-01,9.99999e-01,7.16750e-01,9.99999e-01
8.285238370e-01,7.21480e-01,9.99999e-01,7.21480e-01,9.99999e-01
8.326664562e-01,7.26147e-01,9.99999e-01,7.26147e-01,9.99999e-01
8.368297885e-01,7.30752e-01,9.99999e-01,7.30752e-01,9.99999e-01
8.410139374e-01,7.35294e-01,9.99999e-01,7.35294e-01,9.99999e-01
8.452190071e-01,7.39773e-01,9.99999e-01,7.39773e-01,9.99999e-01
8.494451021e-01,7.44191e-01,9.99999e-01,7.44191e-01,9.99999e-01
8.536923276e-01,7.48546e-01,9.99999e-01,7.48546e-01,9.99999e-01
8.579607893e-01,7.52841e-01,9.99999e-01,7.52841e-01,9.99999e-01
8.622505932e-01,7.57074e-01,9.99999e-01,7.57074e-01,9.99999e-01
8.665618462e-01,7.22687e-01,9.49344e-01,7.61248e-01,9.99999e-01
8.708946554e-01,6.09004e-01,7.95708e-01,7.65360e-01,9.99999e-01
8.752491287e-01,6.40878e-01,8.32943e-01,7.69414e-01,9.99999e-01
8.796253743e-01,7.00061e-01,9.05163e-01,7.73408e-01,9.99999e-01
8.840235012e-01,7.38381e-01,9.49877e-01,7.77343e-01,9.99999e-01
8.884436187e-01,7.65518e-01,9.79900e-01,7.81220e-01,9.99999e-01
8.928858368e-01,7.78630e-01,9.91834e-01,7.85039e-01,9.99999e-01
8.973502660e-01,7.87224e-01,9.98000e-01,7.88801e-01,9.99999e-01
9.018370173e-01,7.92331e-01,9.99778e-01,7.92506e-01,9.99999e-01
9.063462024e-01,7.91761e-01,9.94480e-01,7.96155e-01,9.99999e-01
9.108779334e-01,7.89479e-01,9.87159e-01,7.99748e-01,9.99999e-01
9.154323231e-01,8.00834e-01,9.96947e-01,8.03286e-01,9.99999e-01
9.200094847e-01,7.71467e-01,9.56241e-01,8.06769e-01,9.99999e-01
9.246095321e-01,7.60508e-01,9.38669e-01,8.10198e-01,9.99999e-01
9.292325798e-01,7.74394e-01,9.51843e-01,8.13573e-01,9.99999e-01
9.338787427e-01,7.78614e-01,9.53137e-01,8.16895e-01,9.99999e-01
9.385481364e-01,7.91807e-01,9.65423e-01,8.20165e-01,9.99999e-01
9.432408771e-01,8.05809e-01,9.78655e-01,8.23383e-01,9.99999e-01
9.479570815e-01,8.17477e-01,9.89022e-01,8.26550e-01,9.99999e-01
9.526968669e-01,8.25255e-01,9.94683e-01,8.29666e-01,9.99999e-01
9.574603512e-01,8.30836e-01,9.97722e-01,8.32732e-01,9.99999e-01
9.622476530e-01,8.35154e-01,9.99288e-01,8.35748e-01,9.99999e-01
9.670588912e-01,8.38536e-01,9.99786e-01,8.38715e-01,9.99999e-01
9.718941857e-01,8.41621e-01,9.99984e-01,8.41634e-01,9.99999e-01
9.767536566e-01,8.44505e-01,9.99999e-01,8.44505e-01,9.99999e-01
9.816374249e-01,8.47329e-01,9.99999e-01,8.47329e-01,9.99999e-01
9.865456120e-01,8.50106e-01,9.99999e-01,8.50106e-01,9.99999e-01
9.914783401e-01,8.52837e-01,9.99999e-01,8.52837e-01,9.99999e-01
9.964357318e-01,8.55523e-01,9.99999e-01,8.55523e-01,9.99999e-01
1.001417910e+00,8.58164e-01,9.99999e-01,8.58164e-01,9.99999e-01
1.006425000e+00,8.60761e-01,9.99999e-01,8.60761e-01,9.99999e-01
1.011457125e+00,8.63314e-01,9.99999e-01,8.63314e-01,9.99999e-01
1.016514411e+00,8.65824e-01,9.99999e-01,8.65824e-01,9.99999e-01
1.021596983e+00,8.68268e-01,9.99972e-01,8.68291e-01,9.99999e-01
1.026704968e+00,8.68852e-01,9.97857e-01,8.70717e-01,9.99999e-01
1.031838492e+00,8.48438e-01,9.71751e-01,8.73101e-01,9.99999e-01
1.036997685e+00,2.17843e-01,2.48836e-01,8.75445e-01,9.99999e-01
1.042182673e+00,2.43812e-01,2.77770e-01,8.77748e-01,9.99999e-01
1.047393587e+00,2.39255e-01,2.71877e-01,8.80012e-01,9.99999e-01
1.052630555e+00,2.55370e-02,2.89457e-02,8.82236e-01,9.99999e-01
1.057893707e+00,5.09408e-02,5.75978e-02,8.84422e-01,9.99999e-01
1.063183176e+00,1.11356e-01,1.25603e-01,8.86571e-01,9.99999e-01
1.068499092e+00,2.20389e-01,2.47995e-01,8.88681e-01,9.99999e-01
1.073841587e+00,3.68767e-01,4.13993e-01,8.90755e-01,9.99999e-01
1.079210795e+00,5.11742e-01,5.73192e-01,8.92793e-01,9.99999e-01
1.084606849e+00,6.59809e-01,7.37385e-01,8.94795e-01,9.99999e-01
1.090029883e+00,7.65982e-01,8.54164e-01,8.96762e-01,9.99999e-01
1.095480033e+00,8.31510e-01,9.25242e-01,8.98694e-01,9.99999e-01
1.100957433e+00,8.67550e-01,9.63310e-01,9.00592e-01,9.99999e-01
1.106462220e+00,8.88607e-01,9.84652e-01,9.02457e-01,9.99999e-01
1.111994531e+00,8.99121e-01,9.94285e-01,9.04288e-01,9.99999e-01
1.117554504e+00,9.04816e-01,9.98596e-01,9.06087e-01,9.99999e-01
1.123142276e+00,9.07770e-01,9.99906e-01,9.07854e-01,9.99999e-01
1.128757988e+00,9.09589e-01,9.99999e-01,9.09589e-01,9.99999e-01
1.134401778e+00,9.11293e-01,9.99999e-01,9.11293e-01,9.99999e-01
1.140073787e+00,9.12967e-01,9.99999e-01,9.12967e-01,9.99999e-01
1.145774156e+00,9.14610e-01,9.99999e-01,9.14610e-01,9.99999e-01
1.151503026e+00,9.16224e-01,9.99999e-01,9.16224e-01,9.99999e-01
1.157260541e+00,9.17809e-01,9.99999e-01,9.17809e-01,9.99999e-01
1.163046844e+00,9.19365e-01,9.99999e-01,9.19365e-01,9.99999e-01
1.168862078e+00,9.20893e-01,9.99999e-01,9.20893e-01,9.99999e-01
1.174706389e+00,9.22393e-01,9.99999e-01,9.22393e-01,9.99999e-01
1.180579921e+00,9.23866e-01,9.99999e-01,9.23866e-01,9.99999e-01
1.186482820e+00,9.25310e-01,9.99996e-01,9.25312e-01,9.99999e-01
1.192415234e+00,9.19651e-01,9.92359e-01,9.26732e-01,9.99999e-01
1.198377311e+00,5.37489e-01,5.79112e-01,9.28126e-01,9.99999e-01
1.204369197e+00,1.85151e-07,1.99195e-07,9.29494e-01,9.99999e-01
1.210391043e+00,1.24148e-24,1.33372e-24,9.30838e-01,9.99999e-01
1.216442998e+00,1.46555e-21,1.57221e-21,9.32156e-01,9.99999e-01
1.222525213e+00,2.95721e-21,3.16803e-21,9.33451e-01,9.99999e-01
1.228637839e+00,2.14948e-16,2.29960e-16,9.34721e-01,9.99999e-01
1.234781029e+00,3.78944e-11,4.04868e-11,9.35969e-01,9.99999e-01
1.240954934e+00,1.36803e-07,1.45971e-07,9.37193e-01,9.99999e-01
1.247159708e+00,1.48902e-04,1.58678e-04,9.38394e-01,9.99999e-01
1.253395507e+00,6.97857e-03,7.42738e-03,9.39574e-01,9.99999e-01
1.259662485e+00,4.60018e-02,4.89000e-02,9.40731e-01,9.99999e-01
1.265960797e+00,1.85802e-01,1.97269e-01,9.41867e-01,9.99999e-01
1.272290601e+00,4.57963e-01,4.85653e-01,9.42982e-01,9.99999e-01
1.278652054e+00,4.27230e-01,4.52537e-01,9.44076e-01,9.99999e-01
1.285045314e+00,2.75168e-02,2.91137e-02,9.45150e-01,9.99999e-01
1.291470541e+00,1.37097e-03,1.44891e-03,9.46204e-01,9.99999e-01
1.297927893e+00,2.64648e-02,2.79389e-02,9.47238e-01,9.99999e-01
1.304417533e+00,2.81888e-01,2.97271e-01,9.48252e-01,9.99999e-01
1.310939621e+00,7.85818e-02,8.27832e-02,9.49248e-01,9.99999e-01
1.317494319e+00,6.33929e-09,6.67135e-09,9.50225e-01,9.99999e-01
1.324081790e+00,1.70524e-06,1.79275e-06,9.51184e-01,9.99999e-01
1.330702199e+00,7.78307e-04,8.17441e-04,9.52125e-01,9.99999e-01
1.337355710e+00,6.01130e-04,6.30744e-04,9.53048e-01,9.99999e-01
1.344042489e+00,1.95876e-04,2.05330e-04,9.53953e-01,9.99999e-01
1.350762701e+00,5.63063e-04,5.89692e-04,9.54842e-01,9.99999e-01
1.357516515e+00,7.25620e-03,7.59243e-03,9.55714e-01,9.99999e-01
1.364304097e+00,4.48343e-02,4.68698e-02,9.56570e-01,9.99999e-01
1.371125618e+00,1.90075e-01,1.98531e-01,9.57409e-01,9.99999e-01
1.377981246e+00,2.62602e-01,2.74048e-01,9.58232e-01,9.99999e-01
1.384871152e+00,4.51136e-01,4.70403e-01,9.59040e-01,9.99999e-01
1.391795508e+00,4.78266e-01,4.98280e-01,9.59833e-01,9.99999e-01
1.398754485e+00,6.25920e-01,6.51585e-01,9.60610e-01,9.99999e-01
1.405748258e+00,7.00660e-01,7.28811e-01,9.61373e-01,9.99999e-01
1.412776999e+00,7.88056e-01,8.19081e-01,9.62121e-01,9.99999e-01
1.419840884e+00,7.27952e-01,7.56034e-01,9.62855e-01,9.99999e-01
1.426940089e+00,9.14703e-02,9.49279e-02,9.63576e-01,9.99999e-01
1.434074789e+00,0.00000e+00,0.00000e+00,9.64282e-01,9.99999e-01
1.441245163e+00,0.00000e+00,0.00000e+00,9.64975e-01,9.99999e-01
1.448451389e+00,0.00000e+00,0.00000e+00,9.65655e-01,9.99999e-01
1.455693646e+00,3.78564e-191,3.91757e-191,9.66322e-01,9.99999e-01
1.462972114e+00,4.19822e-93,4.34159e-93,9.66976e-01,9.99999e-01
1.470286975e+00,1.23859e-39,1.28004e-39,9.67617e-01,9.99999e-01
1.477638409e+00,1.57433e-25,1.62596e-25,9.68247e-01,9.99999e-01
1.485026601e+00,7.46052e-15,7.70026e-15,9.68864e-01,9.99999e-01
1.492451734e+00,1.20082e-12,1.23864e-12,9.69470e-01,9.99999e-01
1.499913993e+00,2.05371e-06,2.11709e-06,9.70063e-01,9.99999e-01
1.507413563e+00,2.85787e-05,2.94429e-05,9.70646e-01,9.99999e-01
1.514950631e+00,1.19156e-06,1.22687e-06,9.71217e-01,9.99999e-01
1.522525384e+00,1.21135e-18,1.24653e-18,9.71778e-01,9.99999e-01
1.530138011e+00,4.31555e-42,4.43836e-42,9.72327e-01,9.99999e-01
1.537788701e+00,1.44299e-31,1.48323e-31,9.72867e-01,9.99999e-01
1.545477645e+00,5.15510e-08,5.29599e-08,9.73395e-01,9.99999e-01
1.553205033e+00,2.23587e-05,2.29576e-05,9.73914e-01,9.99999e-01
1.560971058e+00,6.12694e-06,6.28776e-06,9.74422e-01,9.99999e-01
1.568775913e+00,2.57079e-104,2.63692e-104,9.74921e-01,9.99999e-01
1.576619793e+00,5.10813e-243,5.23690e-243,9.75410e-01,9.99999e-01
1.584502892e+00,5.05614e-133,5.18105e-133,9.75890e-01,9.99999e-01
1.592425406e+00,4.98468e-93,5.10536e-93,9.76361e-01,9.99999e-01
1.600387533e+00,3.08305e-149,3.15620e-149,9.76822e-01,9.99999e-01
1.608389471e+00,4.59525e-250,4.70210e-250,9.77275e-01,9.99999e-01
1.616431418e+00,1.23447e-251,1.26260e-251,9.77719e-01,9.99999e-01
1.624513575e+00,6.34089e-118,6.48250e-118,9.78154e-01,9.99999e-01
1.632636143e+00,6.09133e-88,6.22465e-88,9.78581e-01,9.99999e-01
1.640799324e+00,7.65318e-37,7.81734e-37,9.78999e-01,9.99999e-01
1.649003321e+00,8.61151e-37,8.79254e-37,9.79410e-01,9.99999e-01
1.657248337e+00,9.49587e-29,9.69151e-29,9.79812e-01,9.99999e-01
1.665534579e+00,6.22706e-29,6.35280e-29,9.80207e-01,9.99999e-01
1.673862252e+00,5.54051e-19,5.65015e-19,9.80594e-01,9.99999e-01
1.682231563e+00,1.39157e-13,1.41856e-13,9.80974e-01,9.99999e-01
1.690642721e+00,2.85875e-08,2.91309e-08,9.81346e-01,9.99999e-01
1.699095934e+00,2.11495e-05,2.15435e-05,9.81711e-01,9.99999e-01
1.707591414e+00,3.07388e-03,3.13000e-03,9.82069e-01,9.99999e-01
1.716129371e+00,4.20362e-02,4.27883e-02,9.82420e-01,9.99999e-01
1.724710018e+00,1.81384e-01,1.84565e-01,9.82764e-01,9.99999e-01
1.733333568e+00,3.33117e-01,3.38843e-01,9.83102e-01,9.99999e-01
1.742000236e+00,5.05538e-01,5.14054e-01,9.83433e-01,9.99999e-01
1.750710237e+00,2.98624e-02,3.03554e-02,9.83757e-01,9.99999e-01
1.759463788e+00,4.75539e-18,4.83234e-18,9.84076e-01,9.99999e-01
1.768261107e+00,4.12847e-19,4.19394e-19,9.84388e-01,9.99999e-01
1.777102413e+00,4.98601e-18,5.06351e-18,9.84694e-01,9.99999e-01
1.785987925e+00,1.91046e-17,1.93957e-17,9.84994e-01,9.99999e-01
1.794917864e+00,1.90822e-16,1.93671e-16,9.85288e-01,9.99999e-01
1.803892454e+00,2.91842e-16,2.96113e-16,9.85576e-01,9.99999e-01
1.812911916e+00,2.02336e-15,2.05238e-15,9.85859e-01,9.99999e-01
1.821976476e+00,1.19795e-15,1.21479e-15,9.86137e-01,9.99999e-01
1.831086358e+00,7.16175e-13,7.26043e-13,9.86409e-01,9.99999e-01
1.840241790e+00,6.79152e-11,6.88323e-11,9.86675e-01,9.99999e-01
1.849442999e+00,1.06950e-07,1.08365e-07,9.86937e-01,9.99999e-01
1.858690214e+00,5.50602e-07,5.57745e-07,9.87193e-01,9.99999e-01
1.867983665e+00,9.09165e-08,9.20724e-08,9.87444e-01,9.99999e-01
1.877323583e+00,1.99024e-33,2.01504e-33,9.87691e-01,9.99999e-01
