#,Wave/freq,Total,CO2,Rayleigh,CIA
4.000000000e-01,4.01601e-04,9.99999e-01,4.01601e-04,9.99999e-01
4.020000000e-01,4.68757e-04,9.99999e-01,4.68757e-04,9.99999e-01
4.040100000e-01,5.45387e-04,9.99999e-01,5.45387e-04,9.99999e-01
4.060300500e-01,6.32649e-04,9.99999e-01,6.32649e-04,9.99999e-01
4.080602003e-01,7.31725e-04,9.99999e-01,7.31725e-04,9.99999e-01
4.101005013e-01,8.43887e-04,9.99999e-01,8.43887e-04,9.99999e-01
4.121510038e-01,9.70506e-04,9.99999e-01,9.70506e-04,9.99999e-01
4.142117588e-01,1.11304e-03,9.99999e-01,1.11304e-03,9.99999e-01
4.162828176e-01,1.27307e-03,9.99999e-01,1.27307e-03,9.99999e-01
4.183642317e-01,1.45224e-03,9.99999e-01,1.45224e-03,9.99999e-01
4.204560528e-01,1.65232e-03,9.99999e-01,1.65232e-03,9.99999e-01
4.225583331e-01,1.87518e-03,9.99999e-01,1.87518e-03,9.99999e-01
4.246711247e-01,2.12279e-03,9.99999e-01,2.12279e-03,9.99999e-01
4.267944804e-01,2.39722e-03,9.99999e-01,2.39722e-03,9.99999e-01
4.289284528e-01,2.70063e-03,9.99999e-01,2.70063e-03,9.99999e-01
4.310730950e-01,3.03529e-03,9.99999e-01,3.03529e-03,9.99999e-01
4.332284605e-01,3.40356e-03,9.99999e-01,3.40356e-03,9.99999e-01
4.353946028e-01,3.80788e-03,9.99999e-01,3.80788e-03,9.99999e-01
4.375715758e-01,4.25080e-03,9.99999e-01,4.25080e-03,9.99999e-01
4.397594337e-01,4.73494e-03,9.99999e-01,4.73494e-03,9.99999e-01
4.419582309e-01,5.26299e-03,9.99999e-01,5.26299e-03,9.99999e-01
4.441680220e-01,5.83773e-03,9.99999e-01,5.83773e-03,9.99999e-01
4.463888621e-01,6.46199e-03,9.99999e-01,6.46199e-03,9.99999e-01
4.486208064e-01,7.13866e-03,9.99999e-01,7.13866e-03,9.99999e-01
4.508639105e-01,7.87070e-03,9.99999e-01,7.87070e-03,9.99999e-01
4.531182300e-01,8.66108e-03,9.99999e-01,8.66108e-03,9.99999e-01
4.553838212e-01,9.51284e-03,9.99999e-01,9.51284e-03,9.99999e-01
4.576607403e-01,1.04290e-02,9.99999e-01,1.04290e-02,9.99999e-01
4.599490440e-01,1.14127e-02,9.99999e-01,1.14127e-02,9.99999e-01
4.622487892e-01,1.24669e-02,9.99999e-01,1.24669e-02,9.99999e-01
4.645600332e-01,1.35948e-02,9.99999e-01,1.35948e-02,9.99999e-01
4.668828333e-01,1.47994e-02,9.99999e-01,1.47994e-02,9.99999e-01
4.692172475e-01,1.60837e-02,9.99999e-01,1.60837e-02,9.99999e-01
4.715633337e-01,1.74508e-02,9.99999e-01,1.74508e-02,9.99999e-01
4.739211504e-01,1.89035e-02,9.99999e-01,1.89035e-02,9.99999e-01
4.762907561e-01,2.04449e-02,9.99999e-01,2.04449e-02,9.99999e-01
4.786722099e-01,2.20778e-02,9.99999e-01,2.20778e-02,9.99999e-01
4.810655710e-01,2.38049e-02,9.99999e-01,2.38049e-02,9.99999e-01
4.834708988e-01,2.56290e-02,9.99999e-01,2.56290e-02,9.99999e-01
4.858882533e-01,2.75526e-02,9.99999e-01,2.75526e-02,9.99999e-01
4.883176946e-01,2.95783e-02,9.99999e-01,2.95783e-02,9.99999e-01
4.907592831e-01,3.17085e-02,9.99999e-01,3.17085e-02,9.99999e-01
4.932130795e-01,3.39454e-02,9.99999e-01,3.39454e-02,9.99999e-01
4.956791449e-01,3.62912e-02,9.99999e-01,3.62912e-02,9.99999e-01
4.981575406e-01,3.87480e-02,9.99999e-01,3.87480e-02,9.99999e-01
5.006483283e-01,4.13176e-02,9.99999e-01,4.13176e-02,9.99999e-01
5.031515699e-01,4.40017e-02,9.99999e-01,4.40017e-02,9.99999e-01
5.056673278e-01,4.68020e-02,9.99999e-01,4.68020e-02,9.99999e-01
5.081956644e-01,4.97198e-02,9.99999e-01,4.97198e-02,9.99999e-01
5.107366428e-01,5.27566e-02,9.99999e-01,5.27566e-02,9.99999e-01
5.132903260e-01,5.59132e-02,9.99999e-01,5.59132e-02,9.99999e-01
5.158567776e-01,5.91908e-02,9.99999e-01,5.91908e-02,9.99999e-01
5.184360615e-01,6.25901e-02,9.99999e-01,6.25901e-02,9.99999e-01
5.210282418e-01,6.61116e-02,9.99999e-01,6.61116e-02,9.99999e-01
5.236333830e-01,6.97557e-02,9.99999e-01,6.97557e-02,9.99999e-01
5.262515499e-01,7.35228e-02,9.99999e-01,7.35228e-02,9.99999e-01
5.288828077e-01,7.74128e-02,9.99999e-01,7.74128e-02,9.99999e-01
5.315272217e-01,8.14257e-02,9.99999e-01,8.14257e-02,9.99999e-01
5.341848578e-01,8.55612e-02,9.99999e-01,8.55612e-02,9.99999e-01
5.368557821e-01,8.98187e-02,9.99999e-01,8.98187e-02,9.99999e-01
5.395400610e-01,9.41978e-02,9.99999e-01,9.41978e-02,9.99999e-01
5.422377613e-01,9.86974e-02,9.99999e-01,9.86974e-02,9.99999e-01
5.449489501e-01,1.03317e-01,9.99999e-01,1.03317e-01,9.99999e-01
5.476736949e-01,1.08055e-01,9.99999e-01,1.08055e-01,9.99999e-01
5.504120634e-01,1.12910e-01,9.99999e-01,1.12910e-01,9.99999e-01
5.531641237e-01,1.17881e-01,9.99999e-01,1.17881e-01,9.99999e-01
5.559299443e-01,1.22966e-01,9.99999e-01,1.22966e-01,9.99999e-01
5.587095940e-01,1.28163e-01,9.99999e-01,1.28163e-01,9.99999e-01
5.615031420e-01,1.33471e-01,9.99999e-01,1.33471e-01,9.99999e-01
5.643106577e-01,1.38887e-01,9.99999e-01,1.38887e-01,9.99999e-01
5.671322110e-01,1.44410e-01,9.99999e-01,1.44410e-01,9.99999e-01
5.699678720e-01,1.50036e-01,9.99999e-01,1.50036e-01,9.99999e-01
5.728177114e-01,1.55765e-01,9.99999e-01,1.55765e-01,9.99999e-01
5.756818000e-01,1.61592e-01,9.99999e-01,1.61592e-01,9.99999e-01
5.785602090e-01,1.67516e-01,9.99999e-01,1.67516e-01,9.99999e-01
5.814530100e-01,1.73533e-01,9.99999e-01,1.73533e-01,9.99999e-01
5.843602750e-01,1.79641e-01,9.99999e-01,1.79641e-01,9.99999e-01
5.872820764e-01,1.85838e-01,9.99999e-01,1.85838e-01,9.99999e-01
5.902184868e-01,1.92119e-01,9.99999e-01,1.92119e-01,9.99999e-01
5.931695792e-01,1.98482e-01,9.99999e-01,1.98482e-01,9.99999e-01
5.961354271e-01,2.04924e-01,9.99999e-01,2.04924e-01,9.99999e-01
5.991161043e-01,2.11442e-01,9.99999e-01,2.11442e-01,9.99999e-01
6.021116848e-01,2.18032e-01,9.99999e-01,2.18032e-01,9.99999e-01
6.051222432e-01,2.24691e-01,9.99999e-01,2.24691e-01,9.99999e-01
6.081478544e-01,2.31416e-01,9.99999e-01,2.31416e-01,9.99999e-01
6.111885937e-01,2.38204e-01,9.99999e-01,2.38204e-01,9.99999e-01
6.142445367e-01,2.45050e-01,9.99999e-01,2.45050e-01,9.99999e-01
6.173157594e-01,2.51953e-01,9.99999e-01,2.51953e-01,9.99999e-01
6.204023382e-01,2.58907e-01,9.99999e-01,2.58907e-01,9.99999e-01
6.235043498e-01,2.65911e-01,9.99999e-01,2.65911e-01,9.99999e-01
6.266218716e-01,2.72960e-01,9.99999e-01,2.72960e-01,9.99999e-01
6.297549810e-01,2.80051e-01,9.99999e-01,2.80051e-01,9.99999e-01
6.329037559e-01,2.87181e-01,9.99999e-01,2.87181e-01,9.99999e-01
6.360682746e-01,2.94346e-01,9.99999e-01,2.94346e-01,9.99999e-01
6.392486160e-01,3.01543e-01,9.99999e-01,3.01543e-01,9.99999e-01
6.424448591e-01,3.08769e-01,9.99999e-01,3.08769e-01,9.99999e-01
6.456570834e-01,3.16020e-01,9.99999e-01,3.16020e-01,9.99999e-01
6.488853688e-01,3.23293e-01,9.99999e-01,3.23293e-01,9.99999e-01
6.521297956e-01,3.30585e-01,9.99999e-01,3.30585e-01,9.99999e-01
6.553904446e-01,3.37893e-01,9.99999e-01,3.37893e-01,9.99999e-01
6.586673968e-01,3.45213e-01,9.99999e-01,3.45213e-01,9.99999e-01
6.619607338e-01,3.52542e-01,9.99999e-01,3.52542e-01,9.99999e-01
6.652705375e-01,3.59877e-01,9.99999e-01,3.59877e-01,9.99999e-01
6.685968902e-01,3.67216e-01,9.99999e-01,3.67216e-01,9.99999e-01
6.719398746e-01,3.74555e-01,9.99999e-01,3.74555e-01,9.99999e-01
6.752995740e-01,3.81891e-01,9.99999e-01,3.81891e-01,9.99999e-01
6.786760719e-01,3.89222e-01,9.99999e-01,3.89222e-01,9.99999e-01
6.820694522e-01,3.96544e-01,9.99999e-01,3.96544e-01,9.99999e-01
6.854797995e-01,4.03856e-01,9.99999e-01,4.03856e-01,9.99999e-01
6.889071985e-01,4.11154e-01,9.99999e-01,4.11154e-01,9.99999e-01
6.923517345e-01,4.18436e-01,9.99999e-01,4.18436e-01,9.99999e-01
6.958134932e-01,4.25699e-01,9.99999e-01,4.25699e-01,9.99999e-01
6.992925606e-01,4.32941e-01,9.99999e-01,4.32941e-01,9.99999e-01
7.027890234e-01,4.40159e-01,9.99999e-01,4.40159e-01,9.99999e-01
7.063029686e-01,4.47352e-01,9.99999e-01,4.47352e-01,9.99999e-01
7.098344834e-01,4.54517e-01,9.99999e-01,4.54517e-01,9.99999e-01
7.133836558e-01,4.61652e-01,9.99999e-01,4.61652e-01,9.99999e-01
7.169505741e-01,4.68754e-01,9.99999e-01,4.68754e-01,9.99999e-01
7.205353270e-01,4.75822e-01,9.99999e-01,4.75822e-01,9.99999e-01
7.241380036e-01,4.82854e-01,9.99999e-01,4.82854e-01,9.99999e-01
7.277586936e-01,4.89848e-01,9.99999e-01,4.89848e-01,9.99999e-01
7.313974871e-01,4.96802e-01,9.99999e-01,4.96802e-01,9.99999e-01
7.350544745e-01,5.03715e-01,9.99999e-01,5.03715e-01,9.99999e-01
7.387297469e-01,5.10584e-01,9.99999e-01,5.10584e-01,9.99999e-01
7.424233956e-01,5.17408e-01,9.99999e-01,5.17408e-01,9.99999e-01
7.461355126e-01,5.24187e-01,9.99999e-01,5.24187e-01,9.99999e-01
7.498661902e-01,5.30917e-01,9.99999e-01,5.30917e-01,9.99999e-01
7.536155211e-01,5.37599e-01,9.99999e-01,5.37599e-01,9.99999e-01
7.573835987e-01,5.44230e-01,9.99999e-01,5.44230e-01,9.99999e-01
7.611705167e-01,5.50809e-01,9.99999e-01,5.50809e-01,9.99999e-01
7.649763693e-01,5.57336e-01,9.99999e-01,5.57336e-01,9.99999e-01
7.688012511e-01,5.63809e-01,9.99999e-01,5.63809e-01,9.99999e-01
7.726452574e-01,5.70227e-01,9.99999e-01,5.70227e-01,9.99999e-01
7.765084837e-01,5.76589e-01,9.99999e-01,5.76589e-01,9.99999e-01
7.803910261e-01,5.67963e-01,9.74383e-01,5.82894e-01,9.99999e-01
7.842929812e-01,5.25014e-01,8.91149e-01,5.89142e-01,9.99999e-01
7.882144461e-01,5.26302e-01,8.84048e-01,5.95331e-01,9.99999e-01
7.921555184e-01,5.60057e-01,9.31159e-01,6.01461e-01,9.99999e-01
7.961162960e-01,5.79147e-01,9.53278e-01,6.07532e-01,9.99999e-01
8.000968774e-01,5.97852e-01,9.74427e-01,6.13542e-01,9.99999e-01
8.040973618e-01,6.11221e-01,9.86650e-01,6.19490e-01,9.99999e-01
8.081178486e-01,6.21541e-01,9.93863e-01,6.25378e-01,9.99999e-01
8.121584379e-01,6.30000e-01,9.98093e-01,6.31203e-01,9.99999e-01
8.162192301e-01,6.36698e-01,9.99578e-01,6.36966e-01,9.99999e-01
8.203003262e-01,6.42662e-01,9.99992e-01,6.42666e-01,9.99999e-01
8.244018279e-01,6.48303e-01,9.99999e-01,6.48303e-01,9.99999e-01
8.285238370e-01,6.53877e-01,9.99999e-01,6.53877e-01,9.99999e-01
8.326664562e-01,6.59387e-01,9.99999e-01,6.59387e-01,9.99999e-01
8.368297885e-01,6.64833e-01,9.99999e-01,6.64833e-01,9.99999e-01
8.410139374e-01,6.70216e-01,9.99999e-01,6.70216e-01,9.99999e-01
8.452190071e-01,6.75534e-01,9.99999e-01,6.75534e-01,9.99999e-01
8.494451021e-01,6.80789e-01,9.99999e-01,6.80789e-01,9.99999e-01
8.536923276e-01,6.85979e-01,9.99999e-01,6.85979e-01,9.99999e-01
8.579607893e-01,6.91105e-01,9.99999e-01,6.91105e-01,9.99999e-01
8.622505932e-01,6.96167e-01,9.99999e-01,6.96167e-01,9.99999e-01
8.665618462e-01,6.58062e-01,9.38526e-01,7.01165e-01,9.99999e-01
8.708946554e-01,5.26225e-01,7.45257e-01,7.06099e-01,9.99999e-01
8.752491287e-01,5.61542e-01,7.89825e-01,7.10969e-01,9.99999e-01
8.796253743e-01,6.29118e-01,8.78931e-01,7.15776e-01,9.99999e-01
8.840235012e-01,6.74005e-01,9.35443e-01,7.20519e-01,9.99999e-01
8.884436187e-01,7.06361e-01,9.74023e-01,7.25199e-01,9.99999e-01
8.928858368e-01,7.22091e-01,9.89413e-01,7.29817e-01,9.99999e-01
8.973502660e-01,7.32471e-01,9.97411e-01,7.34371e-01,9.99999e-01
9.018370173e-01,7.38652e-01,9.99713e-01,7.38863e-01,9.99999e-01
9.063462024e-01,7.37929e-01,9.92782e-01,7.43293e-01,9.99999e-01
9.108779334e-01,7.35219e-01,9.83357e-01,7.47662e-01,9.99999e-01
9.154323231e-01,7.49001e-01,9.96053e-01,7.51969e-01,9.99999e-01
9.200094847e-01,7.13761e-01,9.43859e-01,7.56215e-01,9.99999e-01
9.246095321e-01,7.00411e-01,9.21108e-01,7.60400e-01,9.99999e-01
9.292325798e-01,7.16957e-01,9.37780e-01,7.64525e-01,9.99999e-01
9.338787427e-01,7.22174e-01,9.39607e-01,7.68591e-01,9.99999e-01
9.385481364e-01,7.38075e-01,9.55316e-01,7.72597e-01,9.99999e-01
9.432408771e-01,7.55101e-01,9.72385e-01,7.76544e-01,9.99999e-01
9.479570815e-01,7.69318e-01,9.85757e-01,7.80433e-01,9.99999e-01
9.526968669e-01,7.78854e-01,9.93101e-01,7.84264e-01,9.99999e-01
9.574603512e-01,7.85709e-01,9.97044e-01,7.88038e-01,9.99999e-01
9.622476530e-01,7.91024e-01,9.99076e-01,7.91754e-01,9.99999e-01
9.670588912e-01,7.95194e-01,9.99722e-01,7.95414e-01,9.99999e-01
9.718941857e-01,7.99003e-01,9.99979e-01,7.99019e-01,9.99999e-01
9.767536566e-01,8.02568e-01,9.99999e-01,8.02568e-01,9.99999e-01
9.816374249e-01,8.06062e-01,9.99999e-01,8.06062e-01,9.99999e-01
9.865456120e-01,8.09502e-01,9.99999e-01,8.09502e-01,9.99999e-01
9.914783401e-01,8.12888e-01,9.99999e-01,8.12888e-01,9.99999e-01
9.964357318e-01,8.16221e-01,9.99999e-01,8.16221e-01,9.99999e-01
1.001417910e+00,8.19502e-01,9.99999e-01,8.19502e-01,9.99999e-01
1.006425000e+00,8.22730e-01,9.99999e-01,8.22730e-01,9.99999e-01
1.011457125e+00,8.25907e-01,9.99999e-01,8.25907e-01,9.99999e-01
1.016514411e+00,8.29034e-01,9.99999e-01,8.29034e-01,9.99999e-01
1.021596983e+00,8.32079e-01,9.99963e-01,8.32110e-01,9.99999e-01
1.026704968e+00,8.32790e-01,9.97190e-01,8.35136e-01,9.99999e-01
1.031838492e+00,8.08652e-01,9.64848e-01,8.38113e-01,9.99999e-01
1.036997685e+00,1.66318e-01,1.97752e-01,8.41042e-01,9.99999e-01
1.042182673e+00,1.63996e-01,1.94325e-01,8.43923e-01,9.99999e-01
1.047393587e+00,1.73903e-01,2.05375e-01,8.46756e-01,9.99999e-01
1.052630555e+00,1.04184e-02,1.22635e-02,8.49543e-01,9.99999e-01
1.057893707e+00,2.31988e-02,2.72196e-02,8.52283e-01,9.99999e-01
1.063183176e+00,6.11207e-02,7.14879e-02,8.54978e-01,9.99999e-01
1.068499092e+00,1.41605e-01,1.65112e-01,8.57629e-01,9.99999e-01
1.073841587e+00,2.75546e-01,3.20315e-01,8.60234e-01,9.99999e-01
1.079210795e+00,4.20031e-01,4.86825e-01,8.62796e-01,9.99999e-01
1.084606849e+00,5.82959e-01,6.73695e-01,8.65315e-01,9.99999e-01
1.090029883e+00,7.07170e-01,8.14908e-01,8.67791e-01,9.99999e-01
1.095480033e+00,7.86728e-01,9.04050e-01,8.70225e-01,9.99999e-01
1.100957433e+00,8.31262e-01,9.52606e-01,8.72618e-01,9.99999e-01
1.106462220e+00,8.57572e-01,9.80116e-01,8.74969e-01,9.99999e-01
1.111994531e+00,8.70776e-01,9.92585e-01,8.77281e-01,9.99999e-01
1.117554504e+00,8.77953e-01,9.98181e-01,8.79552e-01,9.99999e-01
1.123142276e+00,8.81679e-01,9.99879e-01,8.81785e-01,9.99999e-01
1.128757988e+00,8.83979e-01,9.99999e-01,8.83979e-01,9.99999e-01
1.134401778e+00,8.86135e-01,9.99999e-01,8.86135e-01,9.99999e-01
1.140073787e+00,8.88253e-01,9.99999e-01,8.88253e-01,9.99999e-01
1.145774156e+00,8.90335e-01,9.99999e-01,8.90335e-01,9.99999e-01
1.151503026e+00,8.92380e-01,9.99999e-01,8.92380e-01,9.99999e-01
1.157260541e+00,8.94389e-01,9.99999e-01,8.94389e-01,9.99999e-01
1.163046844e+00,8.96363e-01,9.99999e-01,8.96363e-01,9.99999e-01
1.168862078e+00,8.98302e-01,9.99999e-01,8.98302e-01,9.99999e-01
1.174706389e+00,9.00207e-01,9.99999e-01,9.00207e-01,9.99999e-01
1.180579921e+00,9.02079e-01,9.99999e-01,9.02079e-01,9.99999e-01
1.186482820e+00,9.03913e-01,9.99995e-01,9.03917e-01,9.99999e-01
1.192415234e+00,8.96654e-01,9.89987e-01,9.05722e-01,9.99999e-01
1.198377311e+00,5.16962e-01,5.69657e-01,9.07495e-01,9.99999e-01
1.204369197e+00,4.96933e-09,5.46538e-09,9.09237e-01,9.99999e-01
1.210391043e+00,2.21831e-31,2.43516e-31,9.10947e-01,9.99999e-01
1.216442998e+00,2.20056e-27,2.41124e-27,9.12627e-01,9.99999e-01
1.222525213e+00,5.37376e-27,5.87760e-27,9.14277e-01,9.99999e-01
1.228637839e+00,6.99912e-21,7.64181e-21,9.15897e-01,9.99999e-01
1.234781029e+00,7.70909e-14,8.40238e-14,9.17487e-01,9.99999e-01
1.240954934e+00,2.16784e-09,2.35878e-09,9.19049e-01,9.99999e-01
1.247159708e+00,1.83795e-05,1.99651e-05,9.20583e-01,9.99999e-01
1.253395507e+00,1.79271e-03,1.94419e-03,9.22089e-01,9.99999e-01
1.259662485e+00,2.60252e-02,2.81790e-02,9.23568e-01,9.99999e-01
1.265960797e+00,1.16328e-01,1.25758e-01,9.25019e-01,9.99999e-01
1.272290601e+00,3.64748e-01,3.93707e-01,9.26444e-01,9.99999e-01
1.278652054e+00,3.39314e-01,3.65701e-01,9.27843e-01,9.99999e-01
1.285045314e+00,1.45620e-02,1.56713e-02,9.29217e-01,9.99999e-01
1.291470541e+00,2.20036e-04,2.36454e-04,9.30565e-01,9.99999e-01
1.297927893e+00,1.19853e-02,1.28612e-02,9.31889e-01,9.99999e-01
1.304417533e+00,1.94351e-01,2.08265e-01,9.33188e-01,9.99999e-01
1.310939621e+00,5.03854e-02,5.39189e-02,9.34464e-01,9.99999e-01
1.317494319e+00,2.90819e-11,3.10798e-11,9.35716e-01,9.99999e-01
1.324081790e+00,5.43832e-08,5.80431e-08,9.36945e-01,9.99999e-01
1.330702199e+00,1.01476e-04,1.08165e-04,9.38151e-01,9.99999e-01
1.337355710e+00,9.63428e-05,1.02565e-04,9.39335e-01,9.99999e-01
1.344042489e+00,2.89550e-05,3.07869e-05,9.40497e-01,9.99999e-01
1.350762701e+00,6.80153e-05,7.22308e-05,9.41637e-01,9.99999e-01
1.357516515e+00,1.92673e-03,2.04372e-03,9.42756e-01,9.99999e-01
1.364304097e+00,1.81443e-02,1.92236e-02,9.43854e-01,9.99999e-01
1.371125618e+00,1.18674e-01,1.25590e-01,9.44932e-01,9.99999e-01
1.377981246e+00,1.76277e-01,1.86341e-01,9.45990e-01,9.99999e-01
1.384871152e+00,3.56087e-01,3.76004e-01,9.47028e-01,9.99999e-01
1.391795508e+00,3.83968e-01,4.05009e-01,9.48047e-01,9.99999e-01
1.398754485e+00,5.43897e-01,5.73098e-01,9.49046e-01,9.99999e-01
1.405748258e+00,6.30128e-01,6.63273e-01,9.50027e-01,9.99999e-01
1.412776999e+00,7.33868e-01,7.71688e-01,9.50990e-01,9.99999e-01
1.419840884e+00,6.69060e-01,7.02842e-01,9.51934e-01,9.99999e-01
1.426940089e+00,7.36685e-02,7.73129e-02,9.52861e-01,9.99999e-01
1.434074789e+00,0.00000e+00,0.00000e+00,9.53770e-01,9.99999e-01
1.441245163e+00,0.00000e+00,0.00000e+00,9.54662e-01,9.99999e-01
1.448451389e+00,0.00000e+00,0.00000e+00,9.55537e-01,9.99999e-01
1.455693646e+00,4.27055e-248,4.46525e-248,9.56396e-01,9.99999e-01
1.462972114e+00,1.71076e-120,1.78718e-120,9.57239e-01,9.99999e-01
1.470286975e+00,6.64273e-51,6.93347e-51,9.58065e-01,9.99999e-01
1.477638409e+00,1.47327e-32,1.53645e-32,9.58876e-01,9.99999e-01
1.485026601e+00,9.86932e-19,1.02840e-18,9.59672e-01,9.99999e-01
1.492451734e+00,5.87720e-16,6.11919e-16,9.60453e-01,9.99999e-01
1.499913993e+00,8.81741e-08,9.17315e-08,9.61218e-01,9.99999e-01
1.507413563e+00,1.30874e-06,1.36048e-06,9.61970e-01,9.99999e-01
1.514950631e+00,5.32029e-08,5.52638e-08,9.62707e-01,9.99999e-01
1.522525384e+00,1.37672e-23,1.42898e-23,9.63430e-01,9.99999e-01
1.530138011e+00,3.57833e-54,3.71142e-54,9.64139e-01,9.99999e-01
1.537788701e+00,1.81507e-40,1.88122e-40,9.64835e-01,9.99999e-01
1.545477645e+00,9.39566e-10,9.73121e-10,9.65517e-01,9.99999e-01
1.553205033e+00,1.03199e-06,1.06810e-06,9.66187e-01,9.99999e-01
1.560971058e+00,2.88046e-07,2.97924e-07,9.66843e-01,9.99999e-01
1.568775913e+00,4.36254e-135,4.50914e-135,9.67487e-01,9.99999e-01
1.576619793e+00,1.32691e-315,1.37061e-315,9.68119e-01,9.99999e-01
1.584502892e+00,1.90240e-172,1.96378e-172,9.68739e-01,9.99999e-01
1.592425406e+00,1.75558e-120,1.81110e-120,9.69347e-01,9.99999e-01
1.600387533e+00,1.50013e-193,1.54661e-193,9.69943e-01,9.99999e-01
1.608389471e+00,0.00000e+00,0.00000e+00,9.70528e-01,9.99999e-01
1.616431418e+00,0.00000e+00,0.00000e+00,9.71102e-01,9.99999e-01
1.624513575e+00,8.49974e-153,8.74760e-153,9.71664e-01,9.99999e-01
1.632636143e+00,8.69440e-114,8.94286e-114,9.72216e-01,9.99999e-01
1.640799324e+00,2.85064e-47,2.93047e-47,9.72757e-01,9.99999e-01
1.649003321e+00,2.99496e-47,3.07715e-47,9.73288e-01,9.99999e-01
1.657248337e+00,8.12994e-37,8.34859e-37,9.73809e-01,9.99999e-01
1.665534579e+00,4.68978e-37,4.81338e-37,9.74319e-01,9.99999e-01
1.673862252e+00,4.10719e-24,4.21328e-24,9.74820e-01,9.99999e-01
1.682231563e+00,4.04014e-17,4.14241e-17,9.75311e-01,9.99999e-01
1.690642721e+00,3.51049e-10,3.59757e-10,9.75793e-01,9.99999e-01
1.699095934e+00,1.22075e-06,1.25042e-06,9.76265e-01,9.99999e-01
1.707591414e+00,6.78768e-04,6.94940e-04,9.76729e-01,9.99999e-01
1.716129371e+00,1.75584e-02,1.79684e-02,9.77183e-01,9.99999e-01
1.724710018e+00,1.10696e-01,1.13229e-01,9.77629e-01,9.99999e-01
1.733333568e+00,2.40374e-01,2.45764e-01,9.78066e-01,9.99999e-01
1.742000236e+00,4.17016e-01,4.26181e-01,9.78494e-01,9.99999e-01
1.750710237e+00,1.73056e-02,1.76784e-02,9.78914e-01,9.99999e-01
1.759463788e+00,5.58792e-23,5.70588e-23,9.79327e-01,9.99999e-01
1.768261107e+00,3.38469e-24,3.45471e-24,9.79731e-01,9.99999e-01
1.777102413e+00,4.29619e-23,4.38329e-23,9.80127e-01,9.99999e-01
1.785987925e+00,4.04929e-22,4.12975e-22,9.80516e-01,9.99999e-01
1.794917864e+00,5.39714e-21,5.50225e-21,9.80897e-01,9.99999e-01
1.803892454e+00,1.66635e-20,1.69815e-20,9.81271e-01,9.99999e-01
1.812911916e+00,1.47897e-19,1.50664e-19,9.81637e-01,9.99999e-01
1.821976476e+00,9.53555e-20,9.71036e-20,9.81997e-01,9.99999e-01
1.831086358e+00,3.80154e-16,3.86984e-16,9.82349e-01,9.99999e-01
1.840241790e+00,1.04928e-13,1.06776e-13,9.82695e-01,9.99999e-01
1.849442999e+00,1.21816e-09,1.23918e-09,9.83034e-01,9.99999e-01
1.858690214e+00,7.68024e-09,7.81014e-09,9.83366e-01,9.99999e-01
1.867983665e+00,1.24775e-09,1.26843e-09,9.83692e-01,9.99999e-01
1.877323583e+00,6.66835e-43,6.77670e-43,9.84011e-01,9.99999e-01
