#,Wave/freq,Total,CO2,Rayleigh,CIA
4.000000000e-01,8.08910e-18,9.99999e-01,8.08910e-18,9.99999e-01
4.020000000e-01,1.76137e-17,9.99999e-01,1.76137e-17,9.99999e-01
4.040100000e-01,3.77387e-17,9.99999e-01,3.77387e-17,9.99999e-01
4.060300500e-01,7.96500e-17,9.99999e-01,7.96500e-17,9.99999e-01
4.080602003e-01,1.65645e-16,9.99999e-01,1.65645e-16,9.99999e-01
4.101005013e-01,3.39538e-16,9.99999e-01,3.39538e-16,9.99999e-01
4.121510038e-01,6.86185e-16,9.99999e-01,6.86185e-16,9.99999e-01
4.142117588e-01,1.36760e-15,9.99999e-01,1.36760e-15,9.99999e-01
4.162828176e-01,2.68881e-15,9.99999e-01,2.68881e-15,9.99999e-01
4.183642317e-01,5.21630e-15,9.99999e-01,5.21630e-15,9.99999e-01
4.204560528e-01,9.98804e-15,9.99999e-01,9.98804e-15,9.99999e-01
4.225583331e-01,1.88810e-14,9.99999e-01,1.88810e-14,9.99999e-01
4.246711247e-01,3.52458e-14,9.99999e-01,3.52458e-14,9.99999e-01
4.267944804e-01,6.49884e-14,9.99999e-01,6.49884e-14,9.99999e-01
4.289284528e-01,1.18390e-13,9.99999e-01,1.18390e-13,9.99999e-01
4.310730950e-01,2.13132e-13,9.99999e-01,2.13132e-13,9.99999e-01
4.332284605e-01,3.79262e-13,9.99999e-01,3.79262e-13,9.99999e-01
4.353946028e-01,6.67246e-13,9.99999e-01,6.67246e-13,9.99999e-01
4.375715758e-01,1.16088e-12,9.99999e-01,1.16088e-12,9.99999e-01
4.397594337e-01,1.99773e-12,9.99999e-01,1.99773e-12,9.99999e-01
4.419582309e-01,3.40118e-12,9.99999e-01,3.40118e-12,9.99999e-01
4.441680220e-01,5.73006e-12,9.99999e-01,5.73006e-12,9.99999e-01
4.463888621e-01,9.55461e-12,9.99999e-01,9.55461e-12,9.99999e-01
4.486208064e-01,1.57718e-11,9.99999e-01,1.57718e-11,9.99999e-01
4.508639105e-01,2.57780e-11,9.99999e-01,2.57780e-11,9.99999e-01
4.531182300e-01,4.17257e-11,9.99999e-01,4.17257e-11,9.99999e-01
4.553838212e-01,6.69001e-11,9.99999e-01,6.69001e-11,9.99999e-01
4.576607403e-01,1.06267e-10,9.99999e-01,1.06267e-10,9.99999e-01
4.599490440e-01,1.67264e-10,9.99999e-01,1.67264e-10,9.99999e-01
4.622487892e-01,2.60925e-10,9.99999e-01,2.60925e-10,9.99999e-01
4.645600332e-01,4.03471e-10,9.99999e-01,4.03471e-10,9.99999e-01
4.668828333e-01,6.18545e-10,9.99999e-01,6.18545e-10,9.99999e-01
4.692172475e-01,9.40295e-10,9.99999e-01,9.40295e-10,9.99999e-01
4.715633337e-01,1.41764e-09,9.99999e-01,1.41764e-09,9.99999e-01
4.739211504e-01,2.12004e-09,9.99999e-01,2.12004e-09,9.99999e-01
4.762907561e-01,3.14535e-09,9.99999e-01,3.14535e-09,9.99999e-01
4.786722099e-01,4.63033e-09,9.99999e-01,4.63033e-09,9.99999e-01
4.810655710e-01,6.76451e-09,9.99999e-01,6.76451e-09,9.99999e-01
4.834708988e-01,9.80865e-09,9.99999e-01,9.80865e-09,9.99999e-01
4.858882533e-01,1.41187e-08,9.99999e-01,1.41187e-08,9.99999e-01
4.883176946e-01,2.01770e-08,9.99999e-01,2.01770e-08,9.99999e-01
4.907592831e-01,2.86322e-08,9.99999e-01,2.86322e-08,9.99999e-01
4.932130795e-01,4.03506e-08,9.99999e-01,4.03506e-08,9.99999e-01
4.956791449e-01,5.64810e-08,9.99999e-01,5.64810e-08,9.99999e-01
4.981575406e-01,7.85363e-08,9.99999e-01,7.85363e-08,9.99999e-01
5.006483283e-01,1.08495e-07,9.99999e-01,1.08495e-07,9.99999e-01
5.031515699e-01,1.48929e-07,9.99999e-01,1.48929e-07,9.99999e-01
5.056673278e-01,2.03156e-07,9.99999e-01,2.03156e-07,9.99999e-01
5.081956644e-01,2.75433e-07,9.99999e-01,2.75433e-07,9.99999e-01
5.107366428e-01,3.71186e-07,9.99999e-01,3.71186e-07,9.99999e-01
5.132903260e-01,4.97288e-07,9.99999e-01,4.97288e-07,9.99999e-01
5.158567776e-01,6.62393e-07,9.99999e-01,6.62393e-07,9.99999e-01
5.184360615e-01,8.77333e-07,9.99999e-01,8.77333e-07,9.99999e-01
5.210282418e-01,1.15558e-06,9.99999e-01,1.15558e-06,9.99999e-01
5.236333830e-01,1.51383e-06,9.99999e-01,1.51383e-06,9.99999e-01
5.262515499e-01,1.97258e-06,9.99999e-01,1.97258e-06,9.99999e-01
5.288828077e-01,2.55694e-06,9.99999e-01,2.55694e-06,9.99999e-01
5.315272217e-01,3.29748e-06,9.99999e-01,3.29748e-06,9.99999e-01
5.341848578e-01,4.23119e-06,9.99999e-01,4.23119e-06,9.99999e-01
5.368557821e-01,5.40260e-06,9.99999e-01,5.40260e-06,9.99999e-01
5.395400610e-01,6.86510e-06,9.99999e-01,6.86510e-06,9.99999e-01
5.422377613e-01,8.68232e-06,9.99999e-01,8.68232e-06,9.99999e-01
5.449489501e-01,1.09298e-05,9.99999e-01,1.09298e-05,9.99999e-01
5.476736949e-01,1.36965e-05,9.99999e-01,1.36965e-05,9.99999e-01
5.504120634e-01,1.70873e-05,9.99999e-01,1.70873e-05,9.99999e-01
5.531641237e-01,2.12247e-05,9.99999e-01,2.12247e-05,9.99999e-01
5.559299443e-01,2.62511e-05,9.99999e-01,2.62511e-05,9.99999e-01
5.587095940e-01,3.23318e-05,9.99999e-01,3.23318e-05,9.99999e-01
5.615031420e-01,3.96576e-05,9.99999e-01,3.96576e-05,9.99999e-01
5.643106577e-01,4.84474e-05,9.99999e-01,4.84474e-05,9.99999e-01
5.671322110e-01,5.89518e-05,9.99999e-01,5.89518e-05,9.99999e-01
5.699678720e-01,7.14562e-05,9.99999e-01,7.14562e-05,9.99999e-01
5.728177114e-01,8.62845e-05,9.99999e-01,8.62845e-05,9.99999e-01
5.756818000e-01,1.03803e-04,9.99999e-01,1.03803e-04,9.99999e-01
5.785602090e-01,1.24422e-04,9.99999e-01,1.24422e-04,9.99999e-01
5.814530100e-01,1.48605e-04,9.99999e-01,1.48605e-04,9.99999e-01
5.843602750e-01,1.76866e-04,9.99999e-01,1.76866e-04,9.99999e-01
5.872820764e-01,2.09780e-04,9.99999e-01,2.09780e-04,9.99999e-01
5.902184868e-01,2.47981e-04,9.99999e-01,2.47981e-04,9.99999e-01
5.931695792e-01,2.92171e-04,9.99999e-01,2.92171e-04,9.99999e-01
5.961354271e-01,3.43123e-04,9.99999e-01,3.43123e-04,9.99999e-01
5.991161043e-01,4.01682e-04,9.99999e-01,4.01682e-04,9.99999e-01
6.021116848e-01,4.68775e-04,9.99999e-01,4.68775e-04,9.99999e-01
6.051222432e-01,5.45408e-04,9.99999e-01,5.45408e-04,9.99999e-01
6.081478544e-01,6.32673e-04,9.99999e-01,6.32673e-04,9.99999e-01
6.111885937e-01,7.31752e-04,9.99999e-01,7.31752e-04,9.99999e-01
6.142445367e-01,8.43918e-04,9.99999e-01,8.43918e-04,9.99999e-01
6.173157594e-01,9.70540e-04,9.99999e-01,9.70540e-04,9.99999e-01
6.204023382e-01,1.11308e-03,9.99999e-01,1.11308e-03,9.99999e-01
6.235043498e-01,1.27311e-03,9.99999e-01,1.27311e-03,9.99999e-01
6.266218716e-01,1.45229e-03,9.99999e-01,1.45229e-03,9.99999e-01
6.297549810e-01,1.65237e-03,9.99999e-01,1.65237e-03,9.99999e-01
6.329037559e-01,1.87524e-03,9.99999e-01,1.87524e-03,9.99999e-01
6.360682746e-01,2.12286e-03,9.99999e-01,2.12286e-03,9.99999e-01
6.392486160e-01,2.39729e-03,9.99999e-01,2.39729e-03,9.99999e-01
6.424448591e-01,2.70071e-03,9.99999e-01,2.70071e-03,9.99999e-01
6.456570834e-01,3.03538e-03,9.99999e-01,3.03538e-03,9.99999e-01
6.488853688e-01,3.40366e-03,9.99999e-01,3.40366e-03,9.99999e-01
6.521297956e-01,3.80799e-03,9.99999e-01,3.80799e-03,9.99999e-01
6.553904446e-01,4.25092e-03,9.99999e-01,4.25092e-03,9.99999e-01
6.586673968e-01,4.73507e-03,9.99999e-01,4.73507e-03,9.99999e-01
6.619607338e-01,5.26313e-03,9.99999e-01,5.26313e-03,9.99999e-01
6.652705375e-01,5.83788e-03,9.99999e-01,5.83788e-03,9.99999e-01
6.685968902e-01,6.46216e-03,9.99999e-01,6.46216e-03,9.99999e-01
6.719398746e-01,7.13884e-03,9.99999e-01,7.13884e-03,9.99999e-01
6.752995740e-01,7.87089e-03,9.99999e-01,7.87089e-03,9.99999e-01
6.786760719e-01,8.66129e-03,9.99999e-01,8.66129e-03,9.99999e-01
6.820694522e-01,9.51307e-03,9.99999e-01,9.51307e-03,9.99999e-01
6.854797995e-01,1.04293e-02,9.99999e-01,1.04293e-02,9.99999e-01
6.889071985e-01,1.14130e-02,9.99999e-01,1.14130e-02,9.99999e-01
6.923517345e-01,1.24672e-02,9.99999e-01,1.24672e-02,9.99999e-01
6.958134932e-01,1.35951e-02,9.99999e-01,1.35951e-02,9.99999e-01
6.992925606e-01,1.47997e-02,9.99999e-01,1.47997e-02,9.99999e-01
7.027890234e-01,1.60840e-02,9.99999e-01,1.60840e-02,9.99999e-01
7.063029686e-01,1.74511e-02,9.99999e-01,1.74511e-02,9.99999e-01
7.098344834e-01,1.89039e-02,9.99999e-01,1.89039e-02,9.99999e-01
7.133836558e-01,2.04453e-02,9.99999e-01,2.04453e-02,9.99999e-01
7.169505741e-01,2.20782e-02,9.99999e-01,2.20782e-02,9.99999e-01
7.205353270e-01,2.38054e-02,9.99999e-01,2.38054e-02,9.99999e-01
7.241380036e-01,2.56295e-02,9.99999e-01,2.56295e-02,9.99999e-01
7.277586936e-01,2.75531e-02,9.99999e-01,2.75531e-02,9.99999e-01
7.313974871e-01,2.95788e-02,9.99999e-01,2.95788e-02,9.99999e-01
7.350544745e-01,3.17090e-02,9.99999e-01,3.17090e-02,9.99999e-01
7.387297469e-01,3.39460e-02,9.99999e-01,3.39460e-02,9.99999e-01
7.424233956e-01,3.62918e-02,9.99999e-01,3.62918e-02,9.99999e-01
7.461355126e-01,3.87486e-02,9.99999e-01,3.87486e-02,9.99999e-01
7.498661902e-01,4.13182e-02,9.99999e-01,4.13182e-02,9.99999e-01
7.536155211e-01,4.40024e-02,9.99999e-01,4.40024e-02,9.99999e-01
7.573835987e-01,4.68027e-02,9.99999e-01,4.68027e-02,9.99999e-01
7.611705167e-01,4.97206e-02,9.99999e-01,4.97206e-02,9.99999e-01
7.649763693e-01,5.27574e-02,9.99999e-01,5.27574e-02,9.99999e-01
7.688012511e-01,5.59141e-02,9.99999e-01,5.59141e-02,9.99999e-01
7.726452574e-01,5.91917e-02,9.99999e-01,5.91917e-02,9.99999e-01
7.765084837e-01,6.25910e-02,9.99999e-01,6.25910e-02,9.99999e-01
7.803910261e-01,5.92560e-02,8.96290e-01,6.61125e-02,9.99999e-01
7.842929812e-01,4.09791e-02,5.87457e-01,6.97567e-02,9.99999e-01
7.882144461e-01,4.18829e-02,5.69650e-01,7.35238e-02,9.99999e-01
7.921555184e-01,5.45006e-02,7.04015e-01,7.74138e-02,9.99999e-01
7.961162960e-01,6.42570e-02,7.89138e-01,8.14268e-02,9.99999e-01
8.000968774e-01,7.52190e-02,8.79113e-01,8.55623e-02,9.99999e-01
8.040973618e-01,8.40294e-02,9.35531e-01,8.98199e-02,9.99999e-01
8.081178486e-01,9.13460e-02,9.69713e-01,9.41989e-02,9.99999e-01
8.121584379e-01,9.77751e-02,9.90643e-01,9.86986e-02,9.99999e-01
8.162192301e-01,1.03104e-01,9.97924e-01,1.03318e-01,9.99999e-01
8.203003262e-01,1.08053e-01,9.99971e-01,1.08056e-01,9.99999e-01
8.244018279e-01,1.12911e-01,9.99999e-01,1.12911e-01,9.99999e-01
8.285238370e-01,1.17882e-01,9.99999e-01,1.17882e-01,9.99999e-01
8.326664562e-01,1.22967e-01,9.99999e-01,1.22967e-01,9.99999e-01
8.368297885e-01,1.28164e-01,9.99999e-01,1.28164e-01,9.99999e-01
8.410139374e-01,1.33472e-01,9.99999e-01,1.33472e-01,9.99999e-01
8.452190071e-01,1.38889e-01,9.99999e-01,1.38889e-01,9.99999e-01
8.494451021e-01,1.44411e-01,9.99999e-01,1.44411e-01,9.99999e-01
8.536923276e-01,1.50038e-01,9.99999e-01,1.50038e-01,9.99999e-01
8.579607893e-01,1.55766e-01,9.99999e-01,1.55766e-01,9.99999e-01
8.622505932e-01,1.61593e-01,9.99999e-01,1.61593e-01,9.99999e-01
8.665618462e-01,1.42905e-01,8.53078e-01,1.67517e-01,9.99999e-01
8.708946554e-01,4.70578e-02,2.71172e-01,1.73535e-01,9.99999e-01
8.752491287e-01,6.01442e-02,3.34799e-01,1.79643e-01,9.99999e-01
8.796253743e-01,1.00238e-01,5.39379e-01,1.85839e-01,9.99999e-01
8.840235012e-01,1.38441e-01,7.20594e-01,1.92120e-01,9.99999e-01
8.884436187e-01,1.74327e-01,8.78292e-01,1.98484e-01,9.99999e-01
8.928858368e-01,1.94374e-01,9.48508e-01,2.04926e-01,9.99999e-01
8.973502660e-01,2.08759e-01,9.87306e-01,2.11443e-01,9.99999e-01
9.018370173e-01,2.17728e-01,9.98597e-01,2.18033e-01,9.99999e-01
9.063462024e-01,2.16657e-01,9.64237e-01,2.24693e-01,9.99999e-01
9.108779334e-01,2.12901e-01,9.19985e-01,2.31418e-01,9.99999e-01
9.154323231e-01,2.33632e-01,9.80798e-01,2.38205e-01,9.99999e-01
9.200094847e-01,1.92004e-01,7.83524e-01,2.45052e-01,9.99999e-01
9.246095321e-01,1.67963e-01,6.66640e-01,2.51954e-01,9.99999e-01
9.292325798e-01,1.89221e-01,7.30840e-01,2.58909e-01,9.99999e-01
9.338787427e-01,1.96006e-01,7.37106e-01,2.65913e-01,9.99999e-01
9.385481364e-01,2.17633e-01,7.97302e-01,2.72962e-01,9.99999e-01
9.432408771e-01,2.43631e-01,8.69944e-01,2.80053e-01,9.99999e-01
9.479570815e-01,2.67306e-01,9.30786e-01,2.87183e-01,9.99999e-01
9.526968669e-01,2.84376e-01,9.66119e-01,2.94348e-01,9.99999e-01
9.574603512e-01,2.97132e-01,9.85363e-01,3.01545e-01,9.99999e-01
9.622476530e-01,3.07356e-01,9.95415e-01,3.08771e-01,9.99999e-01
9.670588912e-01,3.15588e-01,9.98627e-01,3.16022e-01,9.99999e-01
9.718941857e-01,3.23265e-01,9.99904e-01,3.23295e-01,9.99999e-01
9.767536566e-01,3.30587e-01,9.99999e-01,3.30587e-01,9.99999e-01
9.816374249e-01,3.37895e-01,9.99999e-01,3.37895e-01,9.99999e-01
9.865456120e-01,3.45214e-01,9.99999e-01,3.45214e-01,9.99999e-01
9.914783401e-01,3.52544e-01,9.99999e-01,3.52544e-01,9.99999e-01
9.964357318e-01,3.59879e-01,9.99999e-01,3.59879e-01,9.99999e-01
1.001417910e+00,3.67218e-01,9.99999e-01,3.67218e-01,9.99999e-01
1.006425000e+00,3.74557e-01,9.99999e-01,3.74557e-01,9.99999e-01
1.011457125e+00,3.81893e-01,9.99999e-01,3.81893e-01,9.99999e-01
1.016514411e+00,3.89224e-01,9.99999e-01,3.89224e-01,9.99999e-01
1.021596983e+00,3.96458e-01,9.99776e-01,3.96546e-01,9.99999e-01
1.026704968e+00,3.98042e-01,9.85598e-01,4.03858e-01,9.99999e-01
1.031838492e+00,3.65151e-01,8.88107e-01,4.11156e-01,9.99999e-01
1.036997685e+00,1.66687e-02,3.98356e-02,4.18438e-01,9.99999e-01
1.042182673e+00,6.15497e-04,1.44584e-03,4.25701e-01,9.99999e-01
1.047393587e+00,1.72048e-03,3.97391e-03,4.32943e-01,9.99999e-01
1.052630555e+00,4.50957e-08,1.02453e-07,4.40161e-01,9.99999e-01
1.057893707e+00,1.73164e-07,3.87084e-07,4.47354e-01,9.99999e-01
1.063183176e+00,8.88850e-06,1.95558e-05,4.54519e-01,9.99999e-01
1.068499092e+00,1.18553e-04,2.56801e-04,4.61653e-01,9.99999e-01
1.073841587e+00,2.21075e-03,4.71621e-03,4.68756e-01,9.99999e-01
1.079210795e+00,1.67256e-02,3.51508e-02,4.75824e-01,9.99999e-01
1.084606849e+00,7.12694e-02,1.47600e-01,4.82856e-01,9.99999e-01
1.090029883e+00,1.79246e-01,3.65920e-01,4.89850e-01,9.99999e-01
1.095480033e+00,3.02112e-01,6.08111e-01,4.96804e-01,9.99999e-01
1.100957433e+00,3.95682e-01,7.85525e-01,5.03716e-01,9.99999e-01
1.106462220e+00,4.62041e-01,9.04922e-01,5.10586e-01,9.99999e-01
1.111994531e+00,4.98568e-01,9.63583e-01,5.17410e-01,9.99999e-01
1.117554504e+00,5.19487e-01,9.91031e-01,5.24188e-01,9.99999e-01
1.123142276e+00,5.30607e-01,9.99412e-01,5.30919e-01,9.99999e-01
1.128757988e+00,5.37600e-01,9.99999e-01,5.37600e-01,9.99999e-01
1.134401778e+00,5.44231e-01,9.99999e-01,5.44231e-01,9.99999e-01
1.140073787e+00,5.50811e-01,9.99999e-01,5.50811e-01,9.99999e-01
1.145774156e+00,5.57338e-01,9.99999e-01,5.57338e-01,9.99999e-01
1.151503026e+00,5.63811e-01,9.99999e-01,5.63811e-01,9.99999e-01
1.157260541e+00,5.70228e-01,9.99999e-01,5.70228e-01,9.99999e-01
1.163046844e+00,5.76591e-01,9.99999e-01,5.76591e-01,9.99999e-01
1.168862078e+00,5.82896e-01,9.99999e-01,5.82896e-01,9.99999e-01
1.174706389e+00,5.89144e-01,9.99999e-01,5.89144e-01,9.99999e-01
1.180579921e+00,5.95333e-01,9.99999e-01,5.95333e-01,9.99999e-01
1.186482820e+00,6.01443e-01,9.99966e-01,6.01463e-01,9.99999e-01
1.192415234e+00,5.78042e-01,9.51456e-01,6.07533e-01,9.99999e-01
1.198377311e+00,3.08152e-01,5.02250e-01,6.13543e-01,9.99999e-01
1.204369197e+00,2.22954e-36,3.59898e-36,6.19492e-01,9.99999e-01
1.210391043e+00,7.04950e-149,1.12724e-148,6.25379e-01,9.99999e-01
1.216442998e+00,9.22212e-129,1.46103e-128,6.31205e-01,9.99999e-01
1.222525213e+00,8.04552e-127,1.26310e-126,6.36967e-01,9.99999e-01
1.228637839e+00,1.00073e-97,1.55714e-97,6.42668e-01,9.99999e-01
1.234781029e+00,1.35882e-60,2.09596e-60,6.48305e-01,9.99999e-01
1.240954934e+00,4.67944e-40,7.15643e-40,6.53878e-01,9.99999e-01
1.247159708e+00,5.17056e-19,7.84143e-19,6.59388e-01,9.99999e-01
1.253395507e+00,6.08301e-13,9.14965e-13,6.64835e-01,9.99999e-01
1.259662485e+00,1.26240e-07,1.88357e-07,6.70217e-01,9.99999e-01
1.265960797e+00,1.54540e-04,2.28766e-04,6.75536e-01,9.99999e-01
1.272290601e+00,1.20678e-02,1.77261e-02,6.80790e-01,9.99999e-01
1.278652054e+00,1.14437e-02,1.66822e-02,6.85980e-01,9.99999e-01
1.285045314e+00,4.96818e-06,7.18872e-06,6.91106e-01,9.99999e-01
1.291470541e+00,2.87726e-17,4.13298e-17,6.96168e-01,9.99999e-01
1.297927893e+00,5.94376e-06,8.47696e-06,7.01166e-01,9.99999e-01
1.304417533e+00,4.08249e-04,5.78174e-04,7.06100e-01,9.99999e-01
1.310939621e+00,8.19470e-05,1.15261e-04,7.10970e-01,9.99999e-01
1.317494319e+00,3.98075e-51,5.56143e-51,7.15777e-01,9.99999e-01
1.324081790e+00,3.45406e-23,4.79384e-23,7.20520e-01,9.99999e-01
1.330702199e+00,1.55626e-19,2.14597e-19,7.25201e-01,9.99999e-01
1.337355710e+00,9.52946e-18,1.30573e-17,7.29818e-01,9.99999e-01
1.344042489e+00,5.51734e-18,7.51299e-18,7.34372e-01,9.99999e-01
1.350762701e+00,7.55839e-20,1.02297e-19,7.38864e-01,9.99999e-01
1.357516515e+00,6.46948e-12,8.70378e-12,7.43295e-01,9.99999e-01
1.364304097e+00,7.87627e-09,1.05345e-08,7.47663e-01,9.99999e-01
1.371125618e+00,6.70379e-05,8.91497e-05,7.51970e-01,9.99999e-01
1.377981246e+00,2.25543e-04,2.98251e-04,7.56216e-01,9.99999e-01
1.384871152e+00,6.53999e-03,8.60071e-03,7.60401e-01,9.99999e-01
1.391795508e+00,9.81613e-03,1.28395e-02,7.64526e-01,9.99999e-01
1.398754485e+00,4.79000e-02,6.23217e-02,7.68592e-01,9.99999e-01
1.405748258e+00,1.03535e-01,1.34009e-01,7.72598e-01,9.99999e-01
1.412776999e+00,2.15350e-01,2.77318e-01,7.76545e-01,9.99999e-01
1.419840884e+00,2.06456e-01,2.64540e-01,7.80434e-01,9.99999e-01
1.426940089e+00,6.47653e-03,8.25809e-03,7.84265e-01,9.99999e-01
1.434074789e+00,0.00000e+00,0.00000e+00,7.88039e-01,9.99999e-01
1.441245163e+00,0.00000e+00,0.00000e+00,7.91755e-01,9.99999e-01
1.448451389e+00,0.00000e+00,0.00000e+00,7.95415e-01,9.99999e-01
1.455693646e+00,0.00000e+00,0.00000e+00,7.99020e-01,9.99999e-01
1.462972114e+00,0.00000e+00,0.00000e+00,8.02569e-01,9.99999e-01
1.470286975e+00,3.92969e-247,4.87516e-247,8.06063e-01,9.99999e-01
1.477638409e+00,8.18678e-155,1.01133e-154,8.09503e-01,9.99999e-01
1.485026601e+00,1.30166e-85,1.60127e-85,8.12889e-01,9.99999e-01
1.492451734e+00,7.89906e-73,9.67758e-73,8.16222e-01,9.99999e-01
1.499913993e+00,7.79294e-31,9.50935e-31,8.19503e-01,9.99999e-01
1.507413563e+00,1.43732e-29,1.74700e-29,8.22731e-01,9.99999e-01
1.514950631e+00,3.18427e-31,3.85547e-31,8.25908e-01,9.99999e-01
1.522525384e+00,1.18647e-109,1.43115e-109,8.29034e-01,9.99999e-01
1.530138011e+00,7.76298e-264,9.32926e-264,8.32110e-01,9.99999e-01
1.537788701e+00,8.48460e-195,1.01595e-194,8.35137e-01,9.99999e-01
1.545477645e+00,5.06459e-40,6.04283e-40,8.38114e-01,9.99999e-01
1.553205033e+00,2.57567e-29,3.06247e-29,8.41043e-01,9.99999e-01
1.560971058e+00,1.92158e-29,2.27695e-29,8.43923e-01,9.99999e-01
1.568775913e+00,0.00000e+00,0.00000e+00,8.46757e-01,9.99999e-01
1.576619793e+00,0.00000e+00,0.00000e+00,8.49544e-01,9.99999e-01
1.584502892e+00,0.00000e+00,0.00000e+00,8.52284e-01,9.99999e-01
1.592425406e+00,0.00000e+00,0.00000e+00,8.54979e-01,9.99999e-01
1.600387533e+00,0.00000e+00,0.00000e+00,8.57629e-01,9.99999e-01
1.608389471e+00,0.00000e+00,0.00000e+00,8.60235e-01,9.99999e-01
1.616431418e+00,0.00000e+00,0.00000e+00,8.62797e-01,9.99999e-01
1.624513575e+00,0.00000e+00,0.00000e+00,8.65315e-01,9.99999e-01
1.632636143e+00,0.00000e+00,0.00000e+00,8.67792e-01,9.99999e-01
1.640799324e+00,7.44560e-229,8.55594e-229,8.70226e-01,9.99999e-01
1.649003321e+00,7.46059e-229,8.54965e-229,8.72618e-01,9.99999e-01
1.657248337e+00,1.56967e-176,1.79397e-176,8.74970e-01,9.99999e-01
1.665534579e+00,1.01442e-177,1.15632e-177,8.77281e-01,9.99999e-01
1.673862252e+00,8.42867e-113,9.58289e-113,8.79553e-01,9.99999e-01
1.682231563e+00,1.15124e-77,1.30558e-77,8.81786e-01,9.99999e-01
1.690642721e+00,1.64465e-42,1.86051e-42,8.83980e-01,9.99999e-01
1.699095934e+00,7.66855e-27,8.65392e-27,8.86135e-01,9.99999e-01
1.707591414e+00,2.76506e-13,3.11292e-13,8.88254e-01,9.99999e-01
1.716129371e+00,3.89261e-08,4.37207e-08,8.90335e-01,9.99999e-01
1.724710018e+00,4.72945e-05,5.29980e-05,8.92380e-01,9.99999e-01
1.733333568e+00,1.10913e-03,1.24010e-03,8.94390e-01,9.99999e-01
1.742000236e+00,1.81636e-02,2.02636e-02,8.96364e-01,9.99999e-01
1.750710237e+00,1.96003e-05,2.18192e-05,8.98303e-01,9.99999e-01
1.759463788e+00,1.16458e-107,1.29368e-107,9.00208e-01,9.99999e-01
1.768261107e+00,1.02092e-112,1.13174e-112,9.02079e-01,9.99999e-01
1.777102413e+00,6.28440e-110,6.95240e-110,9.03917e-01,9.99999e-01
1.785987925e+00,1.01550e-102,1.12121e-102,9.05723e-01,9.99999e-01
1.794917864e+00,4.88856e-98,5.38686e-98,9.07496e-01,9.99999e-01
1.803892454e+00,3.74346e-94,4.11714e-94,9.09237e-01,9.99999e-01
1.812911916e+00,1.93266e-90,2.12159e-90,9.10948e-01,9.99999e-01
1.821976476e+00,1.62669e-90,1.78243e-90,9.12628e-01,9.99999e-01
1.831086358e+00,2.17981e-72,2.38419e-72,9.14277e-01,9.99999e-01
1.840241790e+00,1.55635e-61,1.69926e-61,9.15897e-01,9.99999e-01
1.849442999e+00,1.28267e-42,1.39802e-42,9.17488e-01,9.99999e-01
1.858690214e+00,3.60415e-40,3.92160e-40,9.19050e-01,9.99999e-01
1.867983665e+00,1.06615e-40,1.15813e-40,9.20584e-01,9.99999e-01
1.877323583e+00,4.26415e-207,4.62444e-207,9.22089e-01,9.99999e-01
