#,Wave/freq,Total,CO2,Rayleigh,CIA
4.000000000e-01,4.16058e-03,9.99999e-01,4.16058e-03,9.99999e-01
4.020000000e-01,4.63692e-03,9.99999e-01,4.63692e-03,9.99999e-01
4.040100000e-01,5.15617e-03,9.99999e-01,5.15617e-03,9.99999e-01
4.060300500e-01,5.72156e-03,9.99999e-01,5.72156e-03,9.99999e-01
4.080602003e-01,6.33591e-03,9.99999e-01,6.33591e-03,9.99999e-01
4.101005013e-01,7.00211e-03,9.99999e-01,7.00211e-03,9.99999e-01
4.121510038e-01,7.72308e-03,9.99999e-01,7.72308e-03,9.99999e-01
4.142117588e-01,8.50182e-03,9.99999e-01,8.50182e-03,9.99999e-01
4.162828176e-01,9.34134e-03,9.99999e-01,9.34134e-03,9.99999e-01
4.183642317e-01,1.02447e-02,9.99999e-01,1.02447e-02,9.99999e-01
4.204560528e-01,1.12149e-02,9.99999e-01,1.12149e-02,9.99999e-01
4.225583331e-01,1.22551e-02,9.99999e-01,1.22551e-02,9.99999e-01
4.246711247e-01,1.33684e-02,9.99999e-01,1.33684e-02,9.99999e-01
4.267944804e-01,1.45577e-02,9.99999e-01,1.45577e-02,9.99999e-01
4.289284528e-01,1.58262e-02,9.99999e-01,1.58262e-02,9.99999e-01
4.310730950e-01,1.71768e-02,9.99999e-01,1.71768e-02,9.99999e-01
4.332284605e-01,1.86126e-02,9.99999e-01,1.86126e-02,9.99999e-01
4.353946028e-01,2.01364e-02,9.99999e-01,2.01364e-02,9.99999e-01
4.375715758e-01,2.17512e-02,9.99999e-01,2.17512e-02,9.99999e-01
4.397594337e-01,2.34597e-02,9.99999e-01,2.34597e-02,9.99999e-01
4.419582309e-01,2.52646e-02,9.99999e-01,2.52646e-02,9.99999e-01
4.441680220e-01,2.71686e-02,9.99999e-01,2.71686e-02,9.99999e-01
4.463888621e-01,2.91741e-02,9.99999e-01,2.91741e-02,9.99999e-01
4.486208064e-01,3.12837e-02,9.99999e-01,3.12837e-02,9.99999e-01
4.508639105e-01,3.34996e-02,9.99999e-01,3.34996e-02,9.99999e-01
4.531182300e-01,3.58239e-02,9.99999e-01,3.58239e-02,9.99999e-01
4.553838212e-01,3.82588e-02,9.99999e-01,3.82588e-02,9.99999e-01
4.576607403e-01,4.08062e-02,9.99999e-01,4.08062e-02,9.99999e-01
4.599490440e-01,4.34678e-02,9.99999e-01,4.34678e-02,9.99999e-01
4.622487892e-01,4.62453e-02,9.99999e-01,4.62453e-02,9.99999e-01
4.645600332e-01,4.91401e-02,9.99999e-01,4.91401e-02,9.99999e-01
4.668828333e-01,5.21535e-02,9.99999e-01,5.21535e-02,9.99999e-01
4.692172475e-01,5.52866e-02,9.99999e-01,5.52866e-02,9.99999e-01
4.715633337e-01,5.85405e-02,9.99999e-01,5.85405e-02,9.99999e-01
4.739211504e-01,6.19159e-02,9.99999e-01,6.19159e-02,9.99999e-01
4.762907561e-01,6.54134e-02,9.99999e-01,6.54134e-02,9.99999e-01
4.786722099e-01,6.90336e-02,9.99999e-01,6.90336e-02,9.99999e-01
4.810655710e-01,7.27766e-02,9.99999e-01,7.27766e-02,9.99999e-01
4.834708988e-01,7.66426e-02,9.99999e-01,7.66426e-02,9.99999e-01
4.858882533e-01,8.06315e-02,9.99999e-01,8.06315e-02,9.99999e-01
4.883176946e-01,8.47430e-02,9.99999e-01,8.47430e-02,9.99999e-01
4.907592831e-01,8.89768e-02,9.99999e-01,8.89768e-02,9.99999e-01
4.932130795e-01,9.33321e-02,9.99999e-01,9.33321e-02,9.99999e-01
4.956791449e-01,9.78082e-02,9.99999e-01,9.78082e-02,9.99999e-01
4.981575406e-01,1.02404e-01,9.99999e-01,1.02404e-01,9.99999e-01
5.006483283e-01,1.07119e-01,9.99999e-01,1.07119e-01,9.99999e-01
5.031515699e-01,1.11951e-01,9.99999e-01,1.11951e-01,9.99999e-01
5.056673278e-01,1.16900e-01,9.99999e-01,1.16900e-01,9.99999e-01
5.081956644e-01,1.21962e-01,9.99999e-01,1.21962e-01,9.99999e-01
5.107366428e-01,1.27138e-01,9.99999e-01,1.27138e-01,9.99999e-01
5.132903260e-01,1.32424e-01,9.99999e-01,1.32424e-01,9.99999e-01
5.158567776e-01,1.37820e-01,9.99999e-01,1.37820e-01,9.99999e-01
5.184360615e-01,1.43322e-01,9.99999e-01,1.43322e-01,9.99999e-01
5.210282418e-01,1.48928e-01,9.99999e-01,1.48928e-01,9.99999e-01
5.236333830e-01,1.54637e-01,9.99999e-01,1.54637e-01,9.99999e-01
5.262515499e-01,1.60445e-01,9.99999e-01,1.60445e-01,9.99999e-01
5.288828077e-01,1.66350e-01,9.99999e-01,1.66350e-01,9.99999e-01
5.315272217e-01,1.72349e-01,9.99999e-01,1.72349e-01,9.99999e-01
5.341848578e-01,1.78440e-01,9.99999e-01,1.78440e-01,9.99999e-01
5.368557821e-01,1.84619e-01,9.99999e-01,1.84619e-01,9.99999e-01
5.395400610e-01,1.90884e-01,9.99999e-01,1.90884e-01,9.99999e-01
5.422377613e-01,1.97232e-01,9.99999e-01,1.97232e-01,9.99999e-01
5.449489501e-01,2.03658e-01,9.99999e-01,2.03658e-01,9.99999e-01
5.476736949e-01,2.10162e-01,9.99999e-01,2.10162e-01,9.99999e-01
5.504120634e-01,2.16738e-01,9.99999e-01,2.16738e-01,9.99999e-01
5.531641237e-01,2.23384e-01,9.99999e-01,2.23384e-01,9.99999e-01
5.559299443e-01,2.30096e-01,9.99999e-01,2.30096e-01,9.99999e-01
5.587095940e-01,2.36872e-01,9.99999e-01,2.36872e-01,9.99999e-01
5.615031420e-01,2.43707e-01,9.99999e-01,2.43707e-01,9.99999e-01
5.643106577e-01,2.50599e-01,9.99999e-01,2.50599e-01,9.99999e-01
5.671322110e-01,2.57544e-01,9.99999e-01,2.57544e-01,9.99999e-01
5.699678720e-01,2.64538e-01,9.99999e-01,2.64538e-01,9.99999e-01
5.728177114e-01,2.71578e-01,9.99999e-01,2.71578e-01,9.99999e-01
5.756818000e-01,2.78662e-01,9.99999e-01,2.78662e-01,9.99999e-01
5.785602090e-01,2.85784e-01,9.99999e-01,2.85784e-01,9.99999e-01
5.814530100e-01,2.92943e-01,9.99999e-01,2.92943e-01,9.99999e-01
5.843602750e-01,3.00134e-01,9.99999e-01,3.00134e-01,9.99999e-01
5.872820764e-01,3.07354e-01,9.99999e-01,3.07354e-01,9.99999e-01
5.902184868e-01,3.14601e-01,9.99999e-01,3.14601e-01,9.99999e-01
5.931695792e-01,3.21870e-01,9.99999e-01,3.21870e-01,9.99999e-01
5.961354271e-01,3.29158e-01,9.99999e-01,3.29158e-01,9.99999e-01
5.991161043e-01,3.36463e-01,9.99999e-01,3.36463e-01,9.99999e-01
6.021116848e-01,3.43781e-01,9.99999e-01,3.43781e-01,9.99999e-01
6.051222432e-01,3.51108e-01,9.99999e-01,3.51108e-01,9.99999e-01
6.081478544e-01,3.58443e-01,9.99999e-01,3.58443e-01,9.99999e-01
6.111885937e-01,3.65781e-01,9.99999e-01,3.65781e-01,9.99999e-01
6.142445367e-01,3.73120e-01,9.99999e-01,3.73120e-01,9.99999e-01
6.173157594e-01,3.80457e-01,9.99999e-01,3.80457e-01,9.99999e-01
6.204023382e-01,3.87789e-01,9.99999e-01,3.87789e-01,9.99999e-01
6.235043498e-01,3.95113e-01,9.99999e-01,3.95113e-01,9.99999e-01
6.266218716e-01,4.02427e-01,9.99999e-01,4.02427e-01,9.99999e-01
6.297549810e-01,4.09728e-01,9.99999e-01,4.09728e-01,9.99999e-01
6.329037559e-01,4.17013e-01,9.99999e-01,4.17013e-01,9.99999e-01
6.360682746e-01,4.24280e-01,9.99999e-01,4.24280e-01,9.99999e-01
6.392486160e-01,4.31527e-01,9.99999e-01,4.31527e-01,9.99999e-01
6.424448591e-01,4.38750e-01,9.99999e-01,4.38750e-01,9.99999e-01
6.456570834e-01,4.45948e-01,9.99999e-01,4.45948e-01,9.99999e-01
6.488853688e-01,4.53119e-01,9.99999e-01,4.53119e-01,9.99999e-01
6.521297956e-01,4.60259e-01,9.99999e-01,4.60259e-01,9.99999e-01
6.553904446e-01,4.67368e-01,9.99999e-01,4.67368e-01,9.99999e-01
6.586673968e-01,4.74443e-01,9.99999e-01,4.74443e-01,9.99999e-01
6.619607338e-01,4.81482e-01,9.99999e-01,4.81482e-01,9.99999e-01
6.652705375e-01,4.88484e-01,9.99999e-01,4.88484e-01,9.99999e-01
6.685968902e-01,4.95446e-01,9.99999e-01,4.95446e-01,9.99999e-01
6.719398746e-01,5.02366e-01,9.99999e-01,5.02366e-01,9.99999e-01
6.752995740e-01,5.09244e-01,9.99999e-01,5.09244e-01,9.99999e-01
6.786760719e-01,5.16078e-01,9.99999e-01,5.16078e-01,9.99999e-01
6.820694522e-01,5.22865e-01,9.99999e-01,5.22865e-01,9.99999e-01
6.854797995e-01,5.29605e-01,9.99999e-01,5.29605e-01,9.99999e-01
6.889071985e-01,5.36296e-01,9.99999e-01,5.36296e-01,9.99999e-01
6.923517345e-01,5.42937e-01,9.99999e-01,5.42937e-01,9.99999e-01
6.958134932e-01,5.49527e-01,9.99999e-01,5.49527e-01,9.99999e-01
6.992925606e-01,5.56064e-01,9.99999e-01,5.56064e-01,9.99999e-01
7.027890234e-01,5.62548e-01,9.99999e-01,5.62548e-01,9.99999e-01
7.063029686e-01,5.68976e-01,9.99999e-01,5.68976e-01,9.99999e-01
7.098344834e-01,5.75350e-01,9.99999e-01,5.75350e-01,9.99999e-01
7.133836558e-01,5.81666e-01,9.99999e-01,5.81666e-01,9.99999e-01
7.169505741e-01,5.87925e-01,9.99999e-01,5.87925e-01,9.99999e-01
7.205353270e-01,5.94126e-01,9.99999e-01,5.94126e-01,9.99999e-01
7.241380036e-01,6.00268e-01,9.99999e-01,6.00268e-01,9.99999e-01
7.277586936e-01,6.06350e-01,9.99999e-01,6.06350e-01,9.99999e-01
7.313974871e-01,6.12371e-01,9.99999e-01,6.12371e-01,9.99999e-01
7.350544745e-01,6.18332e-01,9.99999e-01,6.18332e-01,9.99999e-01
7.387297469e-01,6.24232e-01,9.99999e-01,6.24232e-01,9.99999e-01
7.424233956e-01,6.30069e-01,9.99999e-01,6.30069e-01,9.99999e-01
7.461355126e-01,6.35844e-01,9.99999e-01,6.35844e-01,9.99999e-01
7.498661902e-01,6.41557e-01,9.99999e-01,6.41557e-01,9.99999e-01
7.536155211e-01,6.47206e-01,9.99999e-01,6.47206e-01,9.99999e-01
7.573835987e-01,6.52792e-01,9.99999e-01,6.52792e-01,9.99999e-01
7.611705167e-01,6.58315e-01,9.99999e-01,6.58315e-01,9.99999e-01
7.649763693e-01,6.63774e-01,9.99999e-01,6.63774e-01,9.99999e-01
7.688012511e-01,6.69169e-01,9.99999e-01,6.69169e-01,9.99999e-01
7.726452574e-01,6.74499e-01,9.99999e-01,6.74499e-01,9.99999e-01
7.765084837e-01,6.79766e-01,9.99999e-01,6.79766e-01,9.99999e-01
7.803910261e-01,6.71872e-01,9.80879e-01,6.84969e-01,9.99999e-01
7.842929812e-01,6.36420e-01,9.22203e-01,6.90108e-01,9.99999e-01
7.882144461e-01,6.37079e-01,9.16420e-01,6.95182e-01,9.99999e-01
7.921555184e-01,6.65918e-01,9.51049e-01,7.00193e-01,9.99999e-01
7.961162960e-01,6.81986e-01,9.67164e-01,7.05139e-01,9.99999e-01
8.000968774e-01,6.97283e-01,9.82057e-01,7.10022e-01,9.99999e-01
8.040973618e-01,7.08185e-01,9.90688e-01,7.14841e-01,9.99999e-01
8.081178486e-01,7.16509e-01,9.95708e-01,7.19597e-01,9.99999e-01
8.121584379e-01,7.23333e-01,9.98678e-01,7.24289e-01,9.99999e-01
8.162192301e-01,7.28706e-01,9.99707e-01,7.28919e-01,9.99999e-01
8.203003262e-01,7.33483e-01,9.99995e-01,7.33486e-01,9.99999e-01
8.244018279e-01,7.37990e-01,9.99999e-01,7.37990e-01,9.99999e-01
8.285238370e-01,7.42432e-01,9.99999e-01,7.42432e-01,9.99999e-01
8.326664562e-01,7.46813e-01,9.99999e-01,7.46813e-01,9.99999e-01
8.368297885e-01,7.51132e-01,9.99999e-01,7.51132e-01,9.99999e-01
8.410139374e-01,7.55389e-01,9.99999e-01,7.55389e-01,9.99999e-01
8.452190071e-01,7.59587e-01,9.99999e-01,7.59587e-01,9.99999e-01
8.494451021e-01,7.63724e-01,9.99999e-01,7.63724e-01,9.99999e-01
8.536923276e-01,7.67801e-01,9.99999e-01,7.67801e-01,9.99999e-01
8.579607893e-01,7.71818e-01,9.99999e-01,7.71818e-01,9.99999e-01
8.622505932e-01,7.75777e-01,9.99999e-01,7.75777e-01,9.99999e-01
8.665618462e-01,7.41016e-01,9.50413e-01,7.79677e-01,9.99999e-01
8.708946554e-01,6.35721e-01,8.11365e-01,7.83520e-01,9.99999e-01
8.752491287e-01,6.66773e-01,8.46905e-01,7.87304e-01,9.99999e-01
8.796253743e-01,7.22697e-01,9.13612e-01,7.91032e-01,9.99999e-01
8.840235012e-01,7.58495e-01,9.54437e-01,7.94703e-01,9.99999e-01
8.884436187e-01,7.83830e-01,9.81851e-01,7.98318e-01,9.99999e-01
8.928858368e-01,7.95953e-01,9.92609e-01,8.01878e-01,9.99999e-01
8.973502660e-01,8.03938e-01,9.98205e-01,8.05383e-01,9.99999e-01
9.018370173e-01,8.08674e-01,9.99802e-01,8.08834e-01,9.99999e-01
9.063462024e-01,8.08037e-01,9.94836e-01,8.12230e-01,9.99999e-01
9.108779334e-01,8.06070e-01,9.88346e-01,8.15574e-01,9.99999e-01
9.154323231e-01,8.16626e-01,9.97266e-01,8.18864e-01,9.99999e-01
9.200094847e-01,7.88602e-01,9.59249e-01,8.22103e-01,9.99999e-01
9.246095321e-01,7.79180e-01,9.44127e-01,8.25290e-01,9.99999e-01
9.292325798e-01,7.91595e-01,9.55540e-01,8.28426e-01,9.99999e-01
9.338787427e-01,7.96016e-01,9.57311e-01,8.31512e-01,9.99999e-01
9.385481364e-01,8.08268e-01,9.68508e-01,8.34548e-01,9.99999e-01
9.432408771e-01,8.21331e-01,9.80652e-01,8.37535e-01,9.99999e-01
9.479570815e-01,8.32086e-01,9.90020e-01,8.40473e-01,9.99999e-01
9.526968669e-01,8.39299e-01,9.95180e-01,8.43363e-01,9.99999e-01
9.574603512e-01,8.44461e-01,9.97937e-01,8.46206e-01,9.99999e-01
9.622476530e-01,8.48456e-01,9.99356e-01,8.49002e-01,9.99999e-01
9.670588912e-01,8.51587e-01,9.99807e-01,8.51751e-01,9.99999e-01
9.718941857e-01,8.54444e-01,9.99986e-01,8.54455e-01,9.99999e-01
9.767536566e-01,8.57114e-01,9.99999e-01,8.57114e-01,9.99999e-01
9.816374249e-01,8.59728e-01,9.99999e-01,8.59728e-01,9.99999e-01
9.865456120e-01,8.62299e-01,9.99999e-01,8.62299e-01,9.99999e-01
9.914783401e-01,8.64826e-01,9.99999e-01,8.64826e-01,9.99999e-01
9.964357318e-01,8.67310e-01,9.99999e-01,8.67310e-01,9.99999e-01
1.001417910e+00,8.69752e-01,9.99999e-01,8.69752e-01,9.99999e-01
1.006425000e+00,8.72153e-01,9.99999e-01,8.72153e-01,9.99999e-01
1.011457125e+00,8.74513e-01,9.99999e-01,8.74513e-01,9.99999e-01
1.016514411e+00,8.76832e-01,9.99999e-01,8.76832e-01,9.99999e-01
1.021596983e+00,8.79086e-01,9.99970e-01,8.79111e-01,9.99999e-01
1.026704968e+00,8.79578e-01,9.97987e-01,8.81352e-01,9.99999e-01
1.031838492e+00,8.57378e-01,9.70375e-01,8.83553e-01,9.99999e-01
1.036997685e+00,2.35886e-01,2.66322e-01,8.85716e-01,9.99999e-01
1.042182673e+00,2.75780e-01,3.10618e-01,8.87842e-01,9.99999e-01
1.047393587e+00,2.60059e-01,2.92224e-01,8.89931e-01,9.99999e-01
1.052630555e+00,3.34037e-02,3.74488e-02,8.91983e-01,9.99999e-01
1.057893707e+00,6.52911e-02,7.30325e-02,8.93999e-01,9.99999e-01
1.063183176e+00,1.33928e-01,1.49476e-01,8.95980e-01,9.99999e-01
1.068499092e+00,2.50663e-01,2.79157e-01,8.97926e-01,9.99999e-01
1.073841587e+00,4.02990e-01,4.47847e-01,8.99838e-01,9.99999e-01
1.079210795e+00,5.43077e-01,6.02270e-01,9.01715e-01,9.99999e-01
1.084606849e+00,6.85134e-01,7.58259e-01,9.03560e-01,9.99999e-01
1.090029883e+00,7.84454e-01,8.66443e-01,9.05372e-01,9.99999e-01
1.095480033e+00,8.45381e-01,9.31907e-01,9.07151e-01,9.99999e-01
1.100957433e+00,8.78572e-01,9.66632e-01,9.08899e-01,9.99999e-01
1.106462220e+00,8.97940e-01,9.86080e-01,9.10615e-01,9.99999e-01
1.111994531e+00,9.07576e-01,9.94819e-01,9.12301e-01,9.99999e-01
1.117554504e+00,9.12802e-01,9.98735e-01,9.13957e-01,9.99999e-01
1.123142276e+00,9.15507e-01,9.99916e-01,9.15582e-01,9.99999e-01
1.128757988e+00,9.17179e-01,9.99999e-01,9.17179e-01,9.99999e-01
1.134401778e+00,9.18746e-01,9.99999e-01,9.18746e-01,9.99999e-01
1.140073787e+00,9.20285e-01,9.99999e-01,9.20285e-01,9.99999e-01
1.145774156e+00,9.21797e-01,9.99999e-01,9.21797e-01,9.99999e-01
1.151503026e+00,9.23281e-01,9.99999e-01,9.23281e-01,9.99999e-01
1.157260541e+00,9.24737e-01,9.99999e-01,9.24737e-01,9.99999e-01
1.163046844e+00,9.26168e-01,9.99999e-01,9.26168e-01,9.99999e-01
1.168862078e+00,9.27572e-01,9.99999e-01,9.27572e-01,9.99999e-01
1.174706389e+00,9.28950e-01,9.99999e-01,9.28950e-01,9.99999e-01
1.180579921e+00,9.30304e-01,9.99999e-01,9.30304e-01,9.99999e-01
1.186482820e+00,9.31628e-01,9.99995e-01,9.31632e-01,9.99999e-01
1.192415234e+00,9.26186e-01,9.92763e-01,9.32936e-01,9.99999e-01
1.198377311e+00,5.42724e-01,5.80940e-01,9.34216e-01,9.99999e-01
1.204369197e+00,5.29104e-07,5.65600e-07,9.35473e-01,9.99999e-01
1.210391043e+00,1.12660e-22,1.20272e-22,9.36706e-01,9.99999e-01
1.216442998e+00,7.18809e-20,7.66388e-20,9.37917e-01,9.99999e-01
1.222525213e+00,1.37853e-19,1.46792e-19,9.39105e-01,9.99999e-01
1.228637839e+00,4.33754e-15,4.61307e-15,9.40271e-01,9.99999e-01
1.234781029e+00,2.30929e-10,2.45300e-10,9.41416e-01,9.99999e-01
1.240954934e+00,4.98051e-07,5.28414e-07,9.42539e-01,9.99999e-01
1.247159708e+00,2.88976e-04,3.06235e-04,9.43641e-01,9.99999e-01
1.253395507e+00,1.06204e-02,1.12418e-02,9.44723e-01,9.99999e-01
1.259662485e+00,7.37722e-02,7.80010e-02,9.45785e-01,9.99999e-01
1.265960797e+00,2.15922e-01,2.28048e-01,9.46827e-01,9.99999e-01
1.272290601e+00,5.16015e-01,5.44406e-01,9.47849e-01,9.99999e-01
1.278652054e+00,4.53044e-01,4.77465e-01,9.48852e-01,9.99999e-01
1.285045314e+00,2.37634e-02,2.50183e-02,9.49837e-01,9.99999e-01
1.291470541e+00,2.36721e-03,2.48969e-03,9.50803e-01,9.99999e-01
1.297927893e+00,5.39270e-02,5.66608e-02,9.51751e-01,9.99999e-01
1.304417533e+00,3.16372e-01,3.32085e-01,9.52681e-01,9.99999e-01
1.310939621e+00,8.65697e-02,9.07825e-02,9.53593e-01,9.99999e-01
1.317494319e+00,3.05760e-08,3.20339e-08,9.54489e-01,9.99999e-01
1.324081790e+00,4.87308e-06,5.10074e-06,9.55368e-01,9.99999e-01
1.330702199e+00,1.41874e-03,1.48368e-03,9.56229e-01,9.99999e-01
1.337355710e+00,1.06492e-03,1.11269e-03,9.57075e-01,9.99999e-01
1.344042489e+00,3.45136e-04,3.60303e-04,9.57905e-01,9.99999e-01
1.350762701e+00,1.07218e-03,1.11834e-03,9.58719e-01,9.99999e-01
1.357516515e+00,1.10688e-02,1.15358e-02,9.59518e-01,9.99999e-01
1.364304097e+00,5.89863e-02,6.14247e-02,9.60301e-01,9.99999e-01
1.371125618e+00,2.20551e-01,2.29485e-01,9.61070e-01,9.99999e-01
1.377981246e+00,2.95648e-01,3.07382e-01,9.61824e-01,9.99999e-01
1.384871152e+00,4.84514e-01,5.03358e-01,9.62564e-01,9.99999e-01
1.391795508e+00,5.11101e-01,5.30578e-01,9.63289e-01,9.99999e-01
1.398754485e+00,6.52879e-01,6.77259e-01,9.64001e-01,9.99999e-01
1.405748258e+00,7.23668e-01,7.50147e-01,9.64700e-01,9.99999e-01
1.412776999e+00,8.05389e-01,8.34267e-01,9.65385e-01,9.99999e-01
1.419840884e+00,7.42153e-01,7.68228e-01,9.66057e-01,9.99999e-01
1.426940089e+00,9.59677e-02,9.92718e-02,9.66716e-01,9.99999e-01
1.434074789e+00,7.55920e-322,7.80624e-322,9.67362e-01,9.99999e-01
1.441245163e+00,0.00000e+00,0.00000e+00,9.67997e-01,9.99999e-01
1.448451389e+00,0.00000e+00,0.00000e+00,9.68619e-01,9.99999e-01
1.455693646e+00,1.26090e-174,1.30093e-174,9.69229e-01,9.99999e-01
1.462972114e+00,3.71407e-85,3.82961e-85,9.69827e-01,9.99999e-01
1.470286975e+00,2.31251e-36,2.38301e-36,9.70414e-01,9.99999e-01
1.477638409e+00,1.74553e-23,1.79768e-23,9.70990e-01,9.99999e-01
1.485026601e+00,1.08878e-13,1.12065e-13,9.71555e-01,9.99999e-01
1.492451734e+00,1.14445e-11,1.17728e-11,9.72109e-01,9.99999e-01
1.499913993e+00,5.59330e-06,5.75056e-06,9.72652e-01,9.99999e-01
1.507413563e+00,6.98475e-05,7.17720e-05,9.73185e-01,9.99999e-01
1.514950631e+00,2.95255e-06,3.03227e-06,9.73708e-01,9.99999e-01
1.522525384e+00,3.29744e-17,3.38470e-17,9.74220e-01,9.99999e-01
1.530138011e+00,1.39261e-38,1.42872e-38,9.74723e-01,9.99999e-01
1.537788701e+00,5.58356e-29,5.72545e-29,9.75216e-01,9.99999e-01
1.545477645e+00,1.65999e-07,1.70133e-07,9.75700e-01,9.99999e-01
1.553205033e+00,5.58163e-05,5.71786e-05,9.76174e-01,9.99999e-01
1.560971058e+00,1.41059e-05,1.44433e-05,9.76639e-01,9.99999e-01
1.568775913e+00,2.17593e-95,2.22694e-95,9.77095e-01,9.99999e-01
1.576619793e+00,5.86328e-222,5.99797e-222,9.77542e-01,9.99999e-01
1.584502892e+00,1.38780e-121,1.41904e-121,9.77981e-01,9.99999e-01
1.592425406e+00,4.67792e-85,4.78113e-85,9.78411e-01,9.99999e-01
1.600387533e+00,2.21708e-136,2.26503e-136,9.78833e-01,9.99999e-01
1.608389471e+00,2.17982e-228,2.22602e-228,9.79247e-01,9.99999e-01
1.616431418e+00,8.03372e-230,8.20057e-230,9.79652e-01,9.99999e-01
1.624513575e+00,8.31754e-108,8.48684e-108,9.80050e-01,9.99999e-01
1.632636143e+00,1.94481e-80,1.98361e-80,9.80440e-01,9.99999e-01
1.640799324e+00,8.12304e-34,8.28186e-34,9.80823e-01,9.99999e-01
1.649003321e+00,9.30874e-34,9.48711e-34,9.81198e-01,9.99999e-01
1.657248337e+00,2.14913e-26,2.18949e-26,9.81566e-01,9.99999e-01
1.665534579e+00,1.40512e-26,1.43098e-26,9.81927e-01,9.99999e-01
1.673862252e+00,1.92854e-17,1.96332e-17,9.82281e-01,9.99999e-01
1.682231563e+00,1.55483e-12,1.58232e-12,9.82628e-01,9.99999e-01
1.690642721e+00,1.14458e-07,1.16441e-07,9.82968e-01,9.99999e-01
1.699095934e+00,5.10553e-05,5.19223e-05,9.83301e-01,9.99999e-01
1.707591414e+00,5.04395e-03,5.12790e-03,9.83628e-01,9.99999e-01
1.716129371e+00,5.53938e-02,5.62974e-02,9.83949e-01,9.99999e-01
1.724710018e+00,2.11765e-01,2.15150e-01,9.84264e-01,9.99999e-01
1.733333568e+00,3.66764e-01,3.72511e-01,9.84572e-01,9.99999e-01
1.742000236e+00,5.32166e-01,5.40338e-01,9.84875e-01,9.99999e-01
1.750710237e+00,3.44802e-02,3.49992e-02,9.85171e-01,9.99999e-01
1.759463788e+00,1.29185e-16,1.31091e-16,9.85462e-01,9.99999e-01
1.768261107e+00,1.23560e-17,1.25346e-17,9.85747e-01,9.99999e-01
1.777102413e+00,1.49297e-16,1.51412e-16,9.86026e-01,9.99999e-01
1.785987925e+00,4.52327e-16,4.58609e-16,9.86301e-01,9.99999e-01
1.794917864e+00,4.06826e-15,4.12364e-15,9.86569e-01,9.99999e-01
1.803892454e+00,5.03172e-15,5.09885e-15,9.86833e-01,9.99999e-01
1.812911916e+00,3.22051e-14,3.26263e-14,9.87091e-01,9.99999e-01
1.821976476e+00,1.93578e-14,1.96059e-14,9.87345e-01,9.99999e-01
1.831086358e+00,6.73682e-12,6.82145e-12,9.87593e-01,9.99999e-01
1.840241790e+00,4.68208e-10,4.73972e-10,9.87836e-01,9.99999e-01
1.849442999e+00,4.03304e-07,4.08171e-07,9.88075e-01,9.99999e-01
1.858690214e+00,1.93415e-06,1.95702e-06,9.88309e-01,9.99999e-01
1.867983665e+00,2.96379e-07,2.99815e-07,9.88539e-01,9.99999e-01
1.877323583e+00,1.13559e-30,1.14849e-30,9.88764e-01,9.99999e-01
