#,Wave/freq,Total,CO2,Rayleigh,CIA
4.000000000e-01,2.46407e-04,9.99999e-01,2.46407e-04,9.99999e-01
4.020000000e-01,2.90401e-04,9.99999e-01,2.90401e-04,9.99999e-01
4.040100000e-01,3.41085e-04,9.99999e-01,3.41085e-04,9.99999e-01
4.060300500e-01,3.99345e-04,9.99999e-01,3.99345e-04,9.99999e-01
4.080602003e-01,4.66101e-04,9.99999e-01,4.66101e-04,9.99999e-01
4.101005013e-01,5.42357e-04,9.99999e-01,5.42357e-04,9.99999e-01
4.121510038e-01,6.29204e-04,9.99999e-01,6.29204e-04,9.99999e-01
4.142117588e-01,7.27819e-04,9.99999e-01,7.27819e-04,9.99999e-01
4.162828176e-01,8.39471e-04,9.99999e-01,8.39471e-04,9.99999e-01
4.183642317e-01,9.65527e-04,9.99999e-01,9.65527e-04,9.99999e-01
4.204560528e-01,1.10745e-03,9.99999e-01,1.10745e-03,9.99999e-01
4.225583331e-01,1.26679e-03,9.99999e-01,1.26679e-03,9.99999e-01
4.246711247e-01,1.44522e-03,9.99999e-01,1.44522e-03,9.99999e-01
4.267944804e-01,1.64449e-03,9.99999e-01,1.64449e-03,9.99999e-01
4.289284528e-01,1.86647e-03,9.99999e-01,1.86647e-03,9.99999e-01
4.310730950e-01,2.11313e-03,9.99999e-01,2.11313e-03,9.99999e-01
4.332284605e-01,2.38652e-03,9.99999e-01,2.38652e-03,9.99999e-01
4.353946028e-01,2.68882e-03,9.99999e-01,2.68882e-03,9.99999e-01
4.375715758e-01,3.02227e-03,9.99999e-01,3.02227e-03,9.99999e-01
4.397594337e-01,3.38925e-03,9.99999e-01,3.38925e-03,9.99999e-01
4.419582309e-01,3.79219e-03,9.99999e-01,3.79219e-03,9.99999e-01
4.441680220e-01,4.23363e-03,9.99999e-01,4.23363e-03,9.99999e-01
4.463888621e-01,4.71619e-03,9.99999e-01,4.71619e-03,9.99999e-01
4.486208064e-01,5.24256e-03,9.99999e-01,5.24256e-03,9.99999e-01
4.508639105e-01,5.81551e-03,9.99999e-01,5.81551e-03,9.99999e-01
4.531182300e-01,6.43788e-03,9.99999e-01,6.43788e-03,9.99999e-01
4.553838212e-01,7.11256e-03,9.99999e-01,7.11256e-03,9.99999e-01
4.576607403e-01,7.84248e-03,9.99999e-01,7.84248e-03,9.99999e-01
4.599490440e-01,8.63065e-03,9.99999e-01,8.63065e-03,9.99999e-01
4.622487892e-01,9.48007e-03,9.99999e-01,9.48007e-03,9.99999e-01
4.645600332e-01,1.03938e-02,9.99999e-01,1.03938e-02,9.99999e-01
4.668828333e-01,1.13749e-02,9.99999e-01,1.13749e-02,9.99999e-01
4.692172475e-01,1.24265e-02,9.99999e-01,1.24265e-02,9.99999e-01
4.715633337e-01,1.35516e-02,9.99999e-01,1.35516e-02,9.99999e-01
4.739211504e-01,1.47532e-02,9.99999e-01,1.47532e-02,9.99999e-01
4.762907561e-01,1.60345e-02,9.99999e-01,1.60345e-02,9.99999e-01
4.786722099e-01,1.73985e-02,9.99999e-01,1.73985e-02,9.99999e-01
4.810655710e-01,1.88480e-02,9.99999e-01,1.88480e-02,9.99999e-01
4.834708988e-01,2.03860e-02,9.99999e-01,2.03860e-02,9.99999e-01
4.858882533e-01,2.20155e-02,9.99999e-01,2.20155e-02,9.99999e-01
4.883176946e-01,2.37390e-02,9.99999e-01,2.37390e-02,9.99999e-01
4.907592831e-01,2.55594e-02,9.99999e-01,2.55594e-02,9.99999e-01
4.932130795e-01,2.74793e-02,9.99999e-01,2.74793e-02,9.99999e-01
4.956791449e-01,2.95012e-02,9.99999e-01,2.95012e-02,9.99999e-01
4.981575406e-01,3.16275e-02,9.99999e-01,3.16275e-02,9.99999e-01
5.006483283e-01,3.38604e-02,9.99999e-01,3.38604e-02,9.99999e-01
5.031515699e-01,3.62021e-02,9.99999e-01,3.62021e-02,9.99999e-01
5.056673278e-01,3.86547e-02,9.99999e-01,3.86547e-02,9.99999e-01
5.081956644e-01,4.12201e-02,9.99999e-01,4.12201e-02,9.99999e-01
5.107366428e-01,4.38999e-02,9.99999e-01,4.38999e-02,9.99999e-01
5.132903260e-01,4.66959e-02,9.99999e-01,4.66959e-02,9.99999e-01
5.158567776e-01,4.96093e-02,9.99999e-01,4.96093e-02,9.99999e-01
5.184360615e-01,5.26416e-02,9.99999e-01,5.26416e-02,9.99999e-01
5.210282418e-01,5.57938e-02,9.99999e-01,5.57938e-02,9.99999e-01
5.236333830e-01,5.90669e-02,9.99999e-01,5.90669e-02,9.99999e-01
5.262515499e-01,6.24616e-02,9.99999e-01,6.24616e-02,9.99999e-01
5.288828077e-01,6.59786e-02,9.99999e-01,6.59786e-02,9.99999e-01
5.315272217e-01,6.96182e-02,9.99999e-01,6.96182e-02,9.99999e-01
5.341848578e-01,7.33807e-02,9.99999e-01,7.33807e-02,9.99999e-01
5.368557821e-01,7.72661e-02,9.99999e-01,7.72661e-02,9.99999e-01
5.395400610e-01,8.12745e-02,9.99999e-01,8.12745e-02,9.99999e-01
5.422377613e-01,8.54054e-02,9.99999e-01,8.54054e-02,9.99999e-01
5.449489501e-01,8.96584e-02,9.99999e-01,8.96584e-02,9.99999e-01
5.476736949e-01,9.40329e-02,9.99999e-01,9.40329e-02,9.99999e-01
5.504120634e-01,9.85281e-02,9.99999e-01,9.85281e-02,9.99999e-01
5.531641237e-01,1.03143e-01,9.99999e-01,1.03143e-01,9.99999e-01
5.559299443e-01,1.07877e-01,9.99999e-01,1.07877e-01,9.99999e-01
5.587095940e-01,1.12727e-01,9.99999e-01,1.12727e-01,9.99999e-01
5.615031420e-01,1.17694e-01,9.99999e-01,1.17694e-01,9.99999e-01
5.643106577e-01,1.22775e-01,9.99999e-01,1.22775e-01,9.99999e-01
5.671322110e-01,1.27968e-01,9.99999e-01,1.27968e-01,9.99999e-01
5.699678720e-01,1.33272e-01,9.99999e-01,1.33272e-01,9.99999e-01
5.728177114e-01,1.38684e-01,9.99999e-01,1.38684e-01,9.99999e-01
5.756818000e-01,1.44203e-01,9.99999e-01,1.44203e-01,9.99999e-01
5.785602090e-01,1.49826e-01,9.99999e-01,1.49826e-01,9.99999e-01
5.814530100e-01,1.55550e-01,9.99999e-01,1.55550e-01,9.99999e-01
5.843602750e-01,1.61374e-01,9.99999e-01,1.61374e-01,9.99999e-01
5.872820764e-01,1.67294e-01,9.99999e-01,1.67294e-01,9.99999e-01
5.902184868e-01,1.73308e-01,9.99999e-01,1.73308e-01,9.99999e-01
5.931695792e-01,1.79413e-01,9.99999e-01,1.79413e-01,9.99999e-01
5.961354271e-01,1.85606e-01,9.99999e-01,1.85606e-01,9.99999e-01
5.991161043e-01,1.91884e-01,9.99999e-01,1.91884e-01,9.99999e-01
6.021116848e-01,1.98244e-01,9.99999e-01,1.98244e-01,9.99999e-01
6.051222432e-01,2.04683e-01,9.99999e-01,2.04683e-01,9.99999e-01
6.081478544e-01,2.11198e-01,9.99999e-01,2.11198e-01,9.99999e-01
6.111885937e-01,2.17786e-01,9.99999e-01,2.17786e-01,9.99999e-01
6.142445367e-01,2.24442e-01,9.99999e-01,2.24442e-01,9.99999e-01
6.173157594e-01,2.31165e-01,9.99999e-01,2.31165e-01,9.99999e-01
6.204023382e-01,2.37950e-01,9.99999e-01,2.37950e-01,9.99999e-01
6.235043498e-01,2.44795e-01,9.99999e-01,2.44795e-01,9.99999e-01
6.266218716e-01,2.51695e-01,9.99999e-01,2.51695e-01,9.99999e-01
6.297549810e-01,2.58648e-01,9.99999e-01,2.58648e-01,9.99999e-01
6.329037559e-01,2.65650e-01,9.99999e-01,2.65650e-01,9.99999e-01
6.360682746e-01,2.72697e-01,9.99999e-01,2.72697e-01,9.99999e-01
6.392486160e-01,2.79787e-01,9.99999e-01,2.79787e-01,9.99999e-01
6.424448591e-01,2.86916e-01,9.99999e-01,2.86916e-01,9.99999e-01
6.456570834e-01,2.94080e-01,9.99999e-01,2.94080e-01,9.99999e-01
6.488853688e-01,3.01276e-01,9.99999e-01,3.01276e-01,9.99999e-01
6.521297956e-01,3.08500e-01,9.99999e-01,3.08500e-01,9.99999e-01
6.553904446e-01,3.15751e-01,9.99999e-01,3.15751e-01,9.99999e-01
6.586673968e-01,3.23023e-01,9.99999e-01,3.23023e-01,9.99999e-01
6.619607338e-01,3.30314e-01,9.99999e-01,3.30314e-01,9.99999e-01
6.652705375e-01,3.37621e-01,9.99999e-01,3.37621e-01,9.99999e-01
6.685968902e-01,3.44941e-01,9.99999e-01,3.44941e-01,9.99999e-01
6.719398746e-01,3.52269e-01,9.99999e-01,3.52269e-01,9.99999e-01
6.752995740e-01,3.59605e-01,9.99999e-01,3.59605e-01,9.99999e-01
6.786760719e-01,3.66943e-01,9.99999e-01,3.66943e-01,9.99999e-01
6.820694522e-01,3.74282e-01,9.99999e-01,3.74282e-01,9.99999e-01
6.854797995e-01,3.81618e-01,9.99999e-01,3.81618e-01,9.99999e-01
6.889071985e-01,3.88950e-01,9.99999e-01,3.88950e-01,9.99999e-01
6.923517345e-01,3.96272e-01,9.99999e-01,3.96272e-01,9.99999e-01
6.958134932e-01,4.03584e-01,9.99999e-01,4.03584e-01,9.99999e-01
6.992925606e-01,4.10883e-01,9.99999e-01,4.10883e-01,9.99999e-01
7.027890234e-01,4.18166e-01,9.99999e-01,4.18166e-01,9.99999e-01
7.063029686e-01,4.25429e-01,9.99999e-01,4.25429e-01,9.99999e-01
7.098344834e-01,4.32672e-01,9.99999e-01,4.32672e-01,9.99999e-01
7.133836558e-01,4.39892e-01,9.99999e-01,4.39892e-01,9.99999e-01
7.169505741e-01,4.47086e-01,9.99999e-01,4.47086e-01,9.99999e-01
7.205353270e-01,4.54251e-01,9.99999e-01,4.54251e-01,9.99999e-01
7.241380036e-01,4.61387e-01,9.99999e-01,4.61387e-01,9.99999e-01
7.277586936e-01,4.68491e-01,9.99999e-01,4.68491e-01,9.99999e-01
7.313974871e-01,4.75560e-01,9.99999e-01,4.75560e-01,9.99999e-01
7.350544745e-01,4.82594e-01,9.99999e-01,4.82594e-01,9.99999e-01
7.387297469e-01,4.89589e-01,9.99999e-01,4.89589e-01,9.99999e-01
7.424233956e-01,4.96544e-01,9.99999e-01,4.96544e-01,9.99999e-01
7.461355126e-01,5.03459e-01,9.99999e-01,5.03459e-01,9.99999e-01
7.498661902e-01,5.10329e-01,9.99999e-01,5.10329e-01,9.99999e-01
7.536155211e-01,5.17156e-01,9.99999e-01,5.17156e-01,9.99999e-01
7.573835987e-01,5.23936e-01,9.99999e-01,5.23936e-01,9.99999e-01
7.611705167e-01,5.30668e-01,9.99999e-01,5.30668e-01,9.99999e-01
7.649763693e-01,5.37351e-01,9.99999e-01,5.37351e-01,9.99999e-01
7.688012511e-01,5.43984e-01,9.99999e-01,5.43984e-01,9.99999e-01
7.726452574e-01,5.50566e-01,9.99999e-01,5.50566e-01,9.99999e-01
7.765084837e-01,5.57095e-01,9.99999e-01,5.57095e-01,9.99999e-01
7.803910261e-01,5.47651e-01,9.71754e-01,5.63569e-01,9.99999e-01
7.842929812e-01,5.04742e-01,8.85527e-01,5.69989e-01,9.99999e-01
7.882144461e-01,5.05648e-01,8.77321e-01,5.76354e-01,9.99999e-01
7.921555184e-01,5.40075e-01,9.26910e-01,5.82661e-01,9.99999e-01
7.961162960e-01,5.59897e-01,9.50732e-01,5.88911e-01,9.99999e-01
8.000968774e-01,5.79012e-01,9.72961e-01,5.95102e-01,9.99999e-01
8.040973618e-01,5.92781e-01,9.85939e-01,6.01235e-01,9.99999e-01
8.081178486e-01,6.03364e-01,9.93507e-01,6.07307e-01,9.99999e-01
8.121584379e-01,6.12094e-01,9.98001e-01,6.13319e-01,9.99999e-01
8.162192301e-01,6.18997e-01,9.99558e-01,6.19271e-01,9.99999e-01
8.203003262e-01,6.25156e-01,9.99993e-01,6.25160e-01,9.99999e-01
8.244018279e-01,6.30988e-01,9.99999e-01,6.30988e-01,9.99999e-01
8.285238370e-01,6.36753e-01,9.99999e-01,6.36753e-01,9.99999e-01
8.326664562e-01,6.42456e-01,9.99999e-01,6.42456e-01,9.99999e-01
8.368297885e-01,6.48095e-01,9.99999e-01,6.48095e-01,9.99999e-01
8.410139374e-01,6.53671e-01,9.99999e-01,6.53671e-01,9.99999e-01
8.452190071e-01,6.59183e-01,9.99999e-01,6.59183e-01,9.99999e-01
8.494451021e-01,6.64632e-01,9.99999e-01,6.64632e-01,9.99999e-01
8.536923276e-01,6.70017e-01,9.99999e-01,6.70017e-01,9.99999e-01
8.579607893e-01,6.75338e-01,9.99999e-01,6.75338e-01,9.99999e-01
8.622505932e-01,6.80595e-01,9.99999e-01,6.80595e-01,9.99999e-01
8.665618462e-01,6.40345e-01,9.33737e-01,6.85787e-01,9.99999e-01
8.708946554e-01,5.06036e-01,7.32413e-01,6.90916e-01,9.99999e-01
8.752491287e-01,5.42478e-01,7.79444e-01,6.95980e-01,9.99999e-01
8.796253743e-01,6.11692e-01,8.72622e-01,7.00980e-01,9.99999e-01
8.840235012e-01,6.57852e-01,9.31910e-01,7.05917e-01,9.99999e-01
8.884436187e-01,6.91365e-01,9.72671e-01,7.10789e-01,9.99999e-01
8.928858368e-01,7.07609e-01,9.88834e-01,7.15599e-01,9.99999e-01
8.973502660e-01,7.18390e-01,9.97286e-01,7.20344e-01,9.99999e-01
9.018370173e-01,7.24810e-01,9.99700e-01,7.25027e-01,9.99999e-01
9.063462024e-01,7.23946e-01,9.92186e-01,7.29646e-01,9.99999e-01
9.108779334e-01,7.21290e-01,9.82411e-01,7.34203e-01,9.99999e-01
9.154323231e-01,7.35647e-01,9.95869e-01,7.38698e-01,9.99999e-01
9.200094847e-01,6.98478e-01,9.39912e-01,7.43130e-01,9.99999e-01
9.246095321e-01,6.85235e-01,9.16701e-01,7.47501e-01,9.99999e-01
9.292325798e-01,7.01893e-01,9.33604e-01,7.51810e-01,9.99999e-01
9.338787427e-01,7.07813e-01,9.36188e-01,7.56058e-01,9.99999e-01
9.385481364e-01,7.24308e-01,9.52727e-01,7.60246e-01,9.99999e-01
9.432408771e-01,7.42094e-01,9.70852e-01,7.64373e-01,9.99999e-01
9.479570815e-01,7.56856e-01,9.84923e-01,7.68441e-01,9.99999e-01
9.526968669e-01,7.66820e-01,9.92711e-01,7.72449e-01,9.99999e-01
9.574603512e-01,7.73976e-01,9.96879e-01,7.76399e-01,9.99999e-01
9.622476530e-01,7.79530e-01,9.99026e-01,7.80290e-01,9.99999e-01
9.670588912e-01,7.83894e-01,9.99708e-01,7.84123e-01,9.99999e-01
9.718941857e-01,7.87882e-01,9.99979e-01,7.87898e-01,9.99999e-01
9.767536566e-01,7.91617e-01,9.99999e-01,7.91617e-01,9.99999e-01
9.816374249e-01,7.95279e-01,9.99999e-01,7.95279e-01,9.99999e-01
9.865456120e-01,7.98886e-01,9.99999e-01,7.98886e-01,9.99999e-01
9.914783401e-01,8.02437e-01,9.99999e-01,8.02437e-01,9.99999e-01
9.964357318e-01,8.05933e-01,9.99999e-01,8.05933e-01,9.99999e-01
1.001417910e+00,8.09375e-01,9.99999e-01,8.09375e-01,9.99999e-01
1.006425000e+00,8.12763e-01,9.99999e-01,8.12763e-01,9.99999e-01
1.011457125e+00,8.16098e-01,9.99999e-01,8.16098e-01,9.99999e-01
1.016514411e+00,8.19381e-01,9.99999e-01,8.19381e-01,9.99999e-01
1.021596983e+00,8.22575e-01,9.99955e-01,8.22611e-01,9.99999e-01
1.026704968e+00,8.23268e-01,9.96945e-01,8.25790e-01,9.99999e-01
1.031838492e+00,7.95932e-01,9.60205e-01,8.28918e-01,9.99999e-01
1.036997685e+00,1.54269e-01,1.85420e-01,8.31996e-01,9.99999e-01
1.042182673e+00,1.48416e-01,1.77738e-01,8.35024e-01,9.99999e-01
1.047393587e+00,1.58403e-01,1.89024e-01,8.38003e-01,9.99999e-01
1.052630555e+00,8.21369e-03,9.76733e-03,8.40934e-01,9.99999e-01
1.057893707e+00,1.90730e-02,2.26032e-02,8.43816e-01,9.99999e-01
1.063183176e+00,5.24619e-02,6.19639e-02,8.46652e-01,9.99999e-01
1.068499092e+00,1.25684e-01,1.47961e-01,8.49440e-01,9.99999e-01
1.073841587e+00,2.55596e-01,2.99931e-01,8.52182e-01,9.99999e-01
1.079210795e+00,3.99004e-01,4.66737e-01,8.54879e-01,9.99999e-01
1.084606849e+00,5.64712e-01,6.58532e-01,8.57531e-01,9.99999e-01
1.090029883e+00,6.92502e-01,8.05105e-01,8.60138e-01,9.99999e-01
1.095480033e+00,7.75409e-01,8.98813e-01,8.62702e-01,9.99999e-01
1.100957433e+00,8.21891e-01,9.49918e-01,8.65222e-01,9.99999e-01
1.106462220e+00,8.49479e-01,9.79000e-01,8.67700e-01,9.99999e-01
1.111994531e+00,8.63319e-01,9.92165e-01,8.70135e-01,9.99999e-01
1.117554504e+00,8.70861e-01,9.98087e-01,8.72529e-01,9.99999e-01
1.123142276e+00,8.74773e-01,9.99874e-01,8.74883e-01,9.99999e-01
1.128757988e+00,8.77196e-01,9.99999e-01,8.77196e-01,9.99999e-01
1.134401778e+00,8.79469e-01,9.99999e-01,8.79469e-01,9.99999e-01
1.140073787e+00,8.81703e-01,9.99999e-01,8.81703e-01,9.99999e-01
1.145774156e+00,8.83898e-01,9.99999e-01,8.83898e-01,9.99999e-01
1.151503026e+00,8.86055e-01,9.99999e-01,8.86055e-01,9.99999e-01
1.157260541e+00,8.88175e-01,9.99999e-01,8.88175e-01,9.99999e-01
1.163046844e+00,8.90258e-01,9.99999e-01,8.90258e-01,9.99999e-01
1.168862078e+00,8.92305e-01,9.99999e-01,8.92305e-01,9.99999e-01
1.174706389e+00,8.94315e-01,9.99999e-01,8.94315e-01,9.99999e-01
1.180579921e+00,8.96290e-01,9.99999e-01,8.96290e-01,9.99999e-01
1.186482820e+00,8.98225e-01,9.99993e-01,8.98231e-01,9.99999e-01
1.192415234e+00,8.90304e-01,9.89074e-01,9.00137e-01,9.99999e-01
1.198377311e+00,5.11269e-01,5.66810e-01,9.02010e-01,9.99999e-01
1.204369197e+00,1.86777e-09,2.06646e-09,9.03849e-01,9.99999e-01
1.210391043e+00,3.31447e-33,3.65974e-33,9.05656e-01,9.99999e-01
1.216442998e+00,5.85200e-29,6.44898e-29,9.07430e-01,9.99999e-01
1.222525213e+00,1.50842e-28,1.65911e-28,9.09173e-01,9.99999e-01
1.228637839e+00,4.30206e-22,4.72294e-22,9.10884e-01,9.99999e-01
1.234781029e+00,1.44578e-14,1.58430e-14,9.12565e-01,9.99999e-01
1.240954934e+00,7.44198e-10,8.14028e-10,9.14216e-01,9.99999e-01
1.247159708e+00,1.08245e-05,1.18192e-05,9.15837e-01,9.99999e-01
1.253395507e+00,1.26859e-03,1.38276e-03,9.17429e-01,9.99999e-01
1.259662485e+00,2.12470e-02,2.31199e-02,9.18992e-01,9.99999e-01
1.265960797e+00,1.03946e-01,1.12920e-01,9.20527e-01,9.99999e-01
1.272290601e+00,3.70033e-01,4.01322e-01,9.22034e-01,9.99999e-01
1.278652054e+00,3.16951e-01,3.43201e-01,9.23513e-01,9.99999e-01
1.285045314e+00,8.95100e-03,9.67711e-03,9.24966e-01,9.99999e-01
1.291470541e+00,1.35496e-04,1.46262e-04,9.26392e-01,9.99999e-01
1.297927893e+00,1.78046e-02,1.91902e-02,9.27792e-01,9.99999e-01
1.304417533e+00,1.76588e-01,1.90049e-01,9.29166e-01,9.99999e-01
1.310939621e+00,2.99749e-02,3.22132e-02,9.30516e-01,9.99999e-01
1.317494319e+00,6.08292e-12,6.52785e-12,9.31840e-01,9.99999e-01
1.324081790e+00,2.20912e-08,2.36740e-08,9.33141e-01,9.99999e-01
1.330702199e+00,5.88422e-05,6.29720e-05,9.34417e-01,9.99999e-01
1.337355710e+00,6.03408e-05,6.44894e-05,9.35670e-01,9.99999e-01
1.344042489e+00,1.74684e-05,1.86449e-05,9.36899e-01,9.99999e-01
1.350762701e+00,3.94295e-05,4.20309e-05,9.38106e-01,9.99999e-01
1.357516515e+00,1.39189e-03,1.48185e-03,9.39291e-01,9.99999e-01
1.364304097e+00,1.43623e-02,1.52717e-02,9.40454e-01,9.99999e-01
1.371125618e+00,1.05571e-01,1.12119e-01,9.41595e-01,9.99999e-01
1.377981246e+00,1.58716e-01,1.68360e-01,9.42715e-01,9.99999e-01
1.384871152e+00,3.34802e-01,3.54732e-01,9.43814e-01,9.99999e-01
1.391795508e+00,3.62799e-01,3.83958e-01,9.44893e-01,9.99999e-01
1.398754485e+00,5.24316e-01,5.54274e-01,9.45951e-01,9.99999e-01
1.405748258e+00,6.13242e-01,6.47569e-01,9.46990e-01,9.99999e-01
1.412776999e+00,7.20643e-01,7.60164e-01,9.48009e-01,9.99999e-01
1.419840884e+00,6.50976e-01,6.85952e-01,9.49009e-01,9.99999e-01
1.426940089e+00,6.85297e-02,7.21372e-02,9.49991e-01,9.99999e-01
1.434074789e+00,0.00000e+00,0.00000e+00,9.50954e-01,9.99999e-01
1.441245163e+00,0.00000e+00,0.00000e+00,9.51899e-01,9.99999e-01
1.448451389e+00,0.00000e+00,0.00000e+00,9.52827e-01,9.99999e-01
1.455693646e+00,1.67328e-263,1.75445e-263,9.53736e-01,9.99999e-01
1.462972114e+00,6.65262e-128,6.96879e-128,9.54629e-01,9.99999e-01
1.470286975e+00,5.93251e-54,6.20876e-54,9.55505e-01,9.99999e-01
1.477638409e+00,1.85464e-34,1.93926e-34,9.56365e-01,9.99999e-01
1.485026601e+00,9.25690e-20,9.67072e-20,9.57208e-01,9.99999e-01
1.492451734e+00,7.67501e-17,8.01119e-17,9.58035e-01,9.99999e-01
1.499913993e+00,3.98090e-08,4.15176e-08,9.58847e-01,9.99999e-01
1.507413563e+00,5.67624e-07,5.91494e-07,9.59643e-01,9.99999e-01
1.514950631e+00,2.30683e-08,2.40189e-08,9.60424e-01,9.99999e-01
1.522525384e+00,6.33072e-25,6.58632e-25,9.61190e-01,9.99999e-01
1.530138011e+00,1.94220e-57,2.01904e-57,9.61942e-01,9.99999e-01
1.537788701e+00,7.15642e-43,7.43385e-43,9.62680e-01,9.99999e-01
1.545477645e+00,3.18230e-10,3.30318e-10,9.63403e-01,9.99999e-01
1.553205033e+00,4.56726e-07,4.73727e-07,9.64113e-01,9.99999e-01
1.560971058e+00,1.21654e-07,1.26091e-07,9.64809e-01,9.99999e-01
1.568775913e+00,2.06528e-143,2.13910e-143,9.65492e-01,9.99999e-01
1.576619793e+00,0.00000e+00,0.00000e+00,9.66162e-01,9.99999e-01
1.584502892e+00,4.10387e-183,4.24471e-183,9.66819e-01,9.99999e-01
1.592425406e+00,6.63461e-128,6.85773e-128,9.67464e-01,9.99999e-01
1.600387533e+00,1.53995e-205,1.59070e-205,9.68096e-01,9.99999e-01
1.608389471e+00,0.00000e+00,0.00000e+00,9.68716e-01,9.99999e-01
1.616431418e+00,0.00000e+00,0.00000e+00,9.69324e-01,9.99999e-01
1.624513575e+00,3.12432e-162,3.22121e-162,9.69921e-01,9.99999e-01
1.632636143e+00,8.88259e-121,9.15252e-121,9.70506e-01,9.99999e-01
1.640799324e+00,4.29989e-50,4.42794e-50,9.71080e-01,9.99999e-01
1.649003321e+00,4.45261e-50,4.58255e-50,9.71644e-01,9.99999e-01
1.657248337e+00,5.42880e-39,5.58405e-39,9.72196e-01,9.99999e-01
1.665534579e+00,2.97705e-39,3.06048e-39,9.72737e-01,9.99999e-01
1.673862252e+00,1.79002e-25,1.83918e-25,9.73269e-01,9.99999e-01
1.682231563e+00,4.58263e-18,4.70597e-18,9.73790e-01,9.99999e-01
1.690642721e+00,1.12777e-10,1.15752e-10,9.74301e-01,9.99999e-01
1.699095934e+00,5.86880e-07,6.02051e-07,9.74802e-01,9.99999e-01
1.707591414e+00,4.74927e-04,4.86958e-04,9.75293e-01,9.99999e-01
1.716129371e+00,1.41714e-02,1.45232e-02,9.75775e-01,9.99999e-01
1.724710018e+00,9.79218e-02,1.00304e-01,9.76248e-01,9.99999e-01
1.733333568e+00,2.20405e-01,2.25660e-01,9.76712e-01,9.99999e-01
1.742000236e+00,3.94650e-01,4.03871e-01,9.77166e-01,9.99999e-01
1.750710237e+00,1.47882e-02,1.51268e-02,9.77612e-01,9.99999e-01
1.759463788e+00,2.60589e-24,2.66437e-24,9.78050e-01,9.99999e-01
1.768261107e+00,1.42513e-25,1.45647e-25,9.78478e-01,9.99999e-01
1.777102413e+00,1.85385e-24,1.89381e-24,9.78899e-01,9.99999e-01
1.785987925e+00,2.25819e-23,2.30589e-23,9.79311e-01,9.99999e-01
1.794917864e+00,3.22809e-22,3.29492e-22,9.79716e-01,9.99999e-01
1.803892454e+00,1.19135e-21,1.21552e-21,9.80113e-01,9.99999e-01
1.812911916e+00,1.13019e-20,1.15267e-20,9.80501e-01,9.99999e-01
1.821976476e+00,7.57004e-21,7.71757e-21,9.80883e-01,9.99999e-01
1.831086358e+00,5.05655e-17,5.15313e-17,9.81257e-01,9.99999e-01
1.840241790e+00,1.89022e-14,1.92560e-14,9.81624e-01,9.99999e-01
1.849442999e+00,3.69700e-10,3.76482e-10,9.81983e-01,9.99999e-01
1.858690214e+00,2.45678e-09,2.50095e-09,9.82336e-01,9.99999e-01
1.867983665e+00,3.70243e-10,3.76767e-10,9.82682e-01,9.99999e-01
1.877323583e+00,1.84286e-45,1.87469e-45,9.83021e-01,9.99999e-01
