#,Wave/freq,Total,CO2,Rayleigh,CIA
4.000000000e-01,1.38072e-14,9.99999e-01,1.38072e-14,9.99999e-01
4.020000000e-01,2.59507e-14,9.99999e-01,2.59507e-14,9.99999e-01
4.040100000e-01,4.81397e-14,9.99999e-01,4.81397e-14,9.99999e-01
4.060300500e-01,8.82180e-14,9.99999e-01,8.82180e-14,9.99999e-01
4.080602003e-01,1.59740e-13,9.99999e-01,1.59740e-13,9.99999e-01
4.101005013e-01,2.85877e-13,9.99999e-01,2.85877e-13,9.99999e-01
4.121510038e-01,5.05767e-13,9.99999e-01,5.05767e-13,9.99999e-01
4.142117588e-01,8.84765e-13,9.99999e-01,8.84765e-13,9.99999e-01
4.162828176e-01,1.53076e-12,9.99999e-01,1.53076e-12,9.99999e-01
4.183642317e-01,2.61990e-12,9.99999e-01,2.61990e-12,9.99999e-01
4.204560528e-01,4.43663e-12,9.99999e-01,4.43663e-12,9.99999e-01
4.225583331e-01,7.43535e-12,9.99999e-01,7.43535e-12,9.99999e-01
4.246711247e-01,1.23345e-11,9.99999e-01,1.23345e-11,9.99999e-01
4.267944804e-01,2.02581e-11,9.99999e-01,2.02581e-11,9.99999e-01
4.289284528e-01,3.29473e-11,9.99999e-01,3.29473e-11,9.99999e-01
4.310730950e-01,5.30724e-11,9.99999e-01,5.30724e-11,9.99999e-01
4.332284605e-01,8.46892e-11,9.99999e-01,8.46892e-11,9.99999e-01
4.353946028e-01,1.33899e-10,9.99999e-01,1.33899e-10,9.99999e-01
4.375715758e-01,2.09797e-10,9.99999e-01,2.09797e-10,9.99999e-01
4.397594337e-01,3.25812e-10,9.99999e-01,3.25812e-10,9.99999e-01
4.419582309e-01,5.01603e-10,9.99999e-01,5.01603e-10,9.99999e-01
4.441680220e-01,7.65686e-10,9.99999e-01,7.65686e-10,9.99999e-01
4.463888621e-01,1.15908e-09,9.99999e-01,1.15908e-09,9.99999e-01
4.486208064e-01,1.74028e-09,9.99999e-01,1.74028e-09,9.99999e-01
4.508639105e-01,2.59202e-09,9.99999e-01,2.59202e-09,9.99999e-01
4.531182300e-01,3.83037e-09,9.99999e-01,3.83037e-09,9.99999e-01
4.553838212e-01,5.61684e-09,9.99999e-01,5.61684e-09,9.99999e-01
4.576607403e-01,8.17448e-09,9.99999e-01,8.17448e-09,9.99999e-01
4.599490440e-01,1.18089e-08,9.99999e-01,1.18089e-08,9.99999e-01
4.622487892e-01,1.69357e-08,9.99999e-01,1.69357e-08,9.99999e-01
4.645600332e-01,2.41159e-08,9.99999e-01,2.41159e-08,9.99999e-01
4.668828333e-01,3.41013e-08,9.99999e-01,3.41013e-08,9.99999e-01
4.692172475e-01,4.78925e-08,9.99999e-01,4.78925e-08,9.99999e-01
4.715633337e-01,6.68114e-08,9.99999e-01,6.68114e-08,9.99999e-01
4.739211504e-01,9.25929e-08,9.99999e-01,9.25929e-08,9.99999e-01
4.762907561e-01,1.27499e-07,9.99999e-01,1.27499e-07,9.99999e-01
4.786722099e-01,1.74457e-07,9.99999e-01,1.74457e-07,9.99999e-01
4.810655710e-01,2.37237e-07,9.99999e-01,2.37237e-07,9.99999e-01
4.834708988e-01,3.20655e-07,9.99999e-01,3.20655e-07,9.99999e-01
4.858882533e-01,4.30834e-07,9.99999e-01,4.30834e-07,9.99999e-01
4.883176946e-01,5.75504e-07,9.99999e-01,5.75504e-07,9.99999e-01
4.907592831e-01,7.64369e-07,9.99999e-01,7.64369e-07,9.99999e-01
4.932130795e-01,1.00954e-06,9.99999e-01,1.00954e-06,9.99999e-01
4.956791449e-01,1.32604e-06,9.99999e-01,1.32604e-06,9.99999e-01
4.981575406e-01,1.73241e-06,9.99999e-01,1.73241e-06,9.99999e-01
5.006483283e-01,2.25139e-06,9.99999e-01,2.25139e-06,9.99999e-01
5.031515699e-01,2.91075e-06,9.99999e-01,2.91075e-06,9.99999e-01
5.056673278e-01,3.74416e-06,9.99999e-01,3.74416e-06,9.99999e-01
5.081956644e-01,4.79230e-06,9.99999e-01,4.79230e-06,9.99999e-01
5.107366428e-01,6.10402e-06,9.99999e-01,6.10402e-06,9.99999e-01
5.132903260e-01,7.73772e-06,9.99999e-01,7.73772e-06,9.99999e-01
5.158567776e-01,9.76283e-06,9.99999e-01,9.76283e-06,9.99999e-01
5.184360615e-01,1.22615e-05,9.99999e-01,1.22615e-05,9.99999e-01
5.210282418e-01,1.53305e-05,9.99999e-01,1.53305e-05,9.99999e-01
5.236333830e-01,1.90833e-05,9.99999e-01,1.90833e-05,9.99999e-01
5.262515499e-01,2.36523e-05,9.99999e-01,2.36523e-05,9.99999e-01
5.288828077e-01,2.91911e-05,9.99999e-01,2.91911e-05,9.99999e-01
5.315272217e-01,3.58776e-05,9.99999e-01,3.58776e-05,9.99999e-01
5.341848578e-01,4.39164e-05,9.99999e-01,4.39164e-05,9.99999e-01
5.368557821e-01,5.35421e-05,9.99999e-01,5.35421e-05,9.99999e-01
5.395400610e-01,6.50226e-05,9.99999e-01,6.50226e-05,9.99999e-01
5.422377613e-01,7.86623e-05,9.99999e-01,7.86623e-05,9.99999e-01
5.449489501e-01,9.48059e-05,9.99999e-01,9.48059e-05,9.99999e-01
5.476736949e-01,1.13842e-04,9.99999e-01,1.13842e-04,9.99999e-01
5.504120634e-01,1.36207e-04,9.99999e-01,1.36207e-04,9.99999e-01
5.531641237e-01,1.62390e-04,9.99999e-01,1.62390e-04,9.99999e-01
5.559299443e-01,1.92935e-04,9.99999e-01,1.92935e-04,9.99999e-01
5.587095940e-01,2.28446e-04,9.99999e-01,2.28446e-04,9.99999e-01
5.615031420e-01,2.69591e-04,9.99999e-01,2.69591e-04,9.99999e-01
5.643106577e-01,3.17109e-04,9.99999e-01,3.17109e-04,9.99999e-01
5.671322110e-01,3.71808e-04,9.99999e-01,3.71808e-04,9.99999e-01
5.699678720e-01,4.34573e-04,9.99999e-01,4.34573e-04,9.99999e-01
5.728177114e-01,5.06372e-04,9.99999e-01,5.06372e-04,9.99999e-01
5.756818000e-01,5.88253e-04,9.99999e-01,5.88253e-04,9.99999e-01
5.785602090e-01,6.81355e-04,9.99999e-01,6.81355e-04,9.99999e-01
5.814530100e-01,7.86905e-04,9.99999e-01,7.86905e-04,9.99999e-01
5.843602750e-01,9.06224e-04,9.99999e-01,9.06224e-04,9.99999e-01
5.872820764e-01,1.04073e-03,9.99999e-01,1.04073e-03,9.99999e-01
5.902184868e-01,1.19193e-03,9.99999e-01,1.19193e-03,9.99999e-01
5.931695792e-01,1.36146e-03,9.99999e-01,1.36146e-03,9.99999e-01
5.961354271e-01,1.55101e-03,9.99999e-01,1.55101e-03,9.99999e-01
5.991161043e-01,1.76241e-03,9.99999e-01,1.76241e-03,9.99999e-01
6.021116848e-01,1.99757e-03,9.99999e-01,1.99757e-03,9.99999e-01
6.051222432e-01,2.25852e-03,9.99999e-01,2.25852e-03,9.99999e-01
6.081478544e-01,2.54738e-03,9.99999e-01,2.54738e-03,9.99999e-01
6.111885937e-01,2.86635e-03,9.99999e-01,2.86635e-03,9.99999e-01
6.142445367e-01,3.21776e-03,9.99999e-01,3.21776e-03,9.99999e-01
6.173157594e-01,3.60400e-03,9.99999e-01,3.60400e-03,9.99999e-01
6.204023382e-01,4.02758e-03,9.99999e-01,4.02758e-03,9.99999e-01
6.235043498e-01,4.49108e-03,9.99999e-01,4.49108e-03,9.99999e-01
6.266218716e-01,4.99716e-03,9.99999e-01,4.99716e-03,9.99999e-01
6.297549810e-01,5.54854e-03,9.99999e-01,5.54854e-03,9.99999e-01
6.329037559e-01,6.14804e-03,9.99999e-01,6.14804e-03,9.99999e-01
6.360682746e-01,6.79853e-03,9.99999e-01,6.79853e-03,9.99999e-01
6.392486160e-01,7.50291e-03,9.99999e-01,7.50291e-03,9.99999e-01
6.424448591e-01,8.26417e-03,9.99999e-01,8.26417e-03,9.99999e-01
6.456570834e-01,9.08531e-03,9.99999e-01,9.08531e-03,9.99999e-01
6.488853688e-01,9.96937e-03,9.99999e-01,9.96937e-03,9.99999e-01
6.521297956e-01,1.09194e-02,9.99999e-01,1.09194e-02,9.99999e-01
6.553904446e-01,1.19385e-02,9.99999e-01,1.19385e-02,9.99999e-01
6.586673968e-01,1.30297e-02,9.99999e-01,1.30297e-02,9.99999e-01
6.619607338e-01,1.41961e-02,9.99999e-01,1.41961e-02,9.99999e-01
6.652705375e-01,1.54407e-02,9.99999e-01,1.54407e-02,9.99999e-01
6.685968902e-01,1.67667e-02,9.99999e-01,1.67667e-02,9.99999e-01
6.719398746e-01,1.81768e-02,9.99999e-01,1.81768e-02,9.99999e-01
6.752995740e-01,1.96742e-02,9.99999e-01,1.96742e-02,9.99999e-01
6.786760719e-01,2.12616e-02,9.99999e-01,2.12616e-02,9.99999e-01
6.820694522e-01,2.29420e-02,9.99999e-01,2.29420e-02,9.99999e-01
6.854797995e-01,2.47180e-02,9.99999e-01,2.47180e-02,9.99999e-01
6.889071985e-01,2.65922e-02,9.99999e-01,2.65922e-02,9.99999e-01
6.923517345e-01,2.85673e-02,9.99999e-01,2.85673e-02,9.99999e-01
6.958134932e-01,3.06457e-02,9.99999e-01,3.06457e-02,9.99999e-01
6.992925606e-01,3.28298e-02,9.99999e-01,3.28298e-02,9.99999e-01
7.027890234e-01,3.51217e-02,9.99999e-01,3.51217e-02,9.99999e-01
7.063029686e-01,3.75235e-02,9.99999e-01,3.75235e-02,9.99999e-01
7.098344834e-01,4.00373e-02,9.99999e-01,4.00373e-02,9.99999e-01
7.133836558e-01,4.26648e-02,9.99999e-01,4.26648e-02,9.99999e-01
7.169505741e-01,4.54076e-02,9.99999e-01,4.54076e-02,9.99999e-01
7.205353270e-01,4.82674e-02,9.99999e-01,4.82674e-02,9.99999e-01
7.241380036e-01,5.12454e-02,9.99999e-01,5.12454e-02,9.99999e-01
7.277586936e-01,5.43429e-02,9.99999e-01,5.43429e-02,9.99999e-01
7.313974871e-01,5.75608e-02,9.99999e-01,5.75608e-02,9.99999e-01
7.350544745e-01,6.09000e-02,9.99999e-01,6.09000e-02,9.99999e-01
7.387297469e-01,6.43612e-02,9.99999e-01,6.43612e-02,9.99999e-01
7.424233956e-01,6.79449e-02,9.99999e-01,6.79449e-02,9.99999e-01
7.461355126e-01,7.16514e-02,9.99999e-01,7.16514e-02,9.99999e-01
7.498661902e-01,7.54808e-02,9.99999e-01,7.54808e-02,9.99999e-01
7.536155211e-01,7.94332e-02,9.99999e-01,7.94332e-02,9.99999e-01
7.573835987e-01,8.35083e-02,9.99999e-01,8.35083e-02,9.99999e-01
7.611705167e-01,8.77058e-02,9.99999e-01,8.77058e-02,9.99999e-01
7.649763693e-01,9.20250e-02,9.99999e-01,9.20250e-02,9.99999e-01
7.688012511e-01,9.64654e-02,9.99999e-01,9.64654e-02,9.99999e-01
7.726452574e-01,1.01026e-01,9.99999e-01,1.01026e-01,9.99999e-01
7.765084837e-01,1.05705e-01,9.99999e-01,1.05705e-01,9.99999e-01
7.803910261e-01,1.00673e-01,9.11045e-01,1.10503e-01,9.99999e-01
7.842929812e-01,7.44682e-02,6.45209e-01,1.15417e-01,9.99999e-01
7.882144461e-01,7.56074e-02,6.27728e-01,1.20446e-01,9.99999e-01
7.921555184e-01,9.43317e-02,7.51118e-01,1.25588e-01,9.99999e-01
7.961162960e-01,1.07945e-01,8.25005e-01,1.30842e-01,9.99999e-01
8.000968774e-01,1.22676e-01,9.00671e-01,1.36205e-01,9.99999e-01
8.040973618e-01,1.34218e-01,9.47362e-01,1.41676e-01,9.99999e-01
8.081178486e-01,1.43624e-01,9.75363e-01,1.47251e-01,9.99999e-01
8.121584379e-01,1.51768e-01,9.92404e-01,1.52930e-01,9.99999e-01
8.162192301e-01,1.58441e-01,9.98316e-01,1.58709e-01,9.99999e-01
8.203003262e-01,1.64581e-01,9.99976e-01,1.64585e-01,9.99999e-01
8.244018279e-01,1.70557e-01,9.99999e-01,1.70557e-01,9.99999e-01
8.285238370e-01,1.76621e-01,9.99999e-01,1.76621e-01,9.99999e-01
8.326664562e-01,1.82774e-01,9.99999e-01,1.82774e-01,9.99999e-01
8.368297885e-01,1.89014e-01,9.99999e-01,1.89014e-01,9.99999e-01
8.410139374e-01,1.95337e-01,9.99999e-01,1.95337e-01,9.99999e-01
8.452190071e-01,2.01740e-01,9.99999e-01,2.01740e-01,9.99999e-01
8.494451021e-01,2.08221e-01,9.99999e-01,2.08221e-01,9.99999e-01
8.536923276e-01,2.14776e-01,9.99999e-01,2.14776e-01,9.99999e-01
8.579607893e-01,2.21402e-01,9.99999e-01,2.21402e-01,9.99999e-01
8.622505932e-01,2.28095e-01,9.99999e-01,2.28095e-01,9.99999e-01
8.665618462e-01,2.03164e-01,8.65072e-01,2.34852e-01,9.99999e-01
8.708946554e-01,8.17777e-02,3.38386e-01,2.41670e-01,9.99999e-01
8.752491287e-01,1.01134e-01,4.06903e-01,2.48545e-01,9.99999e-01
8.796253743e-01,1.54143e-01,6.03361e-01,2.55474e-01,9.99999e-01
8.840235012e-01,2.01005e-01,7.65866e-01,2.62454e-01,9.99999e-01
8.884436187e-01,2.42526e-01,8.99972e-01,2.69481e-01,9.99999e-01
8.928858368e-01,2.64942e-01,9.58017e-01,2.76552e-01,9.99999e-01
8.973502660e-01,2.80740e-01,9.89691e-01,2.83663e-01,9.99999e-01
9.018370173e-01,2.90481e-01,9.98862e-01,2.90812e-01,9.99999e-01
9.063462024e-01,2.89264e-01,9.70705e-01,2.97994e-01,9.99999e-01
9.108779334e-01,2.85222e-01,9.34522e-01,3.05206e-01,9.99999e-01
9.154323231e-01,3.07567e-01,9.84386e-01,3.12445e-01,9.99999e-01
9.200094847e-01,2.60056e-01,8.13419e-01,3.19707e-01,9.99999e-01
9.246095321e-01,2.35107e-01,7.19001e-01,3.26990e-01,9.99999e-01
9.292325798e-01,2.58661e-01,7.73761e-01,3.34291e-01,9.99999e-01
9.338787427e-01,2.66424e-01,7.79917e-01,3.41605e-01,9.99999e-01
9.385481364e-01,2.90239e-01,8.31797e-01,3.48930e-01,9.99999e-01
9.432408771e-01,3.18176e-01,8.93093e-01,3.56262e-01,9.99999e-01
9.479570815e-01,3.43049e-01,9.43478e-01,3.63600e-01,9.99999e-01
9.526968669e-01,3.60709e-01,9.72420e-01,3.70939e-01,9.99999e-01
9.574603512e-01,3.73780e-01,9.88112e-01,3.78277e-01,9.99999e-01
9.622476530e-01,3.84177e-01,9.96280e-01,3.85611e-01,9.99999e-01
9.670588912e-01,3.92500e-01,9.98886e-01,3.92938e-01,9.99999e-01
9.718941857e-01,4.00224e-01,9.99922e-01,4.00255e-01,9.99999e-01
9.767536566e-01,4.07560e-01,9.99999e-01,4.07560e-01,9.99999e-01
9.816374249e-01,4.14850e-01,9.99999e-01,4.14850e-01,9.99999e-01
9.865456120e-01,4.22123e-01,9.99999e-01,4.22123e-01,9.99999e-01
9.914783401e-01,4.29375e-01,9.99999e-01,4.29375e-01,9.99999e-01
9.964357318e-01,4.36606e-01,9.99999e-01,4.36606e-01,9.99999e-01
1.001417910e+00,4.43812e-01,9.99999e-01,4.43812e-01,9.99999e-01
1.006425000e+00,4.50991e-01,9.99999e-01,4.50991e-01,9.99999e-01
1.011457125e+00,4.58140e-01,9.99999e-01,4.58140e-01,9.99999e-01
1.016514411e+00,4.65259e-01,9.99999e-01,4.65259e-01,9.99999e-01
1.021596983e+00,4.72259e-01,9.99818e-01,4.72344e-01,9.99999e-01
1.026704968e+00,4.73776e-01,9.88280e-01,4.79394e-01,9.99999e-01
1.031838492e+00,4.38613e-01,9.01740e-01,4.86407e-01,9.99999e-01
1.036997685e+00,2.50604e-02,5.07931e-02,4.93381e-01,9.99999e-01
1.042182673e+00,1.88638e-03,3.77040e-03,5.00314e-01,9.99999e-01
1.047393587e+00,4.73178e-03,9.32912e-03,5.07205e-01,9.99999e-01
1.052630555e+00,6.37087e-07,1.23934e-06,5.14052e-01,9.99999e-01
1.057893707e+00,2.45220e-06,4.70805e-06,5.20853e-01,9.99999e-01
1.063183176e+00,5.97646e-05,1.13275e-04,5.27607e-01,9.99999e-01
1.068499092e+00,5.78800e-04,1.08326e-03,5.34313e-01,9.99999e-01
1.073841587e+00,6.69972e-03,1.23847e-02,5.40969e-01,9.99999e-01
1.079210795e+00,3.47763e-02,6.35097e-02,5.47574e-01,9.99999e-01
1.084606849e+00,1.16210e-01,2.09717e-01,5.54127e-01,9.99999e-01
1.090029883e+00,2.47188e-01,4.40914e-01,5.60626e-01,9.99999e-01
1.095480033e+00,3.78384e-01,6.67259e-01,5.67072e-01,9.99999e-01
1.100957433e+00,4.71382e-01,8.21994e-01,5.73461e-01,9.99999e-01
1.106462220e+00,5.34644e-01,9.22126e-01,5.79795e-01,9.99999e-01
1.111994531e+00,5.68699e-01,9.70358e-01,5.86071e-01,9.99999e-01
1.117554504e+00,5.87977e-01,9.92719e-01,5.92289e-01,9.99999e-01
1.123142276e+00,5.98164e-01,9.99523e-01,5.98448e-01,9.99999e-01
1.128757988e+00,6.04548e-01,9.99999e-01,6.04548e-01,9.99999e-01
1.134401778e+00,6.10588e-01,9.99999e-01,6.10588e-01,9.99999e-01
1.140073787e+00,6.16567e-01,9.99999e-01,6.16567e-01,9.99999e-01
1.145774156e+00,6.22485e-01,9.99999e-01,6.22485e-01,9.99999e-01
1.151503026e+00,6.28341e-01,9.99999e-01,6.28341e-01,9.99999e-01
1.157260541e+00,6.34134e-01,9.99999e-01,6.34134e-01,9.99999e-01
1.163046844e+00,6.39865e-01,9.99999e-01,6.39865e-01,9.99999e-01
1.168862078e+00,6.45534e-01,9.99999e-01,6.45534e-01,9.99999e-01
1.174706389e+00,6.51139e-01,9.99999e-01,6.51139e-01,9.99999e-01
1.180579921e+00,6.56680e-01,9.99999e-01,6.56680e-01,9.99999e-01
1.186482820e+00,6.62140e-01,9.99972e-01,6.62158e-01,9.99999e-01
1.192415234e+00,6.40823e-01,9.59930e-01,6.67572e-01,9.99999e-01
1.198377311e+00,3.47197e-01,5.15953e-01,6.72922e-01,9.99999e-01
1.204369197e+00,6.37537e-30,9.40031e-30,6.78208e-01,9.99999e-01
1.210391043e+00,3.83140e-121,5.60613e-121,6.83429e-01,9.99999e-01
1.216442998e+00,7.85957e-105,1.14140e-104,6.88587e-01,9.99999e-01
1.222525213e+00,2.94262e-103,4.24203e-103,6.93681e-01,9.99999e-01
1.228637839e+00,1.17837e-79,1.68649e-79,6.98710e-01,9.99999e-01
1.234781029e+00,1.47698e-49,2.09895e-49,7.03676e-01,9.99999e-01
1.240954934e+00,7.30351e-33,1.03073e-32,7.08578e-01,9.99999e-01
1.247159708e+00,7.66888e-16,1.07495e-15,7.13416e-01,9.99999e-01
1.253395507e+00,9.31536e-11,1.29706e-10,7.18190e-01,9.99999e-01
1.259662485e+00,1.91361e-06,2.64712e-06,7.22901e-01,9.99999e-01
1.265960797e+00,6.36289e-04,8.74564e-04,7.27550e-01,9.99999e-01
1.272290601e+00,2.66900e-02,3.64549e-02,7.32135e-01,9.99999e-01
1.278652054e+00,2.40406e-02,3.26347e-02,7.36658e-01,9.99999e-01
1.285045314e+00,2.63723e-05,3.55845e-05,7.41118e-01,9.99999e-01
1.291470541e+00,2.61697e-14,3.51027e-14,7.45517e-01,9.99999e-01
1.297927893e+00,3.14624e-05,4.19580e-05,7.49854e-01,9.99999e-01
1.304417533e+00,1.67351e-03,2.21913e-03,7.54130e-01,9.99999e-01
1.310939621e+00,3.11722e-04,4.11055e-04,7.58346e-01,9.99999e-01
1.317494319e+00,7.92141e-42,1.03887e-41,7.62500e-01,9.99999e-01
1.324081790e+00,3.15637e-19,4.11738e-19,7.66595e-01,9.99999e-01
1.330702199e+00,4.40062e-16,5.71041e-16,7.70630e-01,9.99999e-01
1.337355710e+00,1.00143e-14,1.29283e-14,7.74607e-01,9.99999e-01
1.344042489e+00,5.22551e-15,6.71207e-15,7.78524e-01,9.99999e-01
1.350762701e+00,2.24192e-16,2.86549e-16,7.82384e-01,9.99999e-01
1.357516515e+00,5.09426e-10,6.47971e-10,7.86185e-01,9.99999e-01
1.364304097e+00,2.20866e-07,2.79602e-07,7.89930e-01,9.99999e-01
1.371125618e+00,3.68612e-04,4.64470e-04,7.93618e-01,9.99999e-01
1.377981246e+00,1.03801e-03,1.30199e-03,7.97250e-01,9.99999e-01
1.384871152e+00,1.65135e-02,2.06205e-02,8.00826e-01,9.99999e-01
1.391795508e+00,2.27219e-02,2.82489e-02,8.04347e-01,9.99999e-01
1.398754485e+00,8.48466e-02,1.05032e-01,8.07814e-01,9.99999e-01
1.405748258e+00,1.57732e-01,1.94437e-01,8.11226e-01,9.99999e-01
1.412776999e+00,2.87159e-01,3.52521e-01,8.14586e-01,9.99999e-01
1.419840884e+00,2.66782e-01,3.26182e-01,8.17892e-01,9.99999e-01
1.426940089e+00,9.70662e-03,1.18208e-02,8.21146e-01,9.99999e-01
1.434074789e+00,0.00000e+00,0.00000e+00,8.24348e-01,9.99999e-01
1.441245163e+00,0.00000e+00,0.00000e+00,8.27500e-01,9.99999e-01
1.448451389e+00,0.00000e+00,0.00000e+00,8.30600e-01,9.99999e-01
1.455693646e+00,0.00000e+00,0.00000e+00,8.33651e-01,9.99999e-01
1.462972114e+00,0.00000e+00,0.00000e+00,8.36652e-01,9.99999e-01
1.470286975e+00,8.32470e-201,9.91502e-201,8.39605e-01,9.99999e-01
1.477638409e+00,5.93557e-126,7.04510e-126,8.42509e-01,9.99999e-01
1.485026601e+00,7.65571e-70,9.05608e-70,8.45366e-01,9.99999e-01
1.492451734e+00,1.86803e-59,2.20241e-59,8.48176e-01,9.99999e-01
1.499913993e+00,2.00078e-25,2.35126e-25,8.50939e-01,9.99999e-01
1.507413563e+00,3.53309e-24,4.13877e-24,8.53656e-01,9.99999e-01
1.514950631e+00,9.64219e-26,1.12599e-25,8.56328e-01,9.99999e-01
1.522525384e+00,2.45895e-89,2.86272e-89,8.58956e-01,9.99999e-01
1.530138011e+00,2.32262e-214,2.69590e-214,8.61539e-01,9.99999e-01
1.537788701e+00,2.22673e-158,2.57700e-158,8.64079e-01,9.99999e-01
1.545477645e+00,7.07060e-33,8.15923e-33,8.66576e-01,9.99999e-01
1.553205033e+00,4.82959e-24,5.55744e-24,8.69031e-01,9.99999e-01
1.560971058e+00,2.85256e-24,3.27336e-24,8.71444e-01,9.99999e-01
1.568775913e+00,0.00000e+00,0.00000e+00,8.73816e-01,9.99999e-01
1.576619793e+00,0.00000e+00,0.00000e+00,8.76147e-01,9.99999e-01
1.584502892e+00,0.00000e+00,0.00000e+00,8.78438e-01,9.99999e-01
1.592425406e+00,0.00000e+00,0.00000e+00,8.80690e-01,9.99999e-01
1.600387533e+00,0.00000e+00,0.00000e+00,8.82903e-01,9.99999e-01
1.608389471e+00,0.00000e+00,0.00000e+00,8.85077e-01,9.99999e-01
1.616431418e+00,0.00000e+00,0.00000e+00,8.87214e-01,9.99999e-01
1.624513575e+00,0.00000e+00,0.00000e+00,8.89314e-01,9.99999e-01
1.632636143e+00,0.00000e+00,0.00000e+00,8.91377e-01,9.99999e-01
1.640799324e+00,5.47359e-186,6.12666e-186,8.93404e-01,9.99999e-01
1.649003321e+00,5.48252e-186,6.12301e-186,8.95395e-01,9.99999e-01
1.657248337e+00,1.45084e-143,1.61680e-143,8.97351e-01,9.99999e-01
1.665534579e+00,1.57287e-144,1.74905e-144,8.99273e-01,9.99999e-01
1.673862252e+00,6.88882e-92,7.64438e-92,9.01161e-01,9.99999e-01
1.682231563e+00,2.12656e-63,2.35495e-63,9.03015e-01,9.99999e-01
1.690642721e+00,6.80025e-35,7.51544e-35,9.04837e-01,9.99999e-01
1.699095934e+00,3.82292e-22,4.21664e-22,9.06626e-01,9.99999e-01
1.707591414e+00,3.55289e-11,3.91122e-11,9.08383e-01,9.99999e-01
1.716129371e+00,7.17292e-07,7.88139e-07,9.10109e-01,9.99999e-01
1.724710018e+00,2.64876e-04,2.90497e-04,9.11803e-01,9.99999e-01
1.733333568e+00,3.77056e-03,4.12774e-03,9.13468e-01,9.99999e-01
1.742000236e+00,3.73885e-02,4.08571e-02,9.15102e-01,9.99999e-01
1.750710237e+00,8.23547e-05,8.98374e-05,9.16707e-01,9.99999e-01
1.759463788e+00,1.02295e-87,1.11398e-87,9.18283e-01,9.99999e-01
1.768261107e+00,8.05606e-92,8.75818e-92,9.19831e-01,9.99999e-01
1.777102413e+00,1.62760e-89,1.76654e-89,9.21350e-01,9.99999e-01
1.785987925e+00,1.03205e-83,1.11834e-83,9.22842e-01,9.99999e-01
1.794917864e+00,6.47253e-80,7.00257e-80,9.24307e-01,9.99999e-01
1.803892454e+00,9.11636e-77,9.84758e-77,9.25745e-01,9.99999e-01
1.812911916e+00,9.39859e-74,1.01370e-73,9.27157e-01,9.99999e-01
1.821976476e+00,8.12283e-74,8.74792e-74,9.28543e-01,9.99999e-01
1.831086358e+00,4.05176e-59,4.35718e-59,9.29904e-01,9.99999e-01
1.840241790e+00,2.67338e-50,2.87078e-50,9.31240e-01,9.99999e-01
1.849442999e+00,6.85123e-35,7.34675e-35,9.32551e-01,9.99999e-01
1.858690214e+00,7.33045e-33,7.84980e-33,9.33838e-01,9.99999e-01
1.867983665e+00,2.01454e-33,2.15435e-33,9.35102e-01,9.99999e-01
1.877323583e+00,2.36728e-168,2.52822e-168,9.36342e-01,9.99999e-01
