#,Wave/freq,Total,CO2,Rayleigh,CIA
4.000000000e-01,1.33357e-02,9.99999e-01,1.33357e-02,9.99999e-01
4.020000000e-01,1.45242e-02,9.99999e-01,1.45242e-02,9.99999e-01
4.040100000e-01,1.57904e-02,9.99999e-01,1.57904e-02,9.99999e-01
4.060300500e-01,1.71388e-02,9.99999e-01,1.71388e-02,9.99999e-01
4.080602003e-01,1.85722e-02,9.99999e-01,1.85722e-02,9.99999e-01
4.101005013e-01,2.00936e-02,9.99999e-01,2.00936e-02,9.99999e-01
4.121510038e-01,2.17059e-02,9.99999e-01,2.17059e-02,9.99999e-01
4.142117588e-01,2.34117e-02,9.99999e-01,2.34117e-02,9.99999e-01
4.162828176e-01,2.52140e-02,9.99999e-01,2.52140e-02,9.99999e-01
4.183642317e-01,2.71152e-02,9.99999e-01,2.71152e-02,9.99999e-01
4.204560528e-01,2.91179e-02,9.99999e-01,2.91179e-02,9.99999e-01
4.225583331e-01,3.12246e-02,9.99999e-01,3.12246e-02,9.99999e-01
4.246711247e-01,3.34376e-02,9.99999e-01,3.34376e-02,9.99999e-01
4.267944804e-01,3.57590e-02,9.99999e-01,3.57590e-02,9.99999e-01
4.289284528e-01,3.81908e-02,9.99999e-01,3.81908e-02,9.99999e-01
4.310730950e-01,4.07351e-02,9.99999e-01,4.07351e-02,9.99999e-01
4.332284605e-01,4.33936e-02,9.99999e-01,4.33936e-02,9.99999e-01
4.353946028e-01,4.61678e-02,9.99999e-01,4.61678e-02,9.99999e-01
4.375715758e-01,4.90594e-02,9.99999e-01,4.90594e-02,9.99999e-01
4.397594337e-01,5.20695e-02,9.99999e-01,5.20695e-02,9.99999e-01
4.419582309e-01,5.51994e-02,9.99999e-01,5.51994e-02,9.99999e-01
4.441680220e-01,5.84500e-02,9.99999e-01,5.84500e-02,9.99999e-01
4.463888621e-01,6.18220e-02,9.99999e-01,6.18220e-02,9.99999e-01
4.486208064e-01,6.53162e-02,9.99999e-01,6.53162e-02,9.99999e-01
4.508639105e-01,6.89330e-02,9.99999e-01,6.89330e-02,9.99999e-01
4.531182300e-01,7.26727e-02,9.99999e-01,7.26727e-02,9.99999e-01
4.553838212e-01,7.65354e-02,9.99999e-01,7.65354e-02,9.99999e-01
4.576607403e-01,8.05209e-02,9.99999e-01,8.05209e-02,9.99999e-01
4.599490440e-01,8.46291e-02,9.99999e-01,8.46291e-02,9.99999e-01
4.622487892e-01,8.88595e-02,9.99999e-01,8.88595e-02,9.99999e-01
4.645600332e-01,9.32115e-02,9.99999e-01,9.32115e-02,9.99999e-01
4.668828333e-01,9.76843e-02,9.99999e-01,9.76843e-02,9.99999e-01
4.692172475e-01,1.02277e-01,9.99999e-01,1.02277e-01,9.99999e-01
4.715633337e-01,1.06989e-01,9.99999e-01,1.06989e-01,9.99999e-01
4.739211504e-01,1.11818e-01,9.99999e-01,1.11818e-01,9.99999e-01
4.762907561e-01,1.16763e-01,9.99999e-01,1.16763e-01,9.99999e-01
4.786722099e-01,1.21823e-01,9.99999e-01,1.21823e-01,9.99999e-01
4.810655710e-01,1.26995e-01,9.99999e-01,1.26995e-01,9.99999e-01
4.834708988e-01,1.32279e-01,9.99999e-01,1.32279e-01,9.99999e-01
4.858882533e-01,1.37671e-01,9.99999e-01,1.37671e-01,9.99999e-01
4.883176946e-01,1.43170e-01,9.99999e-01,1.43170e-01,9.99999e-01
4.907592831e-01,1.48774e-01,9.99999e-01,1.48774e-01,9.99999e-01
4.932130795e-01,1.54480e-01,9.99999e-01,1.54480e-01,9.99999e-01
4.956791449e-01,1.60285e-01,9.99999e-01,1.60285e-01,9.99999e-01
4.981575406e-01,1.66187e-01,9.99999e-01,1.66187e-01,9.99999e-01
5.006483283e-01,1.72184e-01,9.99999e-01,1.72184e-01,9.99999e-01
5.031515699e-01,1.78272e-01,9.99999e-01,1.78272e-01,9.99999e-01
5.056673278e-01,1.84449e-01,9.99999e-01,1.84449e-01,9.99999e-01
5.081956644e-01,1.90712e-01,9.99999e-01,1.90712e-01,9.99999e-01
5.107366428e-01,1.97057e-01,9.99999e-01,1.97057e-01,9.99999e-01
5.132903260e-01,2.03482e-01,9.99999e-01,2.03482e-01,9.99999e-01
5.158567776e-01,2.09983e-01,9.99999e-01,2.09983e-01,9.99999e-01
5.184360615e-01,2.16557e-01,9.99999e-01,2.16557e-01,9.99999e-01
5.210282418e-01,2.23201e-01,9.99999e-01,2.23201e-01,9.99999e-01
5.236333830e-01,2.29912e-01,9.99999e-01,2.29912e-01,9.99999e-01
5.262515499e-01,2.36686e-01,9.99999e-01,2.36686e-01,9.99999e-01
5.288828077e-01,2.43520e-01,9.99999e-01,2.43520e-01,9.99999e-01
5.315272217e-01,2.50410e-01,9.99999e-01,2.50410e-01,9.99999e-01
5.341848578e-01,2.57353e-01,9.99999e-01,2.57353e-01,9.99999e-01
5.368557821e-01,2.64346e-01,9.99999e-01,2.64346e-01,9.99999e-01
5.395400610e-01,2.71385e-01,9.99999e-01,2.71385e-01,9.99999e-01
5.422377613e-01,2.78468e-01,9.99999e-01,2.78468e-01,9.99999e-01
5.449489501e-01,2.85589e-01,9.99999e-01,2.85589e-01,9.99999e-01
5.476736949e-01,2.92747e-01,9.99999e-01,2.92747e-01,9.99999e-01
5.504120634e-01,2.99937e-01,9.99999e-01,2.99937e-01,9.99999e-01
5.531641237e-01,3.07157e-01,9.99999e-01,3.07157e-01,9.99999e-01
5.559299443e-01,3.14402e-01,9.99999e-01,3.14402e-01,9.99999e-01
5.587095940e-01,3.21671e-01,9.99999e-01,3.21671e-01,9.99999e-01
5.615031420e-01,3.28959e-01,9.99999e-01,3.28959e-01,9.99999e-01
5.643106577e-01,3.36263e-01,9.99999e-01,3.36263e-01,9.99999e-01
5.671322110e-01,3.43581e-01,9.99999e-01,3.43581e-01,9.99999e-01
5.699678720e-01,3.50908e-01,9.99999e-01,3.50908e-01,9.99999e-01
5.728177114e-01,3.58242e-01,9.99999e-01,3.58242e-01,9.99999e-01
5.756818000e-01,3.65580e-01,9.99999e-01,3.65580e-01,9.99999e-01
5.785602090e-01,3.72919e-01,9.99999e-01,3.72919e-01,9.99999e-01
5.814530100e-01,3.80257e-01,9.99999e-01,3.80257e-01,9.99999e-01
5.843602750e-01,3.87589e-01,9.99999e-01,3.87589e-01,9.99999e-01
5.872820764e-01,3.94913e-01,9.99999e-01,3.94913e-01,9.99999e-01
5.902184868e-01,4.02228e-01,9.99999e-01,4.02228e-01,9.99999e-01
5.931695792e-01,4.09529e-01,9.99999e-01,4.09529e-01,9.99999e-01
5.961354271e-01,4.16815e-01,9.99999e-01,4.16815e-01,9.99999e-01
5.991161043e-01,4.24082e-01,9.99999e-01,4.24082e-01,9.99999e-01
6.021116848e-01,4.31329e-01,9.99999e-01,4.31329e-01,9.99999e-01
6.051222432e-01,4.38553e-01,9.99999e-01,4.38553e-01,9.99999e-01
6.081478544e-01,4.45752e-01,9.99999e-01,4.45752e-01,9.99999e-01
6.111885937e-01,4.52923e-01,9.99999e-01,4.52923e-01,9.99999e-01
6.142445367e-01,4.60065e-01,9.99999e-01,4.60065e-01,9.99999e-01
6.173157594e-01,4.67174e-01,9.99999e-01,4.67174e-01,9.99999e-01
6.204023382e-01,4.74250e-01,9.99999e-01,4.74250e-01,9.99999e-01
6.235043498e-01,4.81290e-01,9.99999e-01,4.81290e-01,9.99999e-01
6.266218716e-01,4.88293e-01,9.99999e-01,4.88293e-01,9.99999e-01
6.297549810e-01,4.95256e-01,9.99999e-01,4.95256e-01,9.99999e-01
6.329037559e-01,5.02178e-01,9.99999e-01,5.02178e-01,9.99999e-01
6.360682746e-01,5.09057e-01,9.99999e-01,5.09057e-01,9.99999e-01
6.392486160e-01,5.15892e-01,9.99999e-01,5.15892e-01,9.99999e-01
6.424448591e-01,5.22680e-01,9.99999e-01,5.22680e-01,9.99999e-01
6.456570834e-01,5.29422e-01,9.99999e-01,5.29422e-01,9.99999e-01
6.488853688e-01,5.36114e-01,9.99999e-01,5.36114e-01,9.99999e-01
6.521297956e-01,5.42757e-01,9.99999e-01,5.42757e-01,9.99999e-01
6.553904446e-01,5.49348e-01,9.99999e-01,5.49348e-01,9.99999e-01
6.586673968e-01,5.55886e-01,9.99999e-01,5.55886e-01,9.99999e-01
6.619607338e-01,5.62371e-01,9.99999e-01,5.62371e-01,9.99999e-01
6.652705375e-01,5.68802e-01,9.99999e-01,5.68802e-01,9.99999e-01
6.685968902e-01,5.75176e-01,9.99999e-01,5.75176e-01,9.99999e-01
6.719398746e-01,5.81494e-01,9.99999e-01,5.81494e-01,9.99999e-01
6.752995740e-01,5.87755e-01,9.99999e-01,5.87755e-01,9.99999e-01
6.786760719e-01,5.93957e-01,9.99999e-01,5.93957e-01,9.99999e-01
6.820694522e-01,6.00101e-01,9.99999e-01,6.00101e-01,9.99999e-01
6.854797995e-01,6.06184e-01,9.99999e-01,6.06184e-01,9.99999e-01
6.889071985e-01,6.12208e-01,9.99999e-01,6.12208e-01,9.99999e-01
6.923517345e-01,6.18170e-01,9.99999e-01,6.18170e-01,9.99999e-01
6.958134932e-01,6.24071e-01,9.99999e-01,6.24071e-01,9.99999e-01
6.992925606e-01,6.29910e-01,9.99999e-01,6.29910e-01,9.99999e-01
7.027890234e-01,6.35687e-01,9.99999e-01,6.35687e-01,9.99999e-01
7.063029686e-01,6.41401e-01,9.99999e-01,6.41401e-01,9.99999e-01
7.098344834e-01,6.47053e-01,9.99999e-01,6.47053e-01,9.99999e-01
7.133836558e-01,6.52640e-01,9.99999e-01,6.52640e-01,9.99999e-01
7.169505741e-01,6.58165e-01,9.99999e-01,6.58165e-01,9.99999e-01
7.205353270e-01,6.63625e-01,9.99999e-01,6.63625e-01,9.99999e-01
7.241380036e-01,6.69022e-01,9.99999e-01,6.69022e-01,9.99999e-01
7.277586936e-01,6.74355e-01,9.99999e-01,6.74355e-01,9.99999e-01
7.313974871e-01,6.79623e-01,9.99999e-01,6.79623e-01,9.99999e-01
7.350544745e-01,6.84828e-01,9.99999e-01,6.84828e-01,9.99999e-01
7.387297469e-01,6.89968e-01,9.99999e-01,6.89968e-01,9.99999e-01
7.424233956e-01,6.95044e-01,9.99999e-01,6.95044e-01,9.99999e-01
7.461355126e-01,7.00057e-01,9.99999e-01,7.00057e-01,9.99999e-01
7.498661902e-01,7.05005e-01,9.99999e-01,7.05005e-01,9.99999e-01
7.536155211e-01,7.09889e-01,9.99999e-01,7.09889e-01,9.99999e-01
7.573835987e-01,7.14710e-01,9.99999e-01,7.14710e-01,9.99999e-01
7.611705167e-01,7.19468e-01,9.99999e-01,7.19468e-01,9.99999e-01
7.649763693e-01,7.24162e-01,9.99999e-01,7.24162e-01,9.99999e-01
7.688012511e-01,7.28793e-01,9.99999e-01,7.28793e-01,9.99999e-01
7.726452574e-01,7.33362e-01,9.99999e-01,7.33362e-01,9.99999e-01
7.765084837e-01,7.37868e-01,9.99999e-01,7.37868e-01,9.99999e-01
7.803910261e-01,7.31256e-01,9.85106e-01,7.42312e-01,9.99999e-01
7.842929812e-01,7.00241e-01,9.37788e-01,7.46694e-01,9.99999e-01
7.882144461e-01,7.00944e-01,9.33329e-01,7.51014e-01,9.99999e-01
7.921555184e-01,7.26007e-01,9.61250e-01,7.55274e-01,9.99999e-01
7.961162960e-01,7.39689e-01,9.73950e-01,7.59473e-01,9.99999e-01
8.000968774e-01,7.52775e-01,9.85808e-01,7.63611e-01,9.99999e-01
8.040973618e-01,7.62028e-01,9.92624e-01,7.67690e-01,9.99999e-01
8.081178486e-01,7.69094e-01,9.96610e-01,7.71709e-01,9.99999e-01
8.121584379e-01,7.74856e-01,9.98951e-01,7.75670e-01,9.99999e-01
8.162192301e-01,7.79391e-01,9.99768e-01,7.79572e-01,9.99999e-01
8.203003262e-01,7.83413e-01,9.99996e-01,7.83415e-01,9.99999e-01
8.244018279e-01,7.87202e-01,9.99999e-01,7.87202e-01,9.99999e-01
8.285238370e-01,7.90931e-01,9.99999e-01,7.90931e-01,9.99999e-01
8.326664562e-01,7.94604e-01,9.99999e-01,7.94604e-01,9.99999e-01
8.368297885e-01,7.98220e-01,9.99999e-01,7.98220e-01,9.99999e-01
8.410139374e-01,8.01782e-01,9.99999e-01,8.01782e-01,9.99999e-01
8.452190071e-01,8.05288e-01,9.99999e-01,8.05288e-01,9.99999e-01
8.494451021e-01,8.08740e-01,9.99999e-01,8.08740e-01,9.99999e-01
8.536923276e-01,8.12138e-01,9.99999e-01,8.12138e-01,9.99999e-01
8.579607893e-01,8.15483e-01,9.99999e-01,8.15483e-01,9.99999e-01
8.622505932e-01,8.18775e-01,9.99999e-01,8.18775e-01,9.99999e-01
8.665618462e-01,7.88624e-01,9.59377e-01,8.22015e-01,9.99999e-01
8.708946554e-01,6.98999e-01,8.47062e-01,8.25204e-01,9.99999e-01
8.752491287e-01,7.26073e-01,8.76538e-01,8.28341e-01,9.99999e-01
8.796253743e-01,7.74053e-01,9.30990e-01,8.31429e-01,9.99999e-01
8.840235012e-01,8.04271e-01,9.63814e-01,8.34466e-01,9.99999e-01
8.884436187e-01,8.25398e-01,9.85603e-01,8.37454e-01,9.99999e-01
8.928858368e-01,8.35479e-01,9.94151e-01,8.40393e-01,9.99999e-01
8.973502660e-01,8.42084e-01,9.98575e-01,8.43285e-01,9.99999e-01
9.018370173e-01,8.45996e-01,9.99842e-01,8.46129e-01,9.99999e-01
9.063462024e-01,8.45506e-01,9.95970e-01,8.48926e-01,9.99999e-01
9.108779334e-01,8.43829e-01,9.90784e-01,8.51677e-01,9.99999e-01
9.154323231e-01,8.52526e-01,9.97827e-01,8.54382e-01,9.99999e-01
9.200094847e-01,8.29392e-01,9.67738e-01,8.57042e-01,9.99999e-01
9.246095321e-01,8.21503e-01,9.55616e-01,8.59657e-01,9.99999e-01
9.292325798e-01,8.31967e-01,9.64902e-01,8.62229e-01,9.99999e-01
9.338787427e-01,8.35468e-01,9.66129e-01,8.64757e-01,9.99999e-01
9.385481364e-01,8.45620e-01,9.75066e-01,8.67243e-01,9.99999e-01
9.432408771e-01,8.56365e-01,9.84682e-01,8.69686e-01,9.99999e-01
9.479570815e-01,8.65215e-01,9.92117e-01,8.72088e-01,9.99999e-01
9.526968669e-01,8.71118e-01,9.96190e-01,8.74449e-01,9.99999e-01
9.574603512e-01,8.75340e-01,9.98369e-01,8.76769e-01,9.99999e-01
9.622476530e-01,8.78603e-01,9.99491e-01,8.79050e-01,9.99999e-01
9.670588912e-01,8.81157e-01,9.99847e-01,8.81291e-01,9.99999e-01
9.718941857e-01,8.83484e-01,9.99988e-01,8.83493e-01,9.99999e-01
9.767536566e-01,8.85658e-01,9.99999e-01,8.85658e-01,9.99999e-01
9.816374249e-01,8.87784e-01,9.99999e-01,8.87784e-01,9.99999e-01
9.865456120e-01,8.89874e-01,9.99999e-01,8.89874e-01,9.99999e-01
9.914783401e-01,8.91927e-01,9.99999e-01,8.91927e-01,9.99999e-01
9.964357318e-01,8.93945e-01,9.99999e-01,8.93945e-01,9.99999e-01
1.001417910e+00,8.95926e-01,9.99999e-01,8.95926e-01,9.99999e-01
1.006425000e+00,8.97873e-01,9.99999e-01,8.97873e-01,9.99999e-01
1.011457125e+00,8.99786e-01,9.99999e-01,8.99786e-01,9.99999e-01
1.016514411e+00,9.01665e-01,9.99999e-01,9.01665e-01,9.99999e-01
1.021596983e+00,9.03491e-01,9.99978e-01,9.03510e-01,9.99999e-01
1.026704968e+00,9.03906e-01,9.98435e-01,9.05323e-01,9.99999e-01
1.031838492e+00,8.85537e-01,9.76225e-01,9.07103e-01,9.99999e-01
1.036997685e+00,2.93136e-01,3.22534e-01,9.08852e-01,9.99999e-01
1.042182673e+00,3.58278e-01,3.93466e-01,9.10569e-01,9.99999e-01
1.047393587e+00,3.25248e-01,3.56531e-01,9.12256e-01,9.99999e-01
1.052630555e+00,6.19935e-02,6.78331e-02,9.13912e-01,9.99999e-01
1.057893707e+00,1.11001e-01,1.21241e-01,9.15538e-01,9.99999e-01
1.063183176e+00,1.99861e-01,2.17919e-01,9.17135e-01,9.99999e-01
1.068499092e+00,3.34642e-01,3.64254e-01,9.18704e-01,9.99999e-01
1.073841587e+00,4.86726e-01,5.28909e-01,9.20244e-01,9.99999e-01
1.079210795e+00,6.17110e-01,6.69494e-01,9.21756e-01,9.99999e-01
1.084606849e+00,7.41843e-01,8.03520e-01,9.23240e-01,9.99999e-01
1.090029883e+00,8.25756e-01,8.92999e-01,9.24698e-01,9.99999e-01
1.095480033e+00,8.75948e-01,9.45815e-01,9.26129e-01,9.99999e-01
1.100957433e+00,9.03014e-01,9.73564e-01,9.27534e-01,9.99999e-01
1.106462220e+00,9.18683e-01,9.88986e-01,9.28913e-01,9.99999e-01
1.111994531e+00,9.26458e-01,9.95905e-01,9.30267e-01,9.99999e-01
1.117554504e+00,9.30664e-01,9.98998e-01,9.31596e-01,9.99999e-01
1.123142276e+00,9.32840e-01,9.99933e-01,9.32901e-01,9.99999e-01
1.128757988e+00,9.34182e-01,9.99999e-01,9.34182e-01,9.99999e-01
1.134401778e+00,9.35439e-01,9.99999e-01,9.35439e-01,9.99999e-01
1.140073787e+00,9.36673e-01,9.99999e-01,9.36673e-01,9.99999e-01
1.145774156e+00,9.37884e-01,9.99999e-01,9.37884e-01,9.99999e-01
1.151503026e+00,9.39073e-01,9.99999e-01,9.39073e-01,9.99999e-01
1.157260541e+00,9.40240e-01,9.99999e-01,9.40240e-01,9.99999e-01
1.163046844e+00,9.41385e-01,9.99999e-01,9.41385e-01,9.99999e-01
1.168862078e+00,9.42508e-01,9.99999e-01,9.42508e-01,9.99999e-01
1.174706389e+00,9.43611e-01,9.99999e-01,9.43611e-01,9.99999e-01
1.180579921e+00,9.44694e-01,9.99999e-01,9.44694e-01,9.99999e-01
1.186482820e+00,9.45753e-01,9.99996e-01,9.45756e-01,9.99999e-01
1.192415234e+00,9.41471e-01,9.94373e-01,9.46798e-01,9.99999e-01
1.198377311e+00,5.62735e-01,5.93714e-01,9.47821e-01,9.99999e-01
1.204369197e+00,5.46251e-06,5.75713e-06,9.48825e-01,9.99999e-01
1.210391043e+00,2.47328e-18,2.60397e-18,9.49810e-01,9.99999e-01
1.216442998e+00,4.08569e-16,4.29720e-16,9.50777e-01,9.99999e-01
1.222525213e+00,7.16866e-16,7.53227e-16,9.51725e-01,9.99999e-01
1.228637839e+00,3.54159e-12,3.71759e-12,9.52656e-01,9.99999e-01
1.234781029e+00,1.31916e-08,1.38339e-08,9.53569e-01,9.99999e-01
1.240954934e+00,7.45550e-06,7.81118e-06,9.54465e-01,9.99999e-01
1.247159708e+00,1.31724e-03,1.37881e-03,9.55344e-01,9.99999e-01
1.253395507e+00,2.61761e-02,2.73749e-02,9.56206e-01,9.99999e-01
1.259662485e+00,1.24900e-01,1.30505e-01,9.57052e-01,9.99999e-01
1.265960797e+00,2.94292e-01,3.07232e-01,9.57883e-01,9.99999e-01
1.272290601e+00,5.92232e-01,6.17746e-01,9.58697e-01,9.99999e-01
1.278652054e+00,5.30245e-01,5.52628e-01,9.59496e-01,9.99999e-01
1.285045314e+00,5.45151e-02,5.67699e-02,9.60280e-01,9.99999e-01
1.291470541e+00,7.94684e-03,8.26891e-03,9.61049e-01,9.99999e-01
1.297927893e+00,6.19830e-02,6.44445e-02,9.61804e-01,9.99999e-01
1.304417533e+00,4.02394e-01,4.18052e-01,9.62544e-01,9.99999e-01
1.310939621e+00,1.19465e-01,1.24021e-01,9.63270e-01,9.99999e-01
1.317494319e+00,1.02619e-06,1.06454e-06,9.63982e-01,9.99999e-01
1.324081790e+00,4.71126e-05,4.88374e-05,9.64681e-01,9.99999e-01
1.330702199e+00,5.38243e-03,5.57552e-03,9.65366e-01,9.99999e-01
1.337355710e+00,3.64852e-03,3.77678e-03,9.66038e-01,9.99999e-01
1.344042489e+00,1.39449e-03,1.44253e-03,9.66698e-01,9.99999e-01
1.350762701e+00,4.31274e-03,4.45832e-03,9.67345e-01,9.99999e-01
1.357516515e+00,2.69609e-02,2.78527e-02,9.67979e-01,9.99999e-01
1.364304097e+00,1.06188e-01,1.09630e-01,9.68602e-01,9.99999e-01
1.371125618e+00,3.00070e-01,3.09602e-01,9.69212e-01,9.99999e-01
1.377981246e+00,3.82265e-01,3.94164e-01,9.69811e-01,9.99999e-01
1.384871152e+00,5.64265e-01,5.81477e-01,9.70399e-01,9.99999e-01
1.391795508e+00,5.88634e-01,6.06229e-01,9.70975e-01,9.99999e-01
1.398754485e+00,7.14458e-01,7.35387e-01,9.71540e-01,9.99999e-01
1.405748258e+00,7.74631e-01,7.96867e-01,9.72094e-01,9.99999e-01
1.412776999e+00,8.42968e-01,8.66682e-01,9.72638e-01,9.99999e-01
1.419840884e+00,7.87706e-01,8.09421e-01,9.73171e-01,9.99999e-01
1.426940089e+00,1.11539e-01,1.14552e-01,9.73694e-01,9.99999e-01
1.434074789e+00,6.45205e-254,6.62287e-254,9.74206e-01,9.99999e-01
1.441245163e+00,0.00000e+00,0.00000e+00,9.74709e-01,9.99999e-01
1.448451389e+00,8.30097e-308,8.51203e-308,9.75203e-01,9.99999e-01
1.455693646e+00,5.49377e-138,5.63067e-138,9.75686e-01,9.99999e-01
1.462972114e+00,1.55708e-67,1.59511e-67,9.76161e-01,9.99999e-01
1.470286975e+00,4.14970e-29,4.24901e-29,9.76626e-01,9.99999e-01
1.477638409e+00,6.02464e-19,6.16594e-19,9.77083e-01,9.99999e-01
1.485026601e+00,3.49436e-11,3.57468e-11,9.77530e-01,9.99999e-01
1.492451734e+00,1.61175e-09,1.64806e-09,9.77969e-01,9.99999e-01
1.499913993e+00,4.40694e-05,4.50423e-05,9.78399e-01,9.99999e-01
1.507413563e+00,5.15595e-04,5.26750e-04,9.78822e-01,9.99999e-01
1.514950631e+00,2.36331e-05,2.41342e-05,9.79235e-01,9.99999e-01
1.522525384e+00,5.07608e-14,5.18156e-14,9.79641e-01,9.99999e-01
1.530138011e+00,8.84726e-31,9.02744e-31,9.80039e-01,9.99999e-01
1.537788701e+00,3.20675e-23,3.27076e-23,9.80430e-01,9.99999e-01
1.545477645e+00,2.21326e-06,2.25655e-06,9.80813e-01,9.99999e-01
1.553205033e+00,4.10496e-04,4.18366e-04,9.81188e-01,9.99999e-01
1.560971058e+00,1.05688e-04,1.07673e-04,9.81556e-01,9.99999e-01
1.568775913e+00,1.36385e-75,1.38897e-75,9.81917e-01,9.99999e-01
1.576619793e+00,2.94102e-175,2.99410e-175,9.82271e-01,9.99999e-01
1.584502892e+00,3.21693e-96,3.27383e-96,9.82618e-01,9.99999e-01
1.592425406e+00,2.31478e-67,2.35491e-67,9.82959e-01,9.99999e-01
1.600387533e+00,7.17747e-108,7.29942e-108,9.83292e-01,9.99999e-01
1.608389471e+00,2.54326e-180,2.58561e-180,9.83620e-01,9.99999e-01
1.616431418e+00,1.89019e-181,1.92104e-181,9.83941e-01,9.99999e-01
1.624513575e+00,2.27275e-85,2.30911e-85,9.84255e-01,9.99999e-01
1.632636143e+00,8.59148e-64,8.72617e-64,9.84564e-01,9.99999e-01
1.640799324e+00,4.16678e-27,4.23080e-27,9.84866e-01,9.99999e-01
1.649003321e+00,5.29185e-27,5.37154e-27,9.85163e-01,9.99999e-01
1.657248337e+00,3.55766e-21,3.61017e-21,9.85454e-01,9.99999e-01
1.665534579e+00,2.52051e-21,2.55697e-21,9.85739e-01,9.99999e-01
1.673862252e+00,4.03536e-14,4.09258e-14,9.86019e-01,9.99999e-01
1.682231563e+00,3.14649e-10,3.19022e-10,9.86293e-01,9.99999e-01
1.690642721e+00,2.18207e-06,2.21179e-06,9.86562e-01,9.99999e-01
1.699095934e+00,3.43004e-04,3.47583e-04,9.86826e-01,9.99999e-01
1.707591414e+00,1.40216e-02,1.42051e-02,9.87084e-01,9.99999e-01
1.716129371e+00,9.88852e-02,1.00153e-01,9.87338e-01,9.99999e-01
1.724710018e+00,2.91745e-01,2.95411e-01,9.87586e-01,9.99999e-01
1.733333568e+00,4.52989e-01,4.58569e-01,9.87830e-01,9.99999e-01
1.742000236e+00,6.05006e-01,6.12311e-01,9.88069e-01,9.99999e-01
1.750710237e+00,5.19460e-02,5.25607e-02,9.88303e-01,9.99999e-01
1.759463788e+00,2.03752e-13,2.06115e-13,9.88533e-01,9.99999e-01
1.768261107e+00,2.36024e-14,2.38707e-14,9.88758e-01,9.99999e-01
1.777102413e+00,2.83904e-13,2.87067e-13,9.88979e-01,9.99999e-01
1.785987925e+00,4.75959e-13,4.81157e-13,9.89195e-01,9.99999e-01
1.794917864e+00,3.78632e-12,3.82685e-12,9.89408e-01,9.99999e-01
1.803892454e+00,2.88576e-12,2.91604e-12,9.89616e-01,9.99999e-01
1.812911916e+00,1.56347e-11,1.57954e-11,9.89820e-01,9.99999e-01
1.821976476e+00,8.91485e-12,9.00471e-12,9.90020e-01,9.99999e-01
1.831086358e+00,9.66587e-10,9.76137e-10,9.90216e-01,9.99999e-01
1.840241790e+00,3.23493e-08,3.26626e-08,9.90408e-01,9.99999e-01
1.849442999e+00,7.46656e-06,7.53743e-06,9.90597e-01,9.99999e-01
1.858690214e+00,3.07111e-05,3.09968e-05,9.90782e-01,9.99999e-01
1.867983665e+00,5.14808e-06,5.19502e-06,9.90963e-01,9.99999e-01
1.877323583e+00,1.55267e-24,1.56655e-24,9.91141e-01,9.99999e-01
