#,Wave/freq,Total,CO2,Rayleigh,CIA
4.000000000e-01,5.55242e-11,9.99999e-01,5.55242e-11,9.99999e-01
4.020000000e-01,8.85644e-11,9.99999e-01,8.85644e-11,9.99999e-01
4.040100000e-01,1.39903e-10,9.99999e-01,1.39903e-10,9.99999e-01
4.060300500e-01,2.19013e-10,9.99999e-01,2.19013e-10,9.99999e-01
4.080602003e-01,3.39836e-10,9.99999e-01,3.39836e-10,9.99999e-01
4.101005013e-01,5.22758e-10,9.99999e-01,5.22758e-10,9.99999e-01
4.121510038e-01,7.97329e-10,9.99999e-01,7.97329e-10,9.99999e-01
4.142117588e-01,1.20601e-09,9.99999e-01,1.20601e-09,9.99999e-01
4.162828176e-01,1.80933e-09,9.99999e-01,1.80933e-09,9.99999e-01
4.183642317e-01,2.69280e-09,9.99999e-01,2.69280e-09,9.99999e-01
4.204560528e-01,3.97629e-09,9.99999e-01,3.97629e-09,9.99999e-01
4.225583331e-01,5.82652e-09,9.99999e-01,5.82652e-09,9.99999e-01
4.246711247e-01,8.47350e-09,9.99999e-01,8.47350e-09,9.99999e-01
4.267944804e-01,1.22322e-08,9.99999e-01,1.22322e-08,9.99999e-01
4.289284528e-01,1.75305e-08,9.99999e-01,1.75305e-08,9.99999e-01
4.310730950e-01,2.49459e-08,9.99999e-01,2.49459e-08,9.99999e-01
4.332284605e-01,3.52515e-08,9.99999e-01,3.52515e-08,9.99999e-01
4.353946028e-01,4.94754e-08,9.99999e-01,4.94754e-08,9.99999e-01
4.375715758e-01,6.89752e-08,9.99999e-01,6.89752e-08,9.99999e-01
4.397594337e-01,9.55315e-08,9.99999e-01,9.55315e-08,9.99999e-01
4.419582309e-01,1.31464e-07,9.99999e-01,1.31464e-07,9.99999e-01
4.441680220e-01,1.79774e-07,9.99999e-01,1.79774e-07,9.99999e-01
4.463888621e-01,2.44322e-07,9.99999e-01,2.44322e-07,9.99999e-01
4.486208064e-01,3.30040e-07,9.99999e-01,3.30040e-07,9.99999e-01
4.508639105e-01,4.43191e-07,9.99999e-01,4.43191e-07,9.99999e-01
4.531182300e-01,5.91680e-07,9.99999e-01,5.91680e-07,9.99999e-01
4.553838212e-01,7.85423e-07,9.99999e-01,7.85423e-07,9.99999e-01
4.576607403e-01,1.03679e-06,9.99999e-01,1.03679e-06,9.99999e-01
4.599490440e-01,1.36112e-06,9.99999e-01,1.36112e-06,9.99999e-01
4.622487892e-01,1.77732e-06,9.99999e-01,1.77732e-06,9.99999e-01
4.645600332e-01,2.30859e-06,9.99999e-01,2.30859e-06,9.99999e-01
4.668828333e-01,2.98321e-06,9.99999e-01,2.98321e-06,9.99999e-01
4.692172475e-01,3.83551e-06,9.99999e-01,3.83551e-06,9.99999e-01
4.715633337e-01,4.90689e-06,9.99999e-01,4.90689e-06,9.99999e-01
4.739211504e-01,6.24706e-06,9.99999e-01,6.24706e-06,9.99999e-01
4.762907561e-01,7.91542e-06,9.99999e-01,7.91542e-06,9.99999e-01
4.786722099e-01,9.98256e-06,9.99999e-01,9.98256e-06,9.99999e-01
4.810655710e-01,1.25320e-05,9.99999e-01,1.25320e-05,9.99999e-01
4.834708988e-01,1.56619e-05,9.99999e-01,1.56619e-05,9.99999e-01
4.858882533e-01,1.94876e-05,9.99999e-01,1.94876e-05,9.99999e-01
4.883176946e-01,2.41434e-05,9.99999e-01,2.41434e-05,9.99999e-01
4.907592831e-01,2.97851e-05,9.99999e-01,2.97851e-05,9.99999e-01
4.932130795e-01,3.65931e-05,9.99999e-01,3.65931e-05,9.99999e-01
4.956791449e-01,4.47747e-05,9.99999e-01,4.47747e-05,9.99999e-01
4.981575406e-01,5.45677e-05,9.99999e-01,5.45677e-05,9.99999e-01
5.006483283e-01,6.62433e-05,9.99999e-01,6.62433e-05,9.99999e-01
5.031515699e-01,8.01096e-05,9.99999e-01,8.01096e-05,9.99999e-01
5.056673278e-01,9.65155e-05,9.99999e-01,9.65155e-05,9.99999e-01
5.081956644e-01,1.15854e-04,9.99999e-01,1.15854e-04,9.99999e-01
5.107366428e-01,1.38567e-04,9.99999e-01,1.38567e-04,9.99999e-01
5.132903260e-01,1.65147e-04,9.99999e-01,1.65147e-04,9.99999e-01
5.158567776e-01,1.96145e-04,9.99999e-01,1.96145e-04,9.99999e-01
5.184360615e-01,2.32171e-04,9.99999e-01,2.32171e-04,9.99999e-01
5.210282418e-01,2.73900e-04,9.99999e-01,2.73900e-04,9.99999e-01
5.236333830e-01,3.22076e-04,9.99999e-01,3.22076e-04,9.99999e-01
5.262515499e-01,3.77515e-04,9.99999e-01,3.77515e-04,9.99999e-01
5.288828077e-01,4.41112e-04,9.99999e-01,4.41112e-04,9.99999e-01
5.315272217e-01,5.13839e-04,9.99999e-01,5.13839e-04,9.99999e-01
5.341848578e-01,5.96756e-04,9.99999e-01,5.96756e-04,9.99999e-01
5.368557821e-01,6.91007e-04,9.99999e-01,6.91007e-04,9.99999e-01
5.395400610e-01,7.97830e-04,9.99999e-01,7.97830e-04,9.99999e-01
5.422377613e-01,9.18556e-04,9.99999e-01,9.18556e-04,9.99999e-01
5.449489501e-01,1.05461e-03,9.99999e-01,1.05461e-03,9.99999e-01
5.476736949e-01,1.20752e-03,9.99999e-01,1.20752e-03,9.99999e-01
5.504120634e-01,1.37890e-03,9.99999e-01,1.37890e-03,9.99999e-01
5.531641237e-01,1.57049e-03,9.99999e-01,1.57049e-03,9.99999e-01
5.559299443e-01,1.78410e-03,9.99999e-01,1.78410e-03,9.99999e-01
5.587095940e-01,2.02167e-03,9.99999e-01,2.02167e-03,9.99999e-01
5.615031420e-01,2.28523e-03,9.99999e-01,2.28523e-03,9.99999e-01
5.643106577e-01,2.57690e-03,9.99999e-01,2.57690e-03,9.99999e-01
5.671322110e-01,2.89891e-03,9.99999e-01,2.89891e-03,9.99999e-01
5.699678720e-01,3.25358e-03,9.99999e-01,3.25358e-03,9.99999e-01
5.728177114e-01,3.64333e-03,9.99999e-01,3.64333e-03,9.99999e-01
5.756818000e-01,4.07066e-03,9.99999e-01,4.07066e-03,9.99999e-01
5.785602090e-01,4.53816e-03,9.99999e-01,4.53816e-03,9.99999e-01
5.814530100e-01,5.04850e-03,9.99999e-01,5.04850e-03,9.99999e-01
5.843602750e-01,5.60442e-03,9.99999e-01,5.60442e-03,9.99999e-01
5.872820764e-01,6.20873e-03,9.99999e-01,6.20873e-03,9.99999e-01
5.902184868e-01,6.86430e-03,9.99999e-01,6.86430e-03,9.99999e-01
5.931695792e-01,7.57407e-03,9.99999e-01,7.57407e-03,9.99999e-01
5.961354271e-01,8.34099e-03,9.99999e-01,8.34099e-03,9.99999e-01
5.991161043e-01,9.16809e-03,9.99999e-01,9.16809e-03,9.99999e-01
6.021116848e-01,1.00584e-02,9.99999e-01,1.00584e-02,9.99999e-01
6.051222432e-01,1.10150e-02,9.99999e-01,1.10150e-02,9.99999e-01
6.081478544e-01,1.20409e-02,9.99999e-01,1.20409e-02,9.99999e-01
6.111885937e-01,1.31393e-02,9.99999e-01,1.31393e-02,9.99999e-01
6.142445367e-01,1.43131e-02,9.99999e-01,1.43131e-02,9.99999e-01
6.173157594e-01,1.55655e-02,9.99999e-01,1.55655e-02,9.99999e-01
6.204023382e-01,1.68994e-02,9.99999e-01,1.68994e-02,9.99999e-01
6.235043498e-01,1.83179e-02,9.99999e-01,1.83179e-02,9.99999e-01
6.266218716e-01,1.98239e-02,9.99999e-01,1.98239e-02,9.99999e-01
6.297549810e-01,2.14202e-02,9.99999e-01,2.14202e-02,9.99999e-01
6.329037559e-01,2.31097e-02,9.99999e-01,2.31097e-02,9.99999e-01
6.360682746e-01,2.48950e-02,9.99999e-01,2.48950e-02,9.99999e-01
6.392486160e-01,2.67789e-02,9.99999e-01,2.67789e-02,9.99999e-01
6.424448591e-01,2.87639e-02,9.99999e-01,2.87639e-02,9.99999e-01
6.456570834e-01,3.08525e-02,9.99999e-01,3.08525e-02,9.99999e-01
6.488853688e-01,3.30469e-02,9.99999e-01,3.30469e-02,9.99999e-01
6.521297956e-01,3.53493e-02,9.99999e-01,3.53493e-02,9.99999e-01
6.553904446e-01,3.77619e-02,9.99999e-01,3.77619e-02,9.99999e-01
6.586673968e-01,4.02866e-02,9.99999e-01,4.02866e-02,9.99999e-01
6.619607338e-01,4.29252e-02,9.99999e-01,4.29252e-02,9.99999e-01
6.652705375e-01,4.56793e-02,9.99999e-01,4.56793e-02,9.99999e-01
6.685968902e-01,4.85505e-02,9.99999e-01,4.85505e-02,9.99999e-01
6.719398746e-01,5.15400e-02,9.99999e-01,5.15400e-02,9.99999e-01
6.752995740e-01,5.46491e-02,9.99999e-01,5.46491e-02,9.99999e-01
6.786760719e-01,5.78787e-02,9.99999e-01,5.78787e-02,9.99999e-01
6.820694522e-01,6.12297e-02,9.99999e-01,6.12297e-02,9.99999e-01
6.854797995e-01,6.47027e-02,9.99999e-01,6.47027e-02,9.99999e-01
6.889071985e-01,6.82983e-02,9.99999e-01,6.82983e-02,9.99999e-01
6.923517345e-01,7.20167e-02,9.99999e-01,7.20167e-02,9.99999e-01
6.958134932e-01,7.58580e-02,9.99999e-01,7.58580e-02,9.99999e-01
6.992925606e-01,7.98223e-02,9.99999e-01,7.98223e-02,9.99999e-01
7.027890234e-01,8.39093e-02,9.99999e-01,8.39093e-02,9.99999e-01
7.063029686e-01,8.81186e-02,9.99999e-01,8.81186e-02,9.99999e-01
7.098344834e-01,9.24496e-02,9.99999e-01,9.24496e-02,9.99999e-01
7.133836558e-01,9.69016e-02,9.99999e-01,9.69016e-02,9.99999e-01
7.169505741e-01,1.01474e-01,9.99999e-01,1.01474e-01,9.99999e-01
7.205353270e-01,1.06165e-01,9.99999e-01,1.06165e-01,9.99999e-01
7.241380036e-01,1.10974e-01,9.99999e-01,1.10974e-01,9.99999e-01
7.277586936e-01,1.15899e-01,9.99999e-01,1.15899e-01,9.99999e-01
7.313974871e-01,1.20939e-01,9.99999e-01,1.20939e-01,9.99999e-01
7.350544745e-01,1.26092e-01,9.99999e-01,1.26092e-01,9.99999e-01
7.387297469e-01,1.31356e-01,9.99999e-01,1.31356e-01,9.99999e-01
7.424233956e-01,1.36730e-01,9.99999e-01,1.36730e-01,9.99999e-01
7.461355126e-01,1.42211e-01,9.99999e-01,1.42211e-01,9.99999e-01
7.498661902e-01,1.47796e-01,9.99999e-01,1.47796e-01,9.99999e-01
7.536155211e-01,1.53485e-01,9.99999e-01,1.53485e-01,9.99999e-01
7.573835987e-01,1.59273e-01,9.99999e-01,1.59273e-01,9.99999e-01
7.611705167e-01,1.65159e-01,9.99999e-01,1.65159e-01,9.99999e-01
7.649763693e-01,1.71140e-01,9.99999e-01,1.71140e-01,9.99999e-01
7.688012511e-01,1.77212e-01,9.99999e-01,1.77212e-01,9.99999e-01
7.726452574e-01,1.83374e-01,9.99999e-01,1.83374e-01,9.99999e-01
7.765084837e-01,1.89622e-01,9.99999e-01,1.89622e-01,9.99999e-01
7.803910261e-01,1.82307e-01,9.30361e-01,1.95953e-01,9.99999e-01
7.842929812e-01,1.45329e-01,7.18153e-01,2.02364e-01,9.99999e-01
7.882144461e-01,1.46732e-01,7.02564e-01,2.08852e-01,9.99999e-01
7.921555184e-01,1.74081e-01,8.08121e-01,2.15414e-01,9.99999e-01
7.961162960e-01,1.92479e-01,8.66839e-01,2.22046e-01,9.99999e-01
8.000968774e-01,2.11659e-01,9.25302e-01,2.28746e-01,9.99999e-01
8.040973618e-01,2.26242e-01,9.60651e-01,2.35509e-01,9.99999e-01
8.081178486e-01,2.37893e-01,9.81679e-01,2.42333e-01,9.99999e-01
8.121584379e-01,2.47804e-01,9.94345e-01,2.49213e-01,9.99999e-01
8.162192301e-01,2.55827e-01,9.98748e-01,2.56148e-01,9.99999e-01
8.203003262e-01,2.63128e-01,9.99982e-01,2.63132e-01,9.99999e-01
8.244018279e-01,2.70164e-01,9.99999e-01,2.70164e-01,9.99999e-01
8.285238370e-01,2.77239e-01,9.99999e-01,2.77239e-01,9.99999e-01
8.326664562e-01,2.84354e-01,9.99999e-01,2.84354e-01,9.99999e-01
8.368297885e-01,2.91505e-01,9.99999e-01,2.91505e-01,9.99999e-01
8.410139374e-01,2.98690e-01,9.99999e-01,2.98690e-01,9.99999e-01
8.452190071e-01,3.05905e-01,9.99999e-01,3.05905e-01,9.99999e-01
8.494451021e-01,3.13147e-01,9.99999e-01,3.13147e-01,9.99999e-01
8.536923276e-01,3.20411e-01,9.99999e-01,3.20411e-01,9.99999e-01
8.579607893e-01,3.27696e-01,9.99999e-01,3.27696e-01,9.99999e-01
8.622505932e-01,3.34998e-01,9.99999e-01,3.34998e-01,9.99999e-01
8.665618462e-01,3.02218e-01,8.82868e-01,3.42313e-01,9.99999e-01
8.708946554e-01,1.53170e-01,4.38080e-01,3.49639e-01,9.99999e-01
8.752491287e-01,1.81230e-01,5.07686e-01,3.56972e-01,9.99999e-01
8.796253743e-01,2.49482e-01,6.84806e-01,3.64310e-01,9.99999e-01
8.840235012e-01,3.04699e-01,8.19855e-01,3.71649e-01,9.99999e-01
8.884436187e-01,3.50430e-01,9.24650e-01,3.78987e-01,9.99999e-01
8.928858368e-01,3.74214e-01,9.68661e-01,3.86320e-01,9.99999e-01
8.973502660e-01,3.90626e-01,9.92327e-01,3.93646e-01,9.99999e-01
9.018370173e-01,4.00623e-01,9.99153e-01,4.00963e-01,9.99999e-01
9.063462024e-01,3.99369e-01,9.78207e-01,4.08266e-01,9.99999e-01
9.108779334e-01,3.95186e-01,9.50982e-01,4.15555e-01,9.99999e-01
9.154323231e-01,4.17901e-01,9.88352e-01,4.22826e-01,9.99999e-01
9.200094847e-01,3.66516e-01,8.52212e-01,4.30076e-01,9.99999e-01
9.246095321e-01,3.42183e-01,7.82482e-01,4.37305e-01,9.99999e-01
9.292325798e-01,3.67081e-01,8.25815e-01,4.44508e-01,9.99999e-01
9.338787427e-01,3.75334e-01,8.30966e-01,4.51684e-01,9.99999e-01
9.385481364e-01,4.00165e-01,8.72139e-01,4.58831e-01,9.99999e-01
9.432408771e-01,4.28458e-01,9.19544e-01,4.65946e-01,9.99999e-01
9.479570815e-01,4.53064e-01,9.57795e-01,4.73028e-01,9.99999e-01
9.526968669e-01,4.70217e-01,9.79466e-01,4.80074e-01,9.99999e-01
9.574603512e-01,4.82782e-01,9.91168e-01,4.87084e-01,9.99999e-01
9.622476530e-01,4.92690e-01,9.97239e-01,4.94054e-01,9.99999e-01
9.670588912e-01,5.00569e-01,9.99173e-01,5.00983e-01,9.99999e-01
9.718941857e-01,5.07840e-01,9.99942e-01,5.07869e-01,9.99999e-01
9.767536566e-01,5.14712e-01,9.99999e-01,5.14712e-01,9.99999e-01
9.816374249e-01,5.21509e-01,9.99999e-01,5.21509e-01,9.99999e-01
9.865456120e-01,5.28258e-01,9.99999e-01,5.28258e-01,9.99999e-01
9.914783401e-01,5.34959e-01,9.99999e-01,5.34959e-01,9.99999e-01
9.964357318e-01,5.41611e-01,9.99999e-01,5.41611e-01,9.99999e-01
1.001417910e+00,5.48211e-01,9.99999e-01,5.48211e-01,9.99999e-01
1.006425000e+00,5.54758e-01,9.99999e-01,5.54758e-01,9.99999e-01
1.011457125e+00,5.61253e-01,9.99999e-01,5.61253e-01,9.99999e-01
1.016514411e+00,5.67693e-01,9.99999e-01,5.67693e-01,9.99999e-01
1.021596983e+00,5.74003e-01,9.99871e-01,5.74077e-01,9.99999e-01
1.026704968e+00,5.75389e-01,9.91357e-01,5.80405e-01,9.99999e-01
1.031838492e+00,5.39767e-01,9.20043e-01,5.86675e-01,9.99999e-01
1.036997685e+00,4.14537e-02,6.99183e-02,5.92888e-01,9.99999e-01
1.042182673e+00,7.52953e-03,1.25693e-02,5.99041e-01,9.99999e-01
1.047393587e+00,1.52523e-02,2.52047e-02,6.05136e-01,9.99999e-01
1.052630555e+00,1.36045e-05,2.22598e-05,6.11169e-01,9.99999e-01
1.057893707e+00,4.99202e-05,8.08892e-05,6.17142e-01,9.99999e-01
1.063183176e+00,5.57416e-04,8.94650e-04,6.23054e-01,9.99999e-01
1.068499092e+00,3.59534e-03,5.71682e-03,6.28904e-01,9.99999e-01
1.073841587e+00,2.34843e-02,3.70011e-02,6.34692e-01,9.99999e-01
1.079210795e+00,8.00085e-02,1.24932e-01,6.40417e-01,9.99999e-01
1.084606849e+00,2.01171e-01,3.11371e-01,6.46079e-01,9.99999e-01
1.090029883e+00,3.54171e-01,5.43476e-01,6.51678e-01,9.99999e-01
1.095480033e+00,4.86430e-01,7.40140e-01,6.57213e-01,9.99999e-01
1.100957433e+00,5.72954e-01,8.64594e-01,6.62685e-01,9.99999e-01
1.106462220e+00,6.29082e-01,9.41608e-01,6.68092e-01,9.99999e-01
1.111994531e+00,6.58573e-01,9.77929e-01,6.73436e-01,9.99999e-01
1.117554504e+00,6.75042e-01,9.94586e-01,6.78716e-01,9.99999e-01
1.123142276e+00,6.83689e-01,9.99645e-01,6.83932e-01,9.99999e-01
1.128757988e+00,6.89083e-01,9.99999e-01,6.89083e-01,9.99999e-01
1.134401778e+00,6.94170e-01,9.99999e-01,6.94170e-01,9.99999e-01
1.140073787e+00,6.99194e-01,9.99999e-01,6.99194e-01,9.99999e-01
1.145774156e+00,7.04153e-01,9.99999e-01,7.04153e-01,9.99999e-01
1.151503026e+00,7.09049e-01,9.99999e-01,7.09049e-01,9.99999e-01
1.157260541e+00,7.13880e-01,9.99999e-01,7.13880e-01,9.99999e-01
1.163046844e+00,7.18649e-01,9.99999e-01,7.18649e-01,9.99999e-01
1.168862078e+00,7.23354e-01,9.99999e-01,7.23354e-01,9.99999e-01
1.174706389e+00,7.27996e-01,9.99999e-01,7.27996e-01,9.99999e-01
1.180579921e+00,7.32575e-01,9.99999e-01,7.32575e-01,9.99999e-01
1.186482820e+00,7.37079e-01,9.99980e-01,7.37092e-01,9.99999e-01
1.192415234e+00,7.19313e-01,9.70016e-01,7.41547e-01,9.99999e-01
1.198377311e+00,3.97298e-01,5.32614e-01,7.45940e-01,9.99999e-01
1.204369197e+00,9.95095e-23,1.32631e-22,7.50271e-01,9.99999e-01
1.210391043e+00,3.12650e-90,4.14357e-90,7.54541e-01,9.99999e-01
1.216442998e+00,3.67416e-78,4.84237e-78,7.58750e-01,9.99999e-01
1.222525213e+00,5.37019e-77,7.03918e-77,7.62899e-01,9.99999e-01
1.228637839e+00,1.70235e-59,2.21953e-59,7.66988e-01,9.99999e-01
1.234781029e+00,2.94119e-37,3.81468e-37,7.71018e-01,9.99999e-01
1.240954934e+00,7.92734e-25,1.02290e-24,7.74988e-01,9.99999e-01
1.247159708e+00,2.61916e-12,3.36263e-12,7.78900e-01,9.99999e-01
1.253395507e+00,2.65278e-08,3.38903e-08,7.82754e-01,9.99999e-01
1.259662485e+00,4.35124e-05,5.53205e-05,7.86550e-01,9.99999e-01
1.265960797e+00,3.28783e-03,4.16028e-03,7.90289e-01,9.99999e-01
1.272290601e+00,6.55795e-02,8.25967e-02,7.93972e-01,9.99999e-01
1.278652054e+00,5.67778e-02,7.11858e-02,7.97598e-01,9.99999e-01
1.285045314e+00,1.77039e-04,2.20976e-04,8.01169e-01,9.99999e-01
1.291470541e+00,5.74315e-11,7.13713e-11,8.04685e-01,9.99999e-01
1.297927893e+00,2.17971e-04,2.69717e-04,8.08146e-01,9.99999e-01
1.304417533e+00,8.28996e-03,1.02149e-02,8.11554e-01,9.99999e-01
1.310939621e+00,1.42764e-03,1.75191e-03,8.14908e-01,9.99999e-01
1.317494319e+00,2.04270e-31,2.49655e-31,8.18209e-01,9.99999e-01
1.324081790e+00,1.49536e-20,1.82037e-20,8.21458e-01,9.99999e-01
1.330702199e+00,3.23877e-12,3.92742e-12,8.24656e-01,9.99999e-01
1.337355710e+00,2.44271e-11,2.95083e-11,8.27802e-01,9.99999e-01
1.344042489e+00,1.08602e-11,1.30704e-11,8.30898e-01,9.99999e-01
1.350762701e+00,1.73923e-12,2.08554e-12,8.33944e-01,9.99999e-01
1.357516515e+00,7.17194e-08,8.56922e-08,8.36940e-01,9.99999e-01
1.364304097e+00,9.70455e-06,1.15546e-05,8.39888e-01,9.99999e-01
1.371125618e+00,2.52600e-03,2.99719e-03,8.42788e-01,9.99999e-01
1.377981246e+00,5.87155e-03,6.94332e-03,8.45640e-01,9.99999e-01
1.384871152e+00,4.68744e-02,5.52473e-02,8.48445e-01,9.99999e-01
1.391795508e+00,5.89307e-02,6.92321e-02,8.51204e-01,9.99999e-01
1.398754485e+00,1.60526e-01,1.87987e-01,8.53917e-01,9.99999e-01
1.405748258e+00,2.52816e-01,2.95143e-01,8.56585e-01,9.99999e-01
1.412776999e+00,3.95899e-01,4.60772e-01,8.59208e-01,9.99999e-01
1.419840884e+00,3.58613e-01,4.16126e-01,8.61787e-01,9.99999e-01
1.426940089e+00,1.66999e-02,1.93214e-02,8.64323e-01,9.99999e-01
1.434074789e+00,0.00000e+00,0.00000e+00,8.66816e-01,9.99999e-01
1.441245163e+00,0.00000e+00,0.00000e+00,8.69266e-01,9.99999e-01
1.448451389e+00,0.00000e+00,0.00000e+00,8.71675e-01,9.99999e-01
1.455693646e+00,0.00000e+00,0.00000e+00,8.74043e-01,9.99999e-01
1.462972114e+00,0.00000e+00,0.00000e+00,8.76370e-01,9.99999e-01
1.470286975e+00,3.41156e-149,3.88269e-149,8.78658e-01,9.99999e-01
1.477638409e+00,8.53058e-94,9.68386e-94,8.80906e-01,9.99999e-01
1.485026601e+00,2.86624e-52,3.24560e-52,8.83115e-01,9.99999e-01
1.492451734e+00,1.57378e-44,1.77771e-44,8.85286e-01,9.99999e-01
1.499913993e+00,2.15663e-19,2.43022e-19,8.87419e-01,9.99999e-01
1.507413563e+00,3.71417e-18,4.17549e-18,8.89515e-01,9.99999e-01
1.514950631e+00,1.23312e-19,1.38308e-19,8.91575e-01,9.99999e-01
1.522525384e+00,1.07361e-66,1.20144e-66,8.93598e-01,9.99999e-01
1.530138011e+00,3.31855e-159,3.70545e-159,8.95586e-01,9.99999e-01
1.537788701e+00,8.79277e-118,9.79652e-118,8.97539e-01,9.99999e-01
1.545477645e+00,6.48958e-25,7.21499e-25,8.99457e-01,9.99999e-01
1.553205033e+00,3.91355e-18,4.34192e-18,9.01342e-01,9.99999e-01
1.560971058e+00,1.76509e-18,1.95428e-18,9.03193e-01,9.99999e-01
1.568775913e+00,0.00000e+00,0.00000e+00,9.05011e-01,9.99999e-01
1.576619793e+00,0.00000e+00,0.00000e+00,9.06797e-01,9.99999e-01
1.584502892e+00,0.00000e+00,0.00000e+00,9.08551e-01,9.99999e-01
1.592425406e+00,0.00000e+00,0.00000e+00,9.10274e-01,9.99999e-01
1.600387533e+00,0.00000e+00,0.00000e+00,9.11966e-01,9.99999e-01
1.608389471e+00,0.00000e+00,0.00000e+00,9.13627e-01,9.99999e-01
1.616431418e+00,0.00000e+00,0.00000e+00,9.15259e-01,9.99999e-01
1.624513575e+00,0.00000e+00,0.00000e+00,9.16861e-01,9.99999e-01
1.632636143e+00,0.00000e+00,0.00000e+00,9.18434e-01,9.99999e-01
1.640799324e+00,3.18265e-138,3.45947e-138,9.19979e-01,9.99999e-01
1.649003321e+00,3.18654e-138,3.45801e-138,9.21496e-01,9.99999e-01
1.657248337e+00,7.99734e-107,8.66463e-107,9.22985e-01,9.99999e-01
1.665534579e+00,1.54668e-107,1.67308e-107,9.24448e-01,9.99999e-01
1.673862252e+00,1.39789e-68,1.50979e-68,9.25883e-01,9.99999e-01
1.682231563e+00,1.68205e-47,1.81393e-47,9.27293e-01,9.99999e-01
1.690642721e+00,2.08421e-26,2.24428e-26,9.28676e-01,9.99999e-01
1.699095934e+00,6.95407e-17,7.47721e-17,9.30035e-01,9.99999e-01
1.707591414e+00,8.40119e-09,9.02027e-09,9.31368e-01,9.99999e-01
1.716129371e+00,1.94848e-05,2.08912e-05,9.32677e-01,9.99999e-01
1.724710018e+00,1.92578e-03,2.06194e-03,9.33962e-01,9.99999e-01
1.733333568e+00,1.52002e-02,1.62530e-02,9.35223e-01,9.99999e-01
1.742000236e+00,8.43666e-02,9.00908e-02,9.36461e-01,9.99999e-01
1.750710237e+00,4.32203e-04,4.60930e-04,9.37676e-01,9.99999e-01
1.759463788e+00,1.72968e-65,1.84230e-65,9.38869e-01,9.99999e-01
1.768261107e+00,1.55108e-68,1.65002e-68,9.40039e-01,9.99999e-01
1.777102413e+00,9.67593e-67,1.02805e-66,9.41188e-01,9.99999e-01
1.785987925e+00,1.54951e-62,1.64437e-62,9.42315e-01,9.99999e-01
1.794917864e+00,1.01606e-59,1.07699e-59,9.43422e-01,9.99999e-01
1.803892454e+00,2.13200e-57,2.25726e-57,9.44508e-01,9.99999e-01
1.812911916e+00,3.72765e-55,3.94220e-55,9.45574e-01,9.99999e-01
1.821976476e+00,3.24978e-55,3.43303e-55,9.46619e-01,9.99999e-01
1.831086358e+00,2.44960e-44,2.58493e-44,9.47646e-01,9.99999e-01
1.840241790e+00,9.14564e-38,9.64065e-38,9.48653e-01,9.99999e-01
1.849442999e+00,2.94228e-26,3.09830e-26,9.49641e-01,9.99999e-01
1.858690214e+00,1.09970e-24,1.15683e-24,9.50611e-01,9.99999e-01
1.867983665e+00,2.62609e-25,2.75977e-25,9.51562e-01,9.99999e-01
1.877323583e+00,3.67765e-125,3.86107e-125,9.52496e-01,9.99999e-01
