#,Wave/freq,Total,CO2,Rayleigh,CIA
4.000000000e-01,3.33999e-07,9.99999e-01,3.33999e-07,9.99999e-01
4.020000000e-01,4.48539e-07,9.99999e-01,4.48539e-07,9.99999e-01
4.040100000e-01,5.98678e-07,9.99999e-01,5.98678e-07,9.99999e-01
4.060300500e-01,7.94528e-07,9.99999e-01,7.94528e-07,9.99999e-01
4.080602003e-01,1.04857e-06,9.99999e-01,1.04857e-06,9.99999e-01
4.101005013e-01,1.37627e-06,9.99999e-01,1.37627e-06,9.99999e-01
4.121510038e-01,1.79672e-06,9.99999e-01,1.79672e-06,9.99999e-01
4.142117588e-01,2.33329e-06,9.99999e-01,2.33329e-06,9.99999e-01
4.162828176e-01,3.01450e-06,9.99999e-01,3.01450e-06,9.99999e-01
4.183642317e-01,3.87493e-06,9.99999e-01,3.87493e-06,9.99999e-01
4.204560528e-01,4.95632e-06,9.99999e-01,4.95632e-06,9.99999e-01
4.225583331e-01,6.30875e-06,9.99999e-01,6.30875e-06,9.99999e-01
4.246711247e-01,7.99203e-06,9.99999e-01,7.99203e-06,9.99999e-01
4.267944804e-01,1.00773e-05,9.99999e-01,1.00773e-05,9.99999e-01
4.289284528e-01,1.26485e-05,9.99999e-01,1.26485e-05,9.99999e-01
4.310730950e-01,1.58047e-05,9.99999e-01,1.58047e-05,9.99999e-01
4.332284605e-01,1.96617e-05,9.99999e-01,1.96617e-05,9.99999e-01
4.353946028e-01,2.43548e-05,9.99999e-01,2.43548e-05,9.99999e-01
4.375715758e-01,3.00407e-05,9.99999e-01,3.00407e-05,9.99999e-01
4.397594337e-01,3.69009e-05,9.99999e-01,3.69009e-05,9.99999e-01
4.419582309e-01,4.51439e-05,9.99999e-01,4.51439e-05,9.99999e-01
4.441680220e-01,5.50087e-05,9.99999e-01,5.50087e-05,9.99999e-01
4.463888621e-01,6.67680e-05,9.99999e-01,6.67680e-05,9.99999e-01
4.486208064e-01,8.07316e-05,9.99999e-01,8.07316e-05,9.99999e-01
4.508639105e-01,9.72499e-05,9.99999e-01,9.72499e-05,9.99999e-01
4.531182300e-01,1.16718e-04,9.99999e-01,1.16718e-04,9.99999e-01
4.553838212e-01,1.39580e-04,9.99999e-01,1.39580e-04,9.99999e-01
4.576607403e-01,1.66330e-04,9.99999e-01,1.66330e-04,9.99999e-01
4.599490440e-01,1.97523e-04,9.99999e-01,1.97523e-04,9.99999e-01
4.622487892e-01,2.33769e-04,9.99999e-01,2.33769e-04,9.99999e-01
4.645600332e-01,2.75748e-04,9.99999e-01,2.75748e-04,9.99999e-01
4.668828333e-01,3.24206e-04,9.99999e-01,3.24206e-04,9.99999e-01
4.692172475e-01,3.79963e-04,9.99999e-01,3.79963e-04,9.99999e-01
4.715633337e-01,4.43915e-04,9.99999e-01,4.43915e-04,9.99999e-01
4.739211504e-01,5.17040e-04,9.99999e-01,5.17040e-04,9.99999e-01
4.762907561e-01,6.00399e-04,9.99999e-01,6.00399e-04,9.99999e-01
4.786722099e-01,6.95143e-04,9.99999e-01,6.95143e-04,9.99999e-01
4.810655710e-01,8.02511e-04,9.99999e-01,8.02511e-04,9.99999e-01
4.834708988e-01,9.23838e-04,9.99999e-01,9.23838e-04,9.99999e-01
4.858882533e-01,1.06055e-03,9.99999e-01,1.06055e-03,9.99999e-01
4.883176946e-01,1.21419e-03,9.99999e-01,1.21419e-03,9.99999e-01
4.907592831e-01,1.38637e-03,9.99999e-01,1.38637e-03,9.99999e-01
4.932130795e-01,1.57882e-03,9.99999e-01,1.57882e-03,9.99999e-01
4.956791449e-01,1.79338e-03,9.99999e-01,1.79338e-03,9.99999e-01
4.981575406e-01,2.03198e-03,9.99999e-01,2.03198e-03,9.99999e-01
5.006483283e-01,2.29665e-03,9.99999e-01,2.29665e-03,9.99999e-01
5.031515699e-01,2.58952e-03,9.99999e-01,2.58952e-03,9.99999e-01
5.056673278e-01,2.91283e-03,9.99999e-01,2.91283e-03,9.99999e-01
5.081956644e-01,3.26890e-03,9.99999e-01,3.26890e-03,9.99999e-01
5.107366428e-01,3.66014e-03,9.99999e-01,3.66014e-03,9.99999e-01
5.132903260e-01,4.08907e-03,9.99999e-01,4.08907e-03,9.99999e-01
5.158567776e-01,4.55828e-03,9.99999e-01,4.55828e-03,9.99999e-01
5.184360615e-01,5.07044e-03,9.99999e-01,5.07044e-03,9.99999e-01
5.210282418e-01,5.62829e-03,9.99999e-01,5.62829e-03,9.99999e-01
5.236333830e-01,6.23466e-03,9.99999e-01,6.23466e-03,9.99999e-01
5.262515499e-01,6.89240e-03,9.99999e-01,6.89240e-03,9.99999e-01
5.288828077e-01,7.60445e-03,9.99999e-01,7.60445e-03,9.99999e-01
5.315272217e-01,8.37379e-03,9.99999e-01,8.37379e-03,9.99999e-01
5.341848578e-01,9.20343e-03,9.99999e-01,9.20343e-03,9.99999e-01
5.368557821e-01,1.00964e-02,9.99999e-01,1.00964e-02,9.99999e-01
5.395400610e-01,1.10558e-02,9.99999e-01,1.10558e-02,9.99999e-01
5.422377613e-01,1.20846e-02,9.99999e-01,1.20846e-02,9.99999e-01
5.449489501e-01,1.31860e-02,9.99999e-01,1.31860e-02,9.99999e-01
5.476736949e-01,1.43630e-02,9.99999e-01,1.43630e-02,9.99999e-01
5.504120634e-01,1.56187e-02,9.99999e-01,1.56187e-02,9.99999e-01
5.531641237e-01,1.69561e-02,9.99999e-01,1.69561e-02,9.99999e-01
5.559299443e-01,1.83781e-02,9.99999e-01,1.83781e-02,9.99999e-01
5.587095940e-01,1.98877e-02,9.99999e-01,1.98877e-02,9.99999e-01
5.615031420e-01,2.14878e-02,9.99999e-01,2.14878e-02,9.99999e-01
5.643106577e-01,2.31812e-02,9.99999e-01,2.31812e-02,9.99999e-01
5.671322110e-01,2.49705e-02,9.99999e-01,2.49705e-02,9.99999e-01
5.699678720e-01,2.68585e-02,9.99999e-01,2.68585e-02,9.99999e-01
5.728177114e-01,2.88478e-02,9.99999e-01,2.88478e-02,9.99999e-01
5.756818000e-01,3.09406e-02,9.99999e-01,3.09406e-02,9.99999e-01
5.785602090e-01,3.31394e-02,9.99999e-01,3.31394e-02,9.99999e-01
5.814530100e-01,3.54463e-02,9.99999e-01,3.54463e-02,9.99999e-01
5.843602750e-01,3.78635e-02,9.99999e-01,3.78635e-02,9.99999e-01
5.872820764e-01,4.03929e-02,9.99999e-01,4.03929e-02,9.99999e-01
5.902184868e-01,4.30362e-02,9.99999e-01,4.30362e-02,9.99999e-01
5.931695792e-01,4.57951e-02,9.99999e-01,4.57951e-02,9.99999e-01
5.961354271e-01,4.86711e-02,9.99999e-01,4.86711e-02,9.99999e-01
5.991161043e-01,5.16655e-02,9.99999e-01,5.16655e-02,9.99999e-01
6.021116848e-01,5.47795e-02,9.99999e-01,5.47795e-02,9.99999e-01
6.051222432e-01,5.80141e-02,9.99999e-01,5.80141e-02,9.99999e-01
6.081478544e-01,6.13701e-02,9.99999e-01,6.13701e-02,9.99999e-01
6.111885937e-01,6.48481e-02,9.99999e-01,6.48481e-02,9.99999e-01
6.142445367e-01,6.84487e-02,9.99999e-01,6.84487e-02,9.99999e-01
6.173157594e-01,7.21722e-02,9.99999e-01,7.21722e-02,9.99999e-01
6.204023382e-01,7.60186e-02,9.99999e-01,7.60186e-02,9.99999e-01
6.235043498e-01,7.99879e-02,9.99999e-01,7.99879e-02,9.99999e-01
6.266218716e-01,8.40799e-02,9.99999e-01,8.40799e-02,9.99999e-01
6.297549810e-01,8.82942e-02,9.99999e-01,8.82942e-02,9.99999e-01
6.329037559e-01,9.26302e-02,9.99999e-01,9.26302e-02,9.99999e-01
6.360682746e-01,9.70872e-02,9.99999e-01,9.70872e-02,9.99999e-01
6.392486160e-01,1.01664e-01,9.99999e-01,1.01664e-01,9.99999e-01
6.424448591e-01,1.06360e-01,9.99999e-01,1.06360e-01,9.99999e-01
6.456570834e-01,1.11174e-01,9.99999e-01,1.11174e-01,9.99999e-01
6.488853688e-01,1.16104e-01,9.99999e-01,1.16104e-01,9.99999e-01
6.521297956e-01,1.21148e-01,9.99999e-01,1.21148e-01,9.99999e-01
6.553904446e-01,1.26306e-01,9.99999e-01,1.26306e-01,9.99999e-01
6.586673968e-01,1.31575e-01,9.99999e-01,1.31575e-01,9.99999e-01
6.619607338e-01,1.36953e-01,9.99999e-01,1.36953e-01,9.99999e-01
6.652705375e-01,1.42438e-01,9.99999e-01,1.42438e-01,9.99999e-01
6.685968902e-01,1.48028e-01,9.99999e-01,1.48028e-01,9.99999e-01
6.719398746e-01,1.53721e-01,9.99999e-01,1.53721e-01,9.99999e-01
6.752995740e-01,1.59513e-01,9.99999e-01,1.59513e-01,9.99999e-01
6.786760719e-01,1.65403e-01,9.99999e-01,1.65403e-01,9.99999e-01
6.820694522e-01,1.71387e-01,9.99999e-01,1.71387e-01,9.99999e-01
6.854797995e-01,1.77464e-01,9.99999e-01,1.77464e-01,9.99999e-01
6.889071985e-01,1.83629e-01,9.99999e-01,1.83629e-01,9.99999e-01
6.923517345e-01,1.89881e-01,9.99999e-01,1.89881e-01,9.99999e-01
6.958134932e-01,1.96215e-01,9.99999e-01,1.96215e-01,9.99999e-01
6.992925606e-01,2.02630e-01,9.99999e-01,2.02630e-01,9.99999e-01
7.027890234e-01,2.09121e-01,9.99999e-01,2.09121e-01,9.99999e-01
7.063029686e-01,2.15686e-01,9.99999e-01,2.15686e-01,9.99999e-01
7.098344834e-01,2.22321e-01,9.99999e-01,2.22321e-01,9.99999e-01
7.133836558e-01,2.29023e-01,9.99999e-01,2.29023e-01,9.99999e-01
7.169505741e-01,2.35788e-01,9.99999e-01,2.35788e-01,9.99999e-01
7.205353270e-01,2.42614e-01,9.99999e-01,2.42614e-01,9.99999e-01
7.241380036e-01,2.49497e-01,9.99999e-01,2.49497e-01,9.99999e-01
7.277586936e-01,2.56434e-01,9.99999e-01,2.56434e-01,9.99999e-01
7.313974871e-01,2.63421e-01,9.99999e-01,2.63421e-01,9.99999e-01
7.350544745e-01,2.70454e-01,9.99999e-01,2.70454e-01,9.99999e-01
7.387297469e-01,2.77531e-01,9.99999e-01,2.77531e-01,9.99999e-01
7.424233956e-01,2.84647e-01,9.99999e-01,2.84647e-01,9.99999e-01
7.461355126e-01,2.91800e-01,9.99999e-01,2.91800e-01,9.99999e-01
7.498661902e-01,2.98986e-01,9.99999e-01,2.98986e-01,9.99999e-01
7.536155211e-01,3.06202e-01,9.99999e-01,3.06202e-01,9.99999e-01
7.573835987e-01,3.13445e-01,9.99999e-01,3.13445e-01,9.99999e-01
7.611705167e-01,3.20711e-01,9.99999e-01,3.20711e-01,9.99999e-01
7.649763693e-01,3.27996e-01,9.99999e-01,3.27996e-01,9.99999e-01
7.688012511e-01,3.35298e-01,9.99999e-01,3.35298e-01,9.99999e-01
7.726452574e-01,3.42614e-01,9.99999e-01,3.42614e-01,9.99999e-01
7.765084837e-01,3.49941e-01,9.99999e-01,3.49941e-01,9.99999e-01
7.803910261e-01,3.40980e-01,9.54391e-01,3.57274e-01,9.99999e-01
7.842929812e-01,2.94041e-01,8.06449e-01,3.64612e-01,9.99999e-01
7.882144461e-01,2.95803e-01,7.95272e-01,3.71951e-01,9.99999e-01
7.921555184e-01,3.31318e-01,8.73524e-01,3.79288e-01,9.99999e-01
7.961162960e-01,3.52987e-01,9.13003e-01,3.86622e-01,9.99999e-01
8.000968774e-01,3.74992e-01,9.51882e-01,3.93947e-01,9.99999e-01
8.040973618e-01,3.91123e-01,9.74729e-01,4.01263e-01,9.99999e-01
8.081178486e-01,4.03802e-01,9.88338e-01,4.08566e-01,9.99999e-01
8.121584379e-01,4.14346e-01,9.96372e-01,4.15854e-01,9.99999e-01
8.162192301e-01,4.22785e-01,9.99197e-01,4.23124e-01,9.99999e-01
8.203003262e-01,4.30369e-01,9.99987e-01,4.30374e-01,9.99999e-01
8.244018279e-01,4.37601e-01,9.99999e-01,4.37601e-01,9.99999e-01
8.285238370e-01,4.44803e-01,9.99999e-01,4.44803e-01,9.99999e-01
8.326664562e-01,4.51978e-01,9.99999e-01,4.51978e-01,9.99999e-01
8.368297885e-01,4.59124e-01,9.99999e-01,4.59124e-01,9.99999e-01
8.410139374e-01,4.66238e-01,9.99999e-01,4.66238e-01,9.99999e-01
8.452190071e-01,4.73318e-01,9.99999e-01,4.73318e-01,9.99999e-01
8.494451021e-01,4.80363e-01,9.99999e-01,4.80363e-01,9.99999e-01
8.536923276e-01,4.87371e-01,9.99999e-01,4.87371e-01,9.99999e-01
8.579607893e-01,4.94339e-01,9.99999e-01,4.94339e-01,9.99999e-01
8.622505932e-01,5.01267e-01,9.99999e-01,5.01267e-01,9.99999e-01
8.665618462e-01,4.62319e-01,9.09804e-01,5.08152e-01,9.99999e-01
8.708946554e-01,3.00063e-01,5.82655e-01,5.14992e-01,9.99999e-01
8.752491287e-01,3.36161e-01,6.44248e-01,5.21787e-01,9.99999e-01
8.796253743e-01,4.14340e-01,7.83939e-01,5.28535e-01,9.99999e-01
8.840235012e-01,4.71530e-01,8.80979e-01,5.35234e-01,9.99999e-01
8.884436187e-01,5.15413e-01,9.51151e-01,5.41883e-01,9.99999e-01
8.928858368e-01,5.37474e-01,9.79931e-01,5.48481e-01,9.99999e-01
8.973502660e-01,5.52294e-01,9.95077e-01,5.55026e-01,9.99999e-01
9.018370173e-01,5.61213e-01,9.99455e-01,5.61519e-01,9.99999e-01
9.063462024e-01,5.60206e-01,9.86354e-01,5.67956e-01,9.99999e-01
9.108779334e-01,5.56278e-01,9.68554e-01,5.74338e-01,9.99999e-01
9.154323231e-01,5.76310e-01,9.92501e-01,5.80664e-01,9.99999e-01
9.200094847e-01,5.28323e-01,9.00143e-01,5.86932e-01,9.99999e-01
9.246095321e-01,5.07409e-01,8.55458e-01,5.93142e-01,9.99999e-01
9.292325798e-01,5.30806e-01,8.85719e-01,5.99293e-01,9.99999e-01
9.338787427e-01,5.37958e-01,8.88621e-01,6.05385e-01,9.99999e-01
9.385481364e-01,5.60517e-01,9.16750e-01,6.11416e-01,9.99999e-01
9.432408771e-01,5.85322e-01,9.48063e-01,6.17387e-01,9.99999e-01
9.479570815e-01,6.06488e-01,9.73033e-01,6.23296e-01,9.99999e-01
9.526968669e-01,6.20902e-01,9.86900e-01,6.29143e-01,9.99999e-01
9.574603512e-01,6.31358e-01,9.94375e-01,6.34928e-01,9.99999e-01
9.622476530e-01,6.39525e-01,9.98241e-01,6.40651e-01,9.99999e-01
9.670588912e-01,6.45970e-01,9.99472e-01,6.46310e-01,9.99999e-01
9.718941857e-01,6.51882e-01,9.99962e-01,6.51907e-01,9.99999e-01
9.767536566e-01,6.57439e-01,9.99999e-01,6.57439e-01,9.99999e-01
9.816374249e-01,6.62908e-01,9.99999e-01,6.62908e-01,9.99999e-01
9.865456120e-01,6.68313e-01,9.99999e-01,6.68313e-01,9.99999e-01
9.914783401e-01,6.73655e-01,9.99999e-01,6.73655e-01,9.99999e-01
9.964357318e-01,6.78932e-01,9.99999e-01,6.78932e-01,9.99999e-01
1.001417910e+00,6.84145e-01,9.99999e-01,6.84145e-01,9.99999e-01
1.006425000e+00,6.89293e-01,9.99999e-01,6.89293e-01,9.99999e-01
1.011457125e+00,6.94378e-01,9.99999e-01,6.94378e-01,9.99999e-01
1.016514411e+00,6.99399e-01,9.99999e-01,6.99399e-01,9.99999e-01
1.021596983e+00,7.04306e-01,9.99929e-01,7.04356e-01,9.99999e-01
1.026704968e+00,7.05458e-01,9.94654e-01,7.09249e-01,9.99999e-01
1.031838492e+00,6.74692e-01,9.44843e-01,7.14078e-01,9.99999e-01
1.036997685e+00,7.91326e-02,1.10083e-01,7.18844e-01,9.99999e-01
1.042182673e+00,3.78664e-02,5.23345e-02,7.23546e-01,9.99999e-01
1.047393587e+00,5.59345e-02,7.68134e-02,7.28186e-01,9.99999e-01
1.052630555e+00,4.35599e-04,5.94461e-04,7.32762e-01,9.99999e-01
1.057893707e+00,1.31379e-03,1.78195e-03,7.37277e-01,9.99999e-01
1.063183176e+00,6.72523e-03,9.06696e-03,7.41729e-01,9.99999e-01
1.068499092e+00,2.62633e-02,3.51999e-02,7.46119e-01,9.99999e-01
1.073841587e+00,8.96337e-02,1.19440e-01,7.50448e-01,9.99999e-01
1.079210795e+00,1.96503e-01,2.60367e-01,7.54715e-01,9.99999e-01
1.084606849e+00,3.59688e-01,4.73946e-01,7.58922e-01,9.99999e-01
1.090029883e+00,5.17476e-01,6.78151e-01,7.63069e-01,9.99999e-01
1.095480033e+00,6.33365e-01,8.25601e-01,7.67155e-01,9.99999e-01
1.100957433e+00,7.03103e-01,9.11719e-01,7.71182e-01,9.99999e-01
1.106462220e+00,7.46061e-01,9.62471e-01,7.75150e-01,9.99999e-01
1.111994531e+00,7.68091e-01,9.85919e-01,7.79060e-01,9.99999e-01
1.117554504e+00,7.80202e-01,9.96538e-01,7.82911e-01,9.99999e-01
1.123142276e+00,7.86526e-01,9.99771e-01,7.86705e-01,9.99999e-01
1.128757988e+00,7.90442e-01,9.99999e-01,7.90442e-01,9.99999e-01
1.134401778e+00,7.94122e-01,9.99999e-01,7.94122e-01,9.99999e-01
1.140073787e+00,7.97746e-01,9.99999e-01,7.97746e-01,9.99999e-01
1.145774156e+00,8.01315e-01,9.99999e-01,8.01315e-01,9.99999e-01
1.151503026e+00,8.04828e-01,9.99999e-01,8.04828e-01,9.99999e-01
1.157260541e+00,8.08288e-01,9.99999e-01,8.08288e-01,9.99999e-01
1.163046844e+00,8.11693e-01,9.99999e-01,8.11693e-01,9.99999e-01
1.168862078e+00,8.15045e-01,9.99999e-01,8.15045e-01,9.99999e-01
1.174706389e+00,8.18344e-01,9.99999e-01,8.18344e-01,9.99999e-01
1.180579921e+00,8.21591e-01,9.99999e-01,8.21591e-01,9.99999e-01
1.186482820e+00,8.24779e-01,9.99990e-01,8.24786e-01,9.99999e-01
1.192415234e+00,8.12374e-01,9.81210e-01,8.27930e-01,9.99999e-01
1.198377311e+00,4.58402e-01,5.51610e-01,8.31024e-01,9.99999e-01
1.204369197e+00,3.52647e-15,4.22803e-15,8.34068e-01,9.99999e-01
1.210391043e+00,8.48739e-58,1.01395e-57,8.37062e-01,9.99999e-01
1.216442998e+00,3.54286e-50,4.21764e-50,8.40008e-01,9.99999e-01
1.222525213e+00,1.92658e-49,2.28564e-49,8.42906e-01,9.99999e-01
1.228637839e+00,2.77471e-38,3.28075e-38,8.45756e-01,9.99999e-01
1.234781029e+00,2.36646e-24,2.78879e-24,8.48559e-01,9.99999e-01
1.240954934e+00,2.30236e-16,2.70447e-16,8.51316e-01,9.99999e-01
1.247159708e+00,1.35007e-08,1.58083e-08,8.54027e-01,9.99999e-01
1.253395507e+00,1.08791e-05,1.26989e-05,8.56693e-01,9.99999e-01
1.259662485e+00,1.32937e-03,1.54701e-03,8.59315e-01,9.99999e-01
1.265960797e+00,2.09639e-02,2.43230e-02,8.61892e-01,9.99999e-01
1.272290601e+00,1.72270e-01,1.99288e-01,8.64426e-01,9.99999e-01
1.278652054e+00,1.47831e-01,1.70524e-01,8.66917e-01,9.99999e-01
1.285045314e+00,1.97520e-03,2.27200e-03,8.69366e-01,9.99999e-01
1.291470541e+00,2.16130e-07,2.47920e-07,8.71773e-01,9.99999e-01
1.297927893e+00,8.20841e-04,9.39026e-04,8.74140e-01,9.99999e-01
1.304417533e+00,4.60564e-02,5.25479e-02,8.76465e-01,9.99999e-01
1.310939621e+00,1.10050e-02,1.25234e-02,8.78751e-01,9.99999e-01
1.317494319e+00,3.10587e-20,3.52540e-20,8.80997e-01,9.99999e-01
1.324081790e+00,1.06158e-13,1.20196e-13,8.83205e-01,9.99999e-01
1.330702199e+00,4.06464e-08,4.59086e-08,8.85374e-01,9.99999e-01
1.337355710e+00,9.50033e-08,1.07045e-07,8.87506e-01,9.99999e-01
1.344042489e+00,3.35317e-08,3.76929e-08,8.89600e-01,9.99999e-01
1.350762701e+00,2.30300e-08,2.58283e-08,8.91658e-01,9.99999e-01
1.357516515e+00,1.57230e-05,1.75935e-05,8.93680e-01,9.99999e-01
1.364304097e+00,5.70971e-04,6.37481e-04,8.95667e-01,9.99999e-01
1.371125618e+00,2.00094e-02,2.22916e-02,8.97618e-01,9.99999e-01
1.377981246e+00,3.75293e-02,4.17208e-02,8.99535e-01,9.99999e-01
1.384871152e+00,1.41930e-01,1.57452e-01,9.01419e-01,9.99999e-01
1.391795508e+00,1.63482e-01,1.80989e-01,9.03268e-01,9.99999e-01
1.398754485e+00,3.13713e-01,3.46611e-01,9.05085e-01,9.99999e-01
1.405748258e+00,4.16393e-01,4.59153e-01,9.06870e-01,9.99999e-01
1.412776999e+00,5.55062e-01,6.10883e-01,9.08623e-01,9.99999e-01
1.419840884e+00,4.99833e-01,5.49058e-01,9.10344e-01,9.99999e-01
1.426940089e+00,3.51441e-02,3.85337e-02,9.12035e-01,9.99999e-01
1.434074789e+00,0.00000e+00,0.00000e+00,9.13695e-01,9.99999e-01
1.441245163e+00,0.00000e+00,0.00000e+00,9.15325e-01,9.99999e-01
1.448451389e+00,0.00000e+00,0.00000e+00,9.16926e-01,9.99999e-01
1.455693646e+00,0.00000e+00,0.00000e+00,9.18498e-01,9.99999e-01
1.462972114e+00,1.02374e-227,1.11271e-227,9.20042e-01,9.99999e-01
1.470286975e+00,5.04100e-95,5.47008e-95,9.21558e-01,9.99999e-01
1.477638409e+00,4.77087e-60,5.16861e-60,9.23046e-01,9.99999e-01
1.485026601e+00,8.04699e-34,8.70407e-34,9.24507e-01,9.99999e-01
1.492451734e+00,7.93761e-29,8.57247e-29,9.25942e-01,9.99999e-01
1.499913993e+00,4.82288e-13,5.20070e-13,9.27350e-01,9.99999e-01
1.507413563e+00,8.23769e-12,8.86981e-12,9.28733e-01,9.99999e-01
1.514950631e+00,3.16422e-13,3.40206e-13,9.30090e-01,9.99999e-01
1.522525384e+00,6.14245e-43,6.59469e-43,9.31422e-01,9.99999e-01
1.530138011e+00,2.42174e-101,2.59640e-101,9.32730e-01,9.99999e-01
1.537788701e+00,3.43508e-75,3.67775e-75,9.34014e-01,9.99999e-01
1.545477645e+00,1.47033e-16,1.57209e-16,9.35274e-01,9.99999e-01
1.553205033e+00,6.99189e-12,7.46588e-12,9.36511e-01,9.99999e-01
1.560971058e+00,2.44218e-12,2.60436e-12,9.37725e-01,9.99999e-01
1.568775913e+00,1.51594e-255,1.61457e-255,9.38917e-01,9.99999e-01
1.576619793e+00,0.00000e+00,0.00000e+00,9.40087e-01,9.99999e-01
1.584502892e+00,0.00000e+00,0.00000e+00,9.41235e-01,9.99999e-01
1.592425406e+00,8.26560e-228,8.77115e-228,9.42361e-01,9.99999e-01
1.600387533e+00,0.00000e+00,0.00000e+00,9.43467e-01,9.99999e-01
1.608389471e+00,0.00000e+00,0.00000e+00,9.44552e-01,9.99999e-01
1.616431418e+00,0.00000e+00,0.00000e+00,9.45617e-01,9.99999e-01
1.624513575e+00,2.56863e-289,2.71335e-289,9.46662e-01,9.99999e-01
1.632636143e+00,6.13837e-215,6.47721e-215,9.47687e-01,9.99999e-01
1.640799324e+00,4.25027e-88,4.48013e-88,9.48694e-01,9.99999e-01
1.649003321e+00,4.26023e-88,4.48595e-88,9.49681e-01,9.99999e-01
1.657248337e+00,2.87053e-68,3.01954e-68,9.50650e-01,9.99999e-01
1.665534579e+00,1.01650e-68,1.06820e-68,9.51601e-01,9.99999e-01
1.673862252e+00,4.09134e-44,4.29522e-44,9.52534e-01,9.99999e-01
1.682231563e+00,8.37919e-31,8.78828e-31,9.53449e-01,9.99999e-01
1.690642721e+00,1.69731e-17,1.77851e-17,9.54347e-01,9.99999e-01
1.699095934e+00,2.60748e-11,2.72969e-11,9.55229e-01,9.99999e-01
1.707591414e+00,3.11701e-06,3.26014e-06,9.56093e-01,9.99999e-01
1.716129371e+00,7.12654e-04,7.44719e-04,9.56942e-01,9.99999e-01
1.724710018e+00,1.68705e-02,1.76142e-02,9.57774e-01,9.99999e-01
1.733333568e+00,6.82539e-02,7.12023e-02,9.58590e-01,9.99999e-01
1.742000236e+00,2.01610e-01,2.10143e-01,9.59391e-01,9.99999e-01
1.750710237e+00,2.88264e-03,3.00220e-03,9.60177e-01,9.99999e-01
1.759463788e+00,4.04485e-42,4.20923e-42,9.60948e-01,9.99999e-01
1.768261107e+00,4.23170e-44,4.40021e-44,9.61705e-01,9.99999e-01
1.777102413e+00,9.21277e-43,9.57223e-43,9.62447e-01,9.99999e-01
1.785987925e+00,2.67191e-40,2.77406e-40,9.63175e-01,9.99999e-01
1.794917864e+00,1.75617e-38,1.82197e-38,9.63889e-01,9.99999e-01
1.803892454e+00,4.55759e-37,4.72490e-37,9.64589e-01,9.99999e-01
1.812911916e+00,1.35763e-35,1.40647e-35,9.65276e-01,9.99999e-01
1.821976476e+00,1.09480e-35,1.13339e-35,9.65950e-01,9.99999e-01
1.831086358e+00,8.05756e-29,8.33587e-29,9.66612e-01,9.99999e-01
1.840241790e+00,1.44709e-24,1.49607e-24,9.67260e-01,9.99999e-01
1.849442999e+00,3.78979e-17,3.91549e-17,9.67896e-01,9.99999e-01
1.858690214e+00,5.06728e-16,5.23197e-16,9.68520e-01,9.99999e-01
1.867983665e+00,1.00626e-16,1.03831e-16,9.69133e-01,9.99999e-01
1.877323583e+00,7.55082e-80,7.78649e-80,9.69733e-01,9.99999e-01
