#,Wave/freq,Total,CO2,Rayleigh,CIA
4.000000000e-01,5.62107e-19,9.99999e-01,5.62107e-19,9.99999e-01
4.020000000e-01,1.29026e-18,9.99999e-01,1.29026e-18,9.99999e-01
4.040100000e-01,2.91096e-18,9.99999e-01,2.91096e-18,9.99999e-01
4.060300500e-01,6.46272e-18,9.99999e-01,6.46272e-18,9.99999e-01
4.080602003e-01,1.41238e-17,9.99999e-01,1.41238e-17,9.99999e-01
4.101005013e-01,3.03936e-17,9.99999e-01,3.03936e-17,9.99999e-01
4.121510038e-01,6.44226e-17,9.99999e-01,6.44226e-17,9.99999e-01
4.142117588e-01,1.34539e-16,9.99999e-01,1.34539e-16,9.99999e-01
4.162828176e-01,2.76914e-16,9.99999e-01,2.76914e-16,9.99999e-01
4.183642317e-01,5.61884e-16,9.99999e-01,5.61884e-16,9.99999e-01
4.204560528e-01,1.12429e-15,9.99999e-01,1.12429e-15,9.99999e-01
4.225583331e-01,2.21902e-15,9.99999e-01,2.21902e-15,9.99999e-01
4.246711247e-01,4.32126e-15,9.99999e-01,4.32126e-15,9.99999e-01
4.267944804e-01,8.30506e-15,9.99999e-01,8.30506e-15,9.99999e-01
4.289284528e-01,1.57569e-14,9.99999e-01,1.57569e-14,9.99999e-01
4.310730950e-01,2.95192e-14,9.99999e-01,2.95192e-14,9.99999e-01
4.332284605e-01,5.46203e-14,9.99999e-01,5.46203e-14,9.99999e-01
4.353946028e-01,9.98445e-14,9.99999e-01,9.98445e-14,9.99999e-01
4.375715758e-01,1.80351e-13,9.99999e-01,1.80351e-13,9.99999e-01
4.397594337e-01,3.21990e-13,9.99999e-01,3.21990e-13,9.99999e-01
4.419582309e-01,5.68321e-13,9.99999e-01,5.68321e-13,9.99999e-01
4.441680220e-01,9.91907e-13,9.99999e-01,9.91907e-13,9.99999e-01
4.463888621e-01,1.71226e-12,9.99999e-01,1.71226e-12,9.99999e-01
4.486208064e-01,2.92406e-12,9.99999e-01,2.92406e-12,9.99999e-01
4.508639105e-01,4.94097e-12,9.99999e-01,4.94097e-12,9.99999e-01
4.531182300e-01,8.26299e-12,9.99999e-01,8.26299e-12,9.99999e-01
4.553838212e-01,1.36789e-11,9.99999e-01,1.36789e-11,9.99999e-01
4.576607403e-01,2.24203e-11,9.99999e-01,2.24203e-11,9.99999e-01
4.599490440e-01,3.63908e-11,9.99999e-01,3.63908e-11,9.99999e-01
4.622487892e-01,5.85044e-11,9.99999e-01,5.85044e-11,9.99999e-01
4.645600332e-01,9.31777e-11,9.99999e-01,9.31777e-11,9.99999e-01
4.668828333e-01,1.47042e-10,9.99999e-01,1.47042e-10,9.99999e-01
4.692172475e-01,2.29964e-10,9.99999e-01,2.29964e-10,9.99999e-01
4.715633337e-01,3.56485e-10,9.99999e-01,3.56485e-10,9.99999e-01
4.739211504e-01,5.47850e-10,9.99999e-01,5.47850e-10,9.99999e-01
4.762907561e-01,8.34826e-10,9.99999e-01,8.34826e-10,9.99999e-01
4.786722099e-01,1.26159e-09,9.99999e-01,1.26159e-09,9.99999e-01
4.810655710e-01,1.89102e-09,9.99999e-01,1.89102e-09,9.99999e-01
4.834708988e-01,2.81192e-09,9.99999e-01,2.81192e-09,9.99999e-01
4.858882533e-01,4.14865e-09,9.99999e-01,4.14865e-09,9.99999e-01
4.883176946e-01,6.07398e-09,9.99999e-01,6.07398e-09,9.99999e-01
4.907592831e-01,8.82613e-09,9.99999e-01,8.82613e-09,9.99999e-01
4.932130795e-01,1.27310e-08,9.99999e-01,1.27310e-08,9.99999e-01
4.956791449e-01,1.82310e-08,9.99999e-01,1.82310e-08,9.99999e-01
4.981575406e-01,2.59226e-08,9.99999e-01,2.59226e-08,9.99999e-01
5.006483283e-01,3.66038e-08,9.99999e-01,3.66038e-08,9.99999e-01
5.031515699e-01,5.13352e-08,9.99999e-01,5.13352e-08,9.99999e-01
5.056673278e-01,7.15159e-08,9.99999e-01,7.15159e-08,9.99999e-01
5.081956644e-01,9.89797e-08,9.99999e-01,9.89797e-08,9.99999e-01
5.107366428e-01,1.36114e-07,9.99999e-01,1.36114e-07,9.99999e-01
5.132903260e-01,1.86005e-07,9.99999e-01,1.86005e-07,9.99999e-01
5.158567776e-01,2.52620e-07,9.99999e-01,2.52620e-07,9.99999e-01
5.184360615e-01,3.41024e-07,9.99999e-01,3.41024e-07,9.99999e-01
5.210282418e-01,4.57645e-07,9.99999e-01,4.57645e-07,9.99999e-01
5.236333830e-01,6.10589e-07,9.99999e-01,6.10589e-07,9.99999e-01
5.262515499e-01,8.10020e-07,9.99999e-01,8.10020e-07,9.99999e-01
5.288828077e-01,1.06861e-06,9.99999e-01,1.06861e-06,9.99999e-01
5.315272217e-01,1.40205e-06,9.99999e-01,1.40205e-06,9.99999e-01
5.341848578e-01,1.82970e-06,9.99999e-01,1.82970e-06,9.99999e-01
5.368557821e-01,2.37526e-06,9.99999e-01,2.37526e-06,9.99999e-01
5.395400610e-01,3.06765e-06,9.99999e-01,3.06765e-06,9.99999e-01
5.422377613e-01,3.94189e-06,9.99999e-01,3.94189e-06,9.99999e-01
5.449489501e-01,5.04026e-06,9.99999e-01,5.04026e-06,9.99999e-01
5.476736949e-01,6.41346e-06,9.99999e-01,6.41346e-06,9.99999e-01
5.504120634e-01,8.12204e-06,9.99999e-01,8.12204e-06,9.99999e-01
5.531641237e-01,1.02379e-05,9.99999e-01,1.02379e-05,9.99999e-01
5.559299443e-01,1.28461e-05,9.99999e-01,1.28461e-05,9.99999e-01
5.587095940e-01,1.60467e-05,9.99999e-01,1.60467e-05,9.99999e-01
5.615031420e-01,1.99568e-05,9.99999e-01,1.99568e-05,9.99999e-01
5.643106577e-01,2.47131e-05,9.99999e-01,2.47131e-05,9.99999e-01
5.671322110e-01,3.04739e-05,9.99999e-01,3.04739e-05,9.99999e-01
5.699678720e-01,3.74224e-05,9.99999e-01,3.74224e-05,9.99999e-01
5.728177114e-01,4.57692e-05,9.99999e-01,4.57692e-05,9.99999e-01
5.756818000e-01,5.57555e-05,9.99999e-01,5.57555e-05,9.99999e-01
5.785602090e-01,6.76564e-05,9.99999e-01,6.76564e-05,9.99999e-01
5.814530100e-01,8.17844e-05,9.99999e-01,8.17844e-05,9.99999e-01
5.843602750e-01,9.84930e-05,9.99999e-01,9.84930e-05,9.99999e-01
5.872820764e-01,1.18180e-04,9.99999e-01,1.18180e-04,9.99999e-01
5.902184868e-01,1.41294e-04,9.99999e-01,1.41294e-04,9.99999e-01
5.931695792e-01,1.68332e-04,9.99999e-01,1.68332e-04,9.99999e-01
5.961354271e-01,1.99853e-04,9.99999e-01,1.99853e-04,9.99999e-01
5.991161043e-01,2.36472e-04,9.99999e-01,2.36472e-04,9.99999e-01
6.021116848e-01,2.78873e-04,9.99999e-01,2.78873e-04,9.99999e-01
6.051222432e-01,3.27807e-04,9.99999e-01,3.27807e-04,9.99999e-01
6.081478544e-01,3.84100e-04,9.99999e-01,3.84100e-04,9.99999e-01
6.111885937e-01,4.48652e-04,9.99999e-01,4.48652e-04,9.99999e-01
6.142445367e-01,5.22447e-04,9.99999e-01,5.22447e-04,9.99999e-01
6.173157594e-01,6.06554e-04,9.99999e-01,6.06554e-04,9.99999e-01
6.204023382e-01,7.02127e-04,9.99999e-01,7.02127e-04,9.99999e-01
6.235043498e-01,8.10414e-04,9.99999e-01,8.10414e-04,9.99999e-01
6.266218716e-01,9.32755e-04,9.99999e-01,9.32755e-04,9.99999e-01
6.297549810e-01,1.07059e-03,9.99999e-01,1.07059e-03,9.99999e-01
6.329037559e-01,1.22545e-03,9.99999e-01,1.22545e-03,9.99999e-01
6.360682746e-01,1.39897e-03,9.99999e-01,1.39897e-03,9.99999e-01
6.392486160e-01,1.59289e-03,9.99999e-01,1.59289e-03,9.99999e-01
6.424448591e-01,1.80904e-03,9.99999e-01,1.80904e-03,9.99999e-01
6.456570834e-01,2.04937e-03,9.99999e-01,2.04937e-03,9.99999e-01
6.488853688e-01,2.31592e-03,9.99999e-01,2.31592e-03,9.99999e-01
6.521297956e-01,2.61082e-03,9.99999e-01,2.61082e-03,9.99999e-01
6.553904446e-01,2.93631e-03,9.99999e-01,2.93631e-03,9.99999e-01
6.586673968e-01,3.29472e-03,9.99999e-01,3.29472e-03,9.99999e-01
6.619607338e-01,3.68848e-03,9.99999e-01,3.68848e-03,9.99999e-01
6.652705375e-01,4.12011e-03,9.99999e-01,4.12011e-03,9.99999e-01
6.685968902e-01,4.59219e-03,9.99999e-01,4.59219e-03,9.99999e-01
6.719398746e-01,5.10741e-03,9.99999e-01,5.10741e-03,9.99999e-01
6.752995740e-01,5.66852e-03,9.99999e-01,5.66852e-03,9.99999e-01
6.786760719e-01,6.27833e-03,9.99999e-01,6.27833e-03,9.99999e-01
6.820694522e-01,6.93973e-03,9.99999e-01,6.93973e-03,9.99999e-01
6.854797995e-01,7.65563e-03,9.99999e-01,7.65563e-03,9.99999e-01
6.889071985e-01,8.42903e-03,9.99999e-01,8.42903e-03,9.99999e-01
6.923517345e-01,9.26294e-03,9.99999e-01,9.26294e-03,9.99999e-01
6.958134932e-01,1.01604e-02,9.99999e-01,1.01604e-02,9.99999e-01
6.992925606e-01,1.11245e-02,9.99999e-01,1.11245e-02,9.99999e-01
7.027890234e-01,1.21582e-02,9.99999e-01,1.21582e-02,9.99999e-01
7.063029686e-01,1.32647e-02,9.99999e-01,1.32647e-02,9.99999e-01
7.098344834e-01,1.44471e-02,9.99999e-01,1.44471e-02,9.99999e-01
7.133836558e-01,1.57083e-02,9.99999e-01,1.57083e-02,9.99999e-01
7.169505741e-01,1.70514e-02,9.99999e-01,1.70514e-02,9.99999e-01
7.205353270e-01,1.84793e-02,9.99999e-01,1.84793e-02,9.99999e-01
7.241380036e-01,1.99951e-02,9.99999e-01,1.99951e-02,9.99999e-01
7.277586936e-01,2.16015e-02,9.99999e-01,2.16015e-02,9.99999e-01
7.313974871e-01,2.33014e-02,9.99999e-01,2.33014e-02,9.99999e-01
7.350544745e-01,2.50975e-02,9.99999e-01,2.50975e-02,9.99999e-01
7.387297469e-01,2.69925e-02,9.99999e-01,2.69925e-02,9.99999e-01
7.424233956e-01,2.89887e-02,9.99999e-01,2.89887e-02,9.99999e-01
7.461355126e-01,3.10888e-02,9.99999e-01,3.10888e-02,9.99999e-01
7.498661902e-01,3.32950e-02,9.99999e-01,3.32950e-02,9.99999e-01
7.536155211e-01,3.56095e-02,9.99999e-01,3.56095e-02,9.99999e-01
7.573835987e-01,3.80343e-02,9.99999e-01,3.80343e-02,9.99999e-01
7.611705167e-01,4.05715e-02,9.99999e-01,4.05715e-02,9.99999e-01
7.649763693e-01,4.32227e-02,9.99999e-01,4.32227e-02,9.99999e-01
7.688012511e-01,4.59896e-02,9.99999e-01,4.59896e-02,9.99999e-01
7.726452574e-01,4.88737e-02,9.99999e-01,4.88737e-02,9.99999e-01
7.765084837e-01,5.18764e-02,9.99999e-01,5.18764e-02,9.99999e-01
7.803910261e-01,4.92648e-02,8.95745e-01,5.49987e-02,9.99999e-01
7.842929812e-01,3.30016e-02,5.66632e-01,5.82416e-02,9.99999e-01
7.882144461e-01,3.39539e-02,5.51146e-01,6.16060e-02,9.99999e-01
7.921555184e-01,4.48131e-02,6.88451e-01,6.50925e-02,9.99999e-01
7.961162960e-01,5.32784e-02,7.75504e-01,6.87016e-02,9.99999e-01
8.000968774e-01,6.30906e-02,8.71013e-01,7.24335e-02,9.99999e-01
8.040973618e-01,7.10043e-02,9.30735e-01,7.62884e-02,9.99999e-01
8.081178486e-01,7.76622e-02,9.67558e-01,8.02662e-02,9.99999e-01
8.121584379e-01,8.35108e-02,9.89855e-01,8.43666e-02,9.99999e-01
8.162192301e-01,8.83901e-02,9.97750e-01,8.85894e-02,9.99999e-01
8.203003262e-01,9.29306e-02,9.99965e-01,9.29337e-02,9.99999e-01
8.244018279e-01,9.73990e-02,9.99999e-01,9.73990e-02,9.99999e-01
8.285238370e-01,1.01984e-01,9.99999e-01,1.01984e-01,9.99999e-01
8.326664562e-01,1.06688e-01,9.99999e-01,1.06688e-01,9.99999e-01
8.368297885e-01,1.11510e-01,9.99999e-01,1.11510e-01,9.99999e-01
8.410139374e-01,1.16448e-01,9.99999e-01,1.16448e-01,9.99999e-01
8.452190071e-01,1.21501e-01,9.99999e-01,1.21501e-01,9.99999e-01
8.494451021e-01,1.26666e-01,9.99999e-01,1.26666e-01,9.99999e-01
8.536923276e-01,1.31942e-01,9.99999e-01,1.31942e-01,9.99999e-01
8.579607893e-01,1.37328e-01,9.99999e-01,1.37328e-01,9.99999e-01
8.622505932e-01,1.42821e-01,9.99999e-01,1.42821e-01,9.99999e-01
8.665618462e-01,1.26882e-01,8.54900e-01,1.48418e-01,9.99999e-01
8.708946554e-01,3.87517e-02,2.51443e-01,1.54117e-01,9.99999e-01
8.752491287e-01,4.97670e-02,3.11206e-01,1.59916e-01,9.99999e-01
8.796253743e-01,8.56242e-02,5.16391e-01,1.65813e-01,9.99999e-01
8.840235012e-01,1.20886e-01,7.03628e-01,1.71804e-01,9.99999e-01
8.884436187e-01,1.54648e-01,8.69362e-01,1.77886e-01,9.99999e-01
8.928858368e-01,1.73875e-01,9.44677e-01,1.84058e-01,9.99999e-01
8.973502660e-01,1.87699e-01,9.86253e-01,1.90315e-01,9.99999e-01
9.018370173e-01,1.96355e-01,9.98475e-01,1.96655e-01,9.99999e-01
9.063462024e-01,1.95512e-01,9.62758e-01,2.03075e-01,9.99999e-01
9.108779334e-01,1.91634e-01,9.14407e-01,2.09571e-01,9.99999e-01
9.154323231e-01,2.11637e-01,9.79162e-01,2.16141e-01,9.99999e-01
9.200094847e-01,1.73083e-01,7.76922e-01,2.22781e-01,9.99999e-01
9.246095321e-01,1.48673e-01,6.47850e-01,2.29487e-01,9.99999e-01
9.292325798e-01,1.69595e-01,7.17839e-01,2.36257e-01,9.99999e-01
9.338787427e-01,1.75446e-01,7.21741e-01,2.43087e-01,9.99999e-01
9.385481364e-01,1.96174e-01,7.84776e-01,2.49974e-01,9.99999e-01
9.432408771e-01,2.21210e-01,8.61027e-01,2.56914e-01,9.99999e-01
9.479570815e-01,2.44381e-01,9.26021e-01,2.63904e-01,9.99999e-01
9.526968669e-01,2.61094e-01,9.63658e-01,2.70941e-01,9.99999e-01
9.574603512e-01,2.73648e-01,9.84272e-01,2.78020e-01,9.99999e-01
9.622476530e-01,2.83732e-01,9.95065e-01,2.85139e-01,9.99999e-01
9.670588912e-01,2.91862e-01,9.98518e-01,2.92295e-01,9.99999e-01
9.718941857e-01,2.99452e-01,9.99894e-01,2.99483e-01,9.99999e-01
9.767536566e-01,3.06701e-01,9.99999e-01,3.06701e-01,9.99999e-01
9.816374249e-01,3.13945e-01,9.99999e-01,3.13945e-01,9.99999e-01
9.865456120e-01,3.21212e-01,9.99999e-01,3.21212e-01,9.99999e-01
9.914783401e-01,3.28499e-01,9.99999e-01,3.28499e-01,9.99999e-01
9.964357318e-01,3.35803e-01,9.99999e-01,3.35803e-01,9.99999e-01
1.001417910e+00,3.43119e-01,9.99999e-01,3.43119e-01,9.99999e-01
1.006425000e+00,3.50446e-01,9.99999e-01,3.50446e-01,9.99999e-01
1.011457125e+00,3.57780e-01,9.99999e-01,3.57780e-01,9.99999e-01
1.016514411e+00,3.65118e-01,9.99999e-01,3.65118e-01,9.99999e-01
1.021596983e+00,3.72382e-01,9.99797e-01,3.72457e-01,9.99999e-01
1.026704968e+00,3.74115e-01,9.85045e-01,3.79794e-01,9.99999e-01
1.031838492e+00,3.44091e-01,8.88832e-01,3.87127e-01,9.99999e-01
1.036997685e+00,1.48349e-02,3.76089e-02,3.94452e-01,9.99999e-01
1.042182673e+00,4.19501e-04,1.04414e-03,4.01767e-01,9.99999e-01
1.047393587e+00,1.22800e-03,3.00194e-03,4.09069e-01,9.99999e-01
1.052630555e+00,1.77918e-08,4.27321e-08,4.16356e-01,9.99999e-01
1.057893707e+00,6.65942e-08,1.57201e-07,4.23625e-01,9.99999e-01
1.063183176e+00,4.55044e-06,1.05610e-05,4.30873e-01,9.99999e-01
1.068499092e+00,6.80126e-05,1.55245e-04,4.38099e-01,9.99999e-01
1.073841587e+00,1.47939e-03,3.32223e-03,4.45299e-01,9.99999e-01
1.079210795e+00,1.28315e-02,2.83587e-02,4.52472e-01,9.99999e-01
1.084606849e+00,5.94226e-02,1.29287e-01,4.59616e-01,9.99999e-01
1.090029883e+00,1.59287e-01,3.41284e-01,4.66727e-01,9.99999e-01
1.095480033e+00,2.78059e-01,5.86862e-01,4.73805e-01,9.99999e-01
1.100957433e+00,3.71218e-01,7.72006e-01,4.80848e-01,9.99999e-01
1.106462220e+00,4.38217e-01,8.98256e-01,4.87853e-01,9.99999e-01
1.111994531e+00,4.75489e-01,9.60935e-01,4.94818e-01,9.99999e-01
1.117554504e+00,4.96883e-01,9.90313e-01,5.01743e-01,9.99999e-01
1.123142276e+00,5.08300e-01,9.99360e-01,5.08625e-01,9.99999e-01
1.128757988e+00,5.15462e-01,9.99999e-01,5.15462e-01,9.99999e-01
1.134401778e+00,5.22254e-01,9.99999e-01,5.22254e-01,9.99999e-01
1.140073787e+00,5.28998e-01,9.99999e-01,5.28998e-01,9.99999e-01
1.145774156e+00,5.35694e-01,9.99999e-01,5.35694e-01,9.99999e-01
1.151503026e+00,5.42340e-01,9.99999e-01,5.42340e-01,9.99999e-01
1.157260541e+00,5.48934e-01,9.99999e-01,5.48934e-01,9.99999e-01
1.163046844e+00,5.55476e-01,9.99999e-01,5.55476e-01,9.99999e-01
1.168862078e+00,5.61964e-01,9.99999e-01,5.61964e-01,9.99999e-01
1.174706389e+00,5.68398e-01,9.99999e-01,5.68398e-01,9.99999e-01
1.180579921e+00,5.74776e-01,9.99999e-01,5.74776e-01,9.99999e-01
1.186482820e+00,5.81083e-01,9.99973e-01,5.81098e-01,9.99999e-01
1.192415234e+00,5.58017e-01,9.50038e-01,5.87362e-01,9.99999e-01
1.198377311e+00,2.97068e-01,5.00477e-01,5.93568e-01,9.99999e-01
1.204369197e+00,1.10210e-38,1.83770e-38,5.99715e-01,9.99999e-01
1.210391043e+00,8.76886e-159,1.44748e-158,6.05803e-01,9.99999e-01
1.216442998e+00,2.61970e-137,4.28174e-137,6.11830e-01,9.99999e-01
1.222525213e+00,3.09214e-135,5.00512e-135,6.17796e-01,9.99999e-01
1.228637839e+00,3.53510e-104,5.66793e-104,6.23701e-01,9.99999e-01
1.234781029e+00,1.55466e-64,2.46949e-64,6.29544e-01,9.99999e-01
1.240954934e+00,1.25133e-42,1.96959e-42,6.35325e-01,9.99999e-01
1.247159708e+00,3.80954e-20,5.94272e-20,6.41043e-01,9.99999e-01
1.253395507e+00,9.84540e-14,1.52241e-13,6.46698e-01,9.99999e-01
1.259662485e+00,4.76917e-08,7.31142e-08,6.52290e-01,9.99999e-01
1.265960797e+00,8.95162e-05,1.36080e-04,6.57819e-01,9.99999e-01
1.272290601e+00,9.00091e-03,1.35702e-02,6.63283e-01,9.99999e-01
1.278652054e+00,8.95067e-03,1.33855e-02,6.68684e-01,9.99999e-01
1.285045314e+00,2.98597e-06,4.43008e-06,6.74021e-01,9.99999e-01
1.291470541e+00,2.56859e-18,3.78127e-18,6.79293e-01,9.99999e-01
1.297927893e+00,1.32320e-07,1.93308e-07,6.84502e-01,9.99999e-01
1.304417533e+00,2.45620e-04,3.56153e-04,6.89646e-01,9.99999e-01
1.310939621e+00,6.95849e-05,1.00162e-04,6.94726e-01,9.99999e-01
1.317494319e+00,1.53068e-53,2.18749e-53,6.99743e-01,9.99999e-01
1.324081790e+00,6.79414e-35,9.64123e-35,7.04695e-01,9.99999e-01
1.330702199e+00,9.11504e-21,1.28456e-20,7.09584e-01,9.99999e-01
1.337355710e+00,7.87617e-19,1.10247e-18,7.14409e-01,9.99999e-01
1.344042489e+00,4.77241e-19,6.63599e-19,7.19170e-01,9.99999e-01
1.350762701e+00,4.26276e-21,5.88886e-21,7.23868e-01,9.99999e-01
1.357516515e+00,1.34520e-12,1.84652e-12,7.28503e-01,9.99999e-01
1.364304097e+00,2.36383e-09,3.22454e-09,7.33076e-01,9.99999e-01
1.371125618e+00,3.58801e-05,4.86453e-05,7.37586e-01,9.99999e-01
1.377981246e+00,1.29619e-04,1.74680e-04,7.42033e-01,9.99999e-01
1.384871152e+00,4.69112e-03,6.28483e-03,7.46419e-01,9.99999e-01
1.391795508e+00,7.18565e-03,9.57137e-03,7.50744e-01,9.99999e-01
1.398754485e+00,3.88485e-02,5.14544e-02,7.55007e-01,9.99999e-01
1.405748258e+00,8.84249e-02,1.16470e-01,7.59210e-01,9.99999e-01
1.412776999e+00,1.93143e-01,2.53019e-01,7.63352e-01,9.99999e-01
1.419840884e+00,1.90952e-01,2.48819e-01,7.67435e-01,9.99999e-01
1.426940089e+00,5.72940e-03,7.42671e-03,7.71458e-01,9.99999e-01
1.434074789e+00,0.00000e+00,0.00000e+00,7.75422e-01,9.99999e-01
1.441245163e+00,0.00000e+00,0.00000e+00,7.79327e-01,9.99999e-01
1.448451389e+00,0.00000e+00,0.00000e+00,7.83175e-01,9.99999e-01
1.455693646e+00,0.00000e+00,0.00000e+00,7.86965e-01,9.99999e-01
1.462972114e+00,0.00000e+00,0.00000e+00,7.90698e-01,9.99999e-01
1.470286975e+00,1.11744e-263,1.40669e-263,7.94374e-01,9.99999e-01
1.477638409e+00,4.03119e-165,5.05165e-165,7.97994e-01,9.99999e-01
1.485026601e+00,3.03690e-91,3.78874e-91,8.01559e-01,9.99999e-01
1.492451734e+00,1.32357e-77,1.64404e-77,8.05069e-01,9.99999e-01
1.499913993e+00,9.11597e-33,1.12748e-32,8.08524e-01,9.99999e-01
1.507413563e+00,1.72478e-31,2.12430e-31,8.11926e-01,9.99999e-01
1.514950631e+00,3.51006e-33,4.30537e-33,8.15274e-01,9.99999e-01
1.522525384e+00,6.58080e-117,8.03939e-117,8.18569e-01,9.99999e-01
1.530138011e+00,1.66532e-281,2.02639e-281,8.21813e-01,9.99999e-01
1.537788701e+00,8.36885e-208,1.01440e-207,8.25004e-01,9.99999e-01
1.545477645e+00,1.42168e-42,1.71670e-42,8.28145e-01,9.99999e-01
1.553205033e+00,3.34383e-31,4.02271e-31,8.31235e-01,9.99999e-01
1.560971058e+00,2.79171e-31,3.34626e-31,8.34276e-01,9.99999e-01
1.568775913e+00,0.00000e+00,0.00000e+00,8.37267e-01,9.99999e-01
1.576619793e+00,0.00000e+00,0.00000e+00,8.40210e-01,9.99999e-01
1.584502892e+00,0.00000e+00,0.00000e+00,8.43104e-01,9.99999e-01
1.592425406e+00,0.00000e+00,0.00000e+00,8.45951e-01,9.99999e-01
1.600387533e+00,0.00000e+00,0.00000e+00,8.48751e-01,9.99999e-01
1.608389471e+00,0.00000e+00,0.00000e+00,8.51505e-01,9.99999e-01
1.616431418e+00,0.00000e+00,0.00000e+00,8.54213e-01,9.99999e-01
1.624513575e+00,0.00000e+00,0.00000e+00,8.56876e-01,9.99999e-01
1.632636143e+00,0.00000e+00,0.00000e+00,8.59494e-01,9.99999e-01
1.640799324e+00,3.64717e-244,4.23072e-244,8.62068e-01,9.99999e-01
1.649003321e+00,3.65501e-244,4.22740e-244,8.64599e-01,9.99999e-01
1.657248337e+00,2.64595e-188,3.05154e-188,8.67087e-01,9.99999e-01
1.665534579e+00,1.42181e-189,1.63514e-189,8.69533e-01,9.99999e-01
1.673862252e+00,2.86498e-120,3.28576e-120,8.71938e-01,9.99999e-01
1.682231563e+00,9.24379e-83,1.05728e-82,8.74301e-01,9.99999e-01
1.690642721e+00,3.13151e-45,3.57224e-45,8.76624e-01,9.99999e-01
1.699095934e+00,1.60625e-28,1.82756e-28,8.78907e-01,9.99999e-01
1.707591414e+00,4.85875e-14,5.51409e-14,8.81151e-01,9.99999e-01
1.716129371e+00,1.33763e-08,1.51426e-08,8.83356e-01,9.99999e-01
1.724710018e+00,2.48546e-05,2.80677e-05,8.85522e-01,9.99999e-01
1.733333568e+00,7.14906e-04,8.05389e-04,8.87652e-01,9.99999e-01
1.742000236e+00,1.40873e-02,1.58329e-02,8.89744e-01,9.99999e-01
1.750710237e+00,1.18528e-05,1.32909e-05,8.91799e-01,9.99999e-01
1.759463788e+00,8.78034e-115,9.82339e-115,8.93818e-01,9.99999e-01
1.768261107e+00,3.51102e-120,3.91941e-120,8.95802e-01,9.99999e-01
1.777102413e+00,3.24224e-117,3.61151e-117,8.97752e-01,9.99999e-01
1.785987925e+00,1.65187e-109,1.83609e-109,8.99666e-01,9.99999e-01
1.794917864e+00,1.64792e-104,1.82787e-104,9.01547e-01,9.99999e-01
1.803892454e+00,2.30798e-100,2.55478e-100,9.03395e-01,9.99999e-01
1.812911916e+00,2.12131e-96,2.34345e-96,9.05209e-01,9.99999e-01
1.821976476e+00,1.76615e-96,1.94726e-96,9.06992e-01,9.99999e-01
1.831086358e+00,3.97116e-77,4.36995e-77,9.08742e-01,9.99999e-01
1.840241790e+00,1.51030e-65,1.65883e-65,9.10462e-01,9.99999e-01
1.849442999e+00,2.23507e-45,2.45033e-45,9.12150e-01,9.99999e-01
1.858690214e+00,8.67134e-43,9.48923e-43,9.13808e-01,9.99999e-01
1.867983665e+00,2.69282e-43,2.94157e-43,9.15437e-01,9.99999e-01
1.877323583e+00,6.21808e-221,6.78063e-221,9.17036e-01,9.99999e-01
