#,Wave/freq,Total,CO2,Rayleigh,CIA
4.000000000e-01,8.66689e-05,9.99999e-01,8.66689e-05,9.99999e-01
4.020000000e-01,1.04276e-04,9.99999e-01,1.04276e-04,9.99999e-01
4.040100000e-01,1.24978e-04,9.99999e-01,1.24978e-04,9.99999e-01
4.060300500e-01,1.49256e-04,9.99999e-01,1.49256e-04,9.99999e-01
4.080602003e-01,1.77626e-04,9.99999e-01,1.77626e-04,9.99999e-01
4.101005013e-01,2.10663e-04,9.99999e-01,2.10663e-04,9.99999e-01
4.121510038e-01,2.49004e-04,9.99999e-01,2.49004e-04,9.99999e-01
4.142117588e-01,2.93353e-04,9.99999e-01,2.93353e-04,9.99999e-01
4.162828176e-01,3.44483e-04,9.99999e-01,3.44483e-04,9.99999e-01
4.183642317e-01,4.03244e-04,9.99999e-01,4.03244e-04,9.99999e-01
4.204560528e-01,4.70561e-04,9.99999e-01,4.70561e-04,9.99999e-01
4.225583331e-01,5.47444e-04,9.99999e-01,5.47444e-04,9.99999e-01
4.246711247e-01,6.34988e-04,9.99999e-01,6.34988e-04,9.99999e-01
4.267944804e-01,7.34377e-04,9.99999e-01,7.34377e-04,9.99999e-01
4.289284528e-01,8.46886e-04,9.99999e-01,8.46886e-04,9.99999e-01
4.310730950e-01,9.73886e-04,9.99999e-01,9.73886e-04,9.99999e-01
4.332284605e-01,1.11684e-03,9.99999e-01,1.11684e-03,9.99999e-01
4.353946028e-01,1.27733e-03,9.99999e-01,1.27733e-03,9.99999e-01
4.375715758e-01,1.45700e-03,9.99999e-01,1.45700e-03,9.99999e-01
4.397594337e-01,1.65763e-03,9.99999e-01,1.65763e-03,9.99999e-01
4.419582309e-01,1.88109e-03,9.99999e-01,1.88109e-03,9.99999e-01
4.441680220e-01,2.12935e-03,9.99999e-01,2.12935e-03,9.99999e-01
4.463888621e-01,2.40448e-03,9.99999e-01,2.40448e-03,9.99999e-01
4.486208064e-01,2.70865e-03,9.99999e-01,2.70865e-03,9.99999e-01
4.508639105e-01,3.04412e-03,9.99999e-01,3.04412e-03,9.99999e-01
4.531182300e-01,3.41326e-03,9.99999e-01,3.41326e-03,9.99999e-01
4.553838212e-01,3.81853e-03,9.99999e-01,3.81853e-03,9.99999e-01
4.576607403e-01,4.26245e-03,9.99999e-01,4.26245e-03,9.99999e-01
4.599490440e-01,4.74766e-03,9.99999e-01,4.74766e-03,9.99999e-01
4.622487892e-01,5.27685e-03,9.99999e-01,5.27685e-03,9.99999e-01
4.645600332e-01,5.85280e-03,9.99999e-01,5.85280e-03,9.99999e-01
4.668828333e-01,6.47834e-03,9.99999e-01,6.47834e-03,9.99999e-01
4.692172475e-01,7.15637e-03,9.99999e-01,7.15637e-03,9.99999e-01
4.715633337e-01,7.88983e-03,9.99999e-01,7.88983e-03,9.99999e-01
4.739211504e-01,8.68172e-03,9.99999e-01,8.68172e-03,9.99999e-01
4.762907561e-01,9.53506e-03,9.99999e-01,9.53506e-03,9.99999e-01
4.786722099e-01,1.04529e-02,9.99999e-01,1.04529e-02,9.99999e-01
4.810655710e-01,1.14383e-02,9.99999e-01,1.14383e-02,9.99999e-01
4.834708988e-01,1.24944e-02,9.99999e-01,1.24944e-02,9.99999e-01
4.858882533e-01,1.36241e-02,9.99999e-01,1.36241e-02,9.99999e-01
4.883176946e-01,1.48307e-02,9.99999e-01,1.48307e-02,9.99999e-01
4.907592831e-01,1.61170e-02,9.99999e-01,1.61170e-02,9.99999e-01
4.932130795e-01,1.74862e-02,9.99999e-01,1.74862e-02,9.99999e-01
4.956791449e-01,1.89411e-02,9.99999e-01,1.89411e-02,9.99999e-01
4.981575406e-01,2.04848e-02,9.99999e-01,2.04848e-02,9.99999e-01
5.006483283e-01,2.21200e-02,9.99999e-01,2.21200e-02,9.99999e-01
5.031515699e-01,2.38495e-02,9.99999e-01,2.38495e-02,9.99999e-01
5.056673278e-01,2.56761e-02,9.99999e-01,2.56761e-02,9.99999e-01
5.081956644e-01,2.76022e-02,9.99999e-01,2.76022e-02,9.99999e-01
5.107366428e-01,2.96305e-02,9.99999e-01,2.96305e-02,9.99999e-01
5.132903260e-01,3.17634e-02,9.99999e-01,3.17634e-02,9.99999e-01
5.158567776e-01,3.40030e-02,9.99999e-01,3.40030e-02,9.99999e-01
5.184360615e-01,3.63516e-02,9.99999e-01,3.63516e-02,9.99999e-01
5.210282418e-01,3.88111e-02,9.99999e-01,3.88111e-02,9.99999e-01
5.236333830e-01,4.13836e-02,9.99999e-01,4.13836e-02,9.99999e-01
5.262515499e-01,4.40706e-02,9.99999e-01,4.40706e-02,9.99999e-01
5.288828077e-01,4.68738e-02,9.99999e-01,4.68738e-02,9.99999e-01
5.315272217e-01,4.97947e-02,9.99999e-01,4.97947e-02,9.99999e-01
5.341848578e-01,5.28344e-02,9.99999e-01,5.28344e-02,9.99999e-01
5.368557821e-01,5.59941e-02,9.99999e-01,5.59941e-02,9.99999e-01
5.395400610e-01,5.92747e-02,9.99999e-01,5.92747e-02,9.99999e-01
5.422377613e-01,6.26770e-02,9.99999e-01,6.26770e-02,9.99999e-01
5.449489501e-01,6.62016e-02,9.99999e-01,6.62016e-02,9.99999e-01
5.476736949e-01,6.98489e-02,9.99999e-01,6.98489e-02,9.99999e-01
5.504120634e-01,7.36190e-02,9.99999e-01,7.36190e-02,9.99999e-01
5.531641237e-01,7.75122e-02,9.99999e-01,7.75122e-02,9.99999e-01
5.559299443e-01,8.15281e-02,9.99999e-01,8.15281e-02,9.99999e-01
5.587095940e-01,8.56667e-02,9.99999e-01,8.56667e-02,9.99999e-01
5.615031420e-01,8.99273e-02,9.99999e-01,8.99273e-02,9.99999e-01
5.643106577e-01,9.43093e-02,9.99999e-01,9.43093e-02,9.99999e-01
5.671322110e-01,9.88120e-02,9.99999e-01,9.88120e-02,9.99999e-01
5.699678720e-01,1.03434e-01,9.99999e-01,1.03434e-01,9.99999e-01
5.728177114e-01,1.08175e-01,9.99999e-01,1.08175e-01,9.99999e-01
5.756818000e-01,1.13033e-01,9.99999e-01,1.13033e-01,9.99999e-01
5.785602090e-01,1.18007e-01,9.99999e-01,1.18007e-01,9.99999e-01
5.814530100e-01,1.23095e-01,9.99999e-01,1.23095e-01,9.99999e-01
5.843602750e-01,1.28295e-01,9.99999e-01,1.28295e-01,9.99999e-01
5.872820764e-01,1.33606e-01,9.99999e-01,1.33606e-01,9.99999e-01
5.902184868e-01,1.39025e-01,9.99999e-01,1.39025e-01,9.99999e-01
5.931695792e-01,1.44550e-01,9.99999e-01,1.44550e-01,9.99999e-01
5.961354271e-01,1.50179e-01,9.99999e-01,1.50179e-01,9.99999e-01
5.991161043e-01,1.55910e-01,9.99999e-01,1.55910e-01,9.99999e-01
6.021116848e-01,1.61740e-01,9.99999e-01,1.61740e-01,9.99999e-01
6.051222432e-01,1.67666e-01,9.99999e-01,1.67666e-01,9.99999e-01
6.081478544e-01,1.73685e-01,9.99999e-01,1.73685e-01,9.99999e-01
6.111885937e-01,1.79796e-01,9.99999e-01,1.79796e-01,9.99999e-01
6.142445367e-01,1.85994e-01,9.99999e-01,1.85994e-01,9.99999e-01
6.173157594e-01,1.92278e-01,9.99999e-01,1.92278e-01,9.99999e-01
6.204023382e-01,1.98643e-01,9.99999e-01,1.98643e-01,9.99999e-01
6.235043498e-01,2.05087e-01,9.99999e-01,2.05087e-01,9.99999e-01
6.266218716e-01,2.11606e-01,9.99999e-01,2.11606e-01,9.99999e-01
6.297549810e-01,2.18198e-01,9.99999e-01,2.18198e-01,9.99999e-01
6.329037559e-01,2.24859e-01,9.99999e-01,2.24859e-01,9.99999e-01
6.360682746e-01,2.31586e-01,9.99999e-01,2.31586e-01,9.99999e-01
6.392486160e-01,2.38375e-01,9.99999e-01,2.38375e-01,9.99999e-01
6.424448591e-01,2.45223e-01,9.99999e-01,2.45223e-01,9.99999e-01
6.456570834e-01,2.52127e-01,9.99999e-01,2.52127e-01,9.99999e-01
6.488853688e-01,2.59083e-01,9.99999e-01,2.59083e-01,9.99999e-01
6.521297956e-01,2.66087e-01,9.99999e-01,2.66087e-01,9.99999e-01
6.553904446e-01,2.73138e-01,9.99999e-01,2.73138e-01,9.99999e-01
6.586673968e-01,2.80230e-01,9.99999e-01,2.80230e-01,9.99999e-01
6.619607338e-01,2.87361e-01,9.99999e-01,2.87361e-01,9.99999e-01
6.652705375e-01,2.94527e-01,9.99999e-01,2.94527e-01,9.99999e-01
6.685968902e-01,3.01725e-01,9.99999e-01,3.01725e-01,9.99999e-01
6.719398746e-01,3.08951e-01,9.99999e-01,3.08951e-01,9.99999e-01
6.752995740e-01,3.16203e-01,9.99999e-01,3.16203e-01,9.99999e-01
6.786760719e-01,3.23476e-01,9.99999e-01,3.23476e-01,9.99999e-01
6.820694522e-01,3.30769e-01,9.99999e-01,3.30769e-01,9.99999e-01
6.854797995e-01,3.38077e-01,9.99999e-01,3.38077e-01,9.99999e-01
6.889071985e-01,3.45397e-01,9.99999e-01,3.45397e-01,9.99999e-01
6.923517345e-01,3.52726e-01,9.99999e-01,3.52726e-01,9.99999e-01
6.958134932e-01,3.60061e-01,9.99999e-01,3.60061e-01,9.99999e-01
6.992925606e-01,3.67400e-01,9.99999e-01,3.67400e-01,9.99999e-01
7.027890234e-01,3.74739e-01,9.99999e-01,3.74739e-01,9.99999e-01
7.063029686e-01,3.82075e-01,9.99999e-01,3.82075e-01,9.99999e-01
7.098344834e-01,3.89406e-01,9.99999e-01,3.89406e-01,9.99999e-01
7.133836558e-01,3.96728e-01,9.99999e-01,3.96728e-01,9.99999e-01
7.169505741e-01,4.04039e-01,9.99999e-01,4.04039e-01,9.99999e-01
7.205353270e-01,4.11337e-01,9.99999e-01,4.11337e-01,9.99999e-01
7.241380036e-01,4.18618e-01,9.99999e-01,4.18618e-01,9.99999e-01
7.277586936e-01,4.25881e-01,9.99999e-01,4.25881e-01,9.99999e-01
7.313974871e-01,4.33123e-01,9.99999e-01,4.33123e-01,9.99999e-01
7.350544745e-01,4.40341e-01,9.99999e-01,4.40341e-01,9.99999e-01
7.387297469e-01,4.47533e-01,9.99999e-01,4.47533e-01,9.99999e-01
7.424233956e-01,4.54697e-01,9.99999e-01,4.54697e-01,9.99999e-01
7.461355126e-01,4.61830e-01,9.99999e-01,4.61830e-01,9.99999e-01
7.498661902e-01,4.68932e-01,9.99999e-01,4.68932e-01,9.99999e-01
7.536155211e-01,4.75999e-01,9.99999e-01,4.75999e-01,9.99999e-01
7.573835987e-01,4.83030e-01,9.99999e-01,4.83030e-01,9.99999e-01
7.611705167e-01,4.90023e-01,9.99999e-01,4.90023e-01,9.99999e-01
7.649763693e-01,4.96976e-01,9.99999e-01,4.96976e-01,9.99999e-01
7.688012511e-01,5.03888e-01,9.99999e-01,5.03888e-01,9.99999e-01
7.726452574e-01,5.10756e-01,9.99999e-01,5.10756e-01,9.99999e-01
7.765084837e-01,5.17579e-01,9.99999e-01,5.17579e-01,9.99999e-01
7.803910261e-01,5.08714e-01,9.70167e-01,5.24356e-01,9.99999e-01
7.842929812e-01,4.62916e-01,8.71640e-01,5.31086e-01,9.99999e-01
7.882144461e-01,4.64475e-01,8.63712e-01,5.37766e-01,9.99999e-01
7.921555184e-01,4.99956e-01,9.18368e-01,5.44396e-01,9.99999e-01
7.961162960e-01,5.20297e-01,9.44322e-01,5.50974e-01,9.99999e-01
8.000968774e-01,5.40478e-01,9.69468e-01,5.57499e-01,9.99999e-01
8.040973618e-01,5.54960e-01,9.84022e-01,5.63971e-01,9.99999e-01
8.081178486e-01,5.66200e-01,9.92658e-01,5.70387e-01,9.99999e-01
8.121584379e-01,5.75429e-01,9.97713e-01,5.76748e-01,9.99999e-01
8.162192301e-01,5.82757e-01,9.99494e-01,5.83052e-01,9.99999e-01
8.203003262e-01,5.89293e-01,9.99991e-01,5.89298e-01,9.99999e-01
8.244018279e-01,5.95486e-01,9.99999e-01,5.95486e-01,9.99999e-01
8.285238370e-01,6.01615e-01,9.99999e-01,6.01615e-01,9.99999e-01
8.326664562e-01,6.07683e-01,9.99999e-01,6.07683e-01,9.99999e-01
8.368297885e-01,6.13692e-01,9.99999e-01,6.13692e-01,9.99999e-01
8.410139374e-01,6.19639e-01,9.99999e-01,6.19639e-01,9.99999e-01
8.452190071e-01,6.25525e-01,9.99999e-01,6.25525e-01,9.99999e-01
8.494451021e-01,6.31349e-01,9.99999e-01,6.31349e-01,9.99999e-01
8.536923276e-01,6.37110e-01,9.99999e-01,6.37110e-01,9.99999e-01
8.579607893e-01,6.42809e-01,9.99999e-01,6.42809e-01,9.99999e-01
8.622505932e-01,6.48444e-01,9.99999e-01,6.48444e-01,9.99999e-01
8.665618462e-01,6.09340e-01,9.31689e-01,6.54016e-01,9.99999e-01
8.708946554e-01,4.65424e-01,7.05696e-01,6.59525e-01,9.99999e-01
8.752491287e-01,5.02067e-01,7.55021e-01,6.64969e-01,9.99999e-01
8.796253743e-01,5.74555e-01,8.57095e-01,6.70350e-01,9.99999e-01
8.840235012e-01,6.23812e-01,9.23253e-01,6.75667e-01,9.99999e-01
8.884436187e-01,6.59776e-01,9.68947e-01,6.80920e-01,9.99999e-01
8.928858368e-01,6.77418e-01,9.87332e-01,6.86108e-01,9.99999e-01
8.973502660e-01,6.89087e-01,9.96895e-01,6.91233e-01,9.99999e-01
9.018370173e-01,6.96054e-01,9.99656e-01,6.96293e-01,9.99999e-01
9.063462024e-01,6.95279e-01,9.91428e-01,7.01290e-01,9.99999e-01
9.108779334e-01,6.92175e-01,9.80109e-01,7.06222e-01,9.99999e-01
9.154323231e-01,7.07724e-01,9.95264e-01,7.11091e-01,9.99999e-01
9.200094847e-01,6.68708e-01,9.34084e-01,7.15896e-01,9.99999e-01
9.246095321e-01,6.53167e-01,9.06373e-01,7.20638e-01,9.99999e-01
9.292325798e-01,6.71878e-01,9.26324e-01,7.25316e-01,9.99999e-01
9.338787427e-01,6.77548e-01,9.28234e-01,7.29932e-01,9.99999e-01
9.385481364e-01,6.95399e-01,9.46784e-01,7.34485e-01,9.99999e-01
9.432408771e-01,7.14599e-01,9.67013e-01,7.38975e-01,9.99999e-01
9.479570815e-01,7.30749e-01,9.82976e-01,7.43404e-01,9.99999e-01
9.526968669e-01,7.41598e-01,9.91745e-01,7.47771e-01,9.99999e-01
9.574603512e-01,7.49415e-01,9.96460e-01,7.52076e-01,9.99999e-01
9.622476530e-01,7.55485e-01,9.98894e-01,7.56321e-01,9.99999e-01
9.670588912e-01,7.60252e-01,9.99667e-01,7.60505e-01,9.99999e-01
9.718941857e-01,7.64610e-01,9.99975e-01,7.64628e-01,9.99999e-01
9.767536566e-01,7.68692e-01,9.99999e-01,7.68692e-01,9.99999e-01
9.816374249e-01,7.72697e-01,9.99999e-01,7.72697e-01,9.99999e-01
9.865456120e-01,7.76643e-01,9.99999e-01,7.76643e-01,9.99999e-01
9.914783401e-01,7.80530e-01,9.99999e-01,7.80530e-01,9.99999e-01
9.964357318e-01,7.84360e-01,9.99999e-01,7.84360e-01,9.99999e-01
1.001417910e+00,7.88132e-01,9.99999e-01,7.88132e-01,9.99999e-01
1.006425000e+00,7.91847e-01,9.99999e-01,7.91847e-01,9.99999e-01
1.011457125e+00,7.95506e-01,9.99999e-01,7.95506e-01,9.99999e-01
1.016514411e+00,7.99109e-01,9.99999e-01,7.99109e-01,9.99999e-01
1.021596983e+00,8.02622e-01,9.99957e-01,8.02656e-01,9.99999e-01
1.026704968e+00,8.03458e-01,9.96661e-01,8.06149e-01,9.99999e-01
1.031838492e+00,7.77989e-01,9.60969e-01,8.09588e-01,9.99999e-01
1.036997685e+00,1.37373e-01,1.68976e-01,8.12973e-01,9.99999e-01
1.042182673e+00,1.17828e-01,1.44343e-01,8.16304e-01,9.99999e-01
1.047393587e+00,1.34976e-01,1.64689e-01,8.19584e-01,9.99999e-01
1.052630555e+00,5.04803e-03,6.13510e-03,8.22811e-01,9.99999e-01
1.057893707e+00,1.21201e-02,1.46735e-02,8.25987e-01,9.99999e-01
1.063183176e+00,3.71928e-02,4.48586e-02,8.29112e-01,9.99999e-01
1.068499092e+00,9.78191e-02,1.17545e-01,8.32186e-01,9.99999e-01
1.073841587e+00,2.15365e-01,2.57856e-01,8.35211e-01,9.99999e-01
1.079210795e+00,3.55507e-01,4.24137e-01,8.38187e-01,9.99999e-01
1.084606849e+00,5.24651e-01,6.23756e-01,8.41115e-01,9.99999e-01
1.090029883e+00,6.60777e-01,7.82915e-01,8.43994e-01,9.99999e-01
1.095480033e+00,7.50553e-01,8.86311e-01,8.46827e-01,9.99999e-01
1.100957433e+00,8.01646e-01,9.43542e-01,8.49612e-01,9.99999e-01
1.106462220e+00,8.32098e-01,9.76237e-01,8.52352e-01,9.99999e-01
1.111994531e+00,8.47460e-01,9.91127e-01,8.55046e-01,9.99999e-01
1.117554504e+00,8.55825e-01,9.97819e-01,8.57695e-01,9.99999e-01
1.123142276e+00,8.60175e-01,9.99855e-01,8.60299e-01,9.99999e-01
1.128757988e+00,8.62860e-01,9.99999e-01,8.62860e-01,9.99999e-01
1.134401778e+00,8.65378e-01,9.99999e-01,8.65378e-01,9.99999e-01
1.140073787e+00,8.67853e-01,9.99999e-01,8.67853e-01,9.99999e-01
1.145774156e+00,8.70286e-01,9.99999e-01,8.70286e-01,9.99999e-01
1.151503026e+00,8.72677e-01,9.99999e-01,8.72677e-01,9.99999e-01
1.157260541e+00,8.75028e-01,9.99999e-01,8.75028e-01,9.99999e-01
1.163046844e+00,8.77338e-01,9.99999e-01,8.77338e-01,9.99999e-01
1.168862078e+00,8.79609e-01,9.99999e-01,8.79609e-01,9.99999e-01
1.174706389e+00,8.81841e-01,9.99999e-01,8.81841e-01,9.99999e-01
1.180579921e+00,8.84034e-01,9.99999e-01,8.84034e-01,9.99999e-01
1.186482820e+00,8.86184e-01,9.99994e-01,8.86189e-01,9.99999e-01
1.192415234e+00,8.77789e-01,9.88160e-01,8.88306e-01,9.99999e-01
1.198377311e+00,5.02950e-01,5.64866e-01,8.90387e-01,9.99999e-01
1.204369197e+00,2.32842e-10,2.60907e-10,8.92431e-01,9.99999e-01
1.210391043e+00,4.32235e-37,4.83247e-37,8.94439e-01,9.99999e-01
1.216442998e+00,2.60294e-32,2.90373e-32,8.96412e-01,9.99999e-01
1.222525213e+00,7.54079e-32,8.39403e-32,8.98351e-01,9.99999e-01
1.228637839e+00,1.16502e-24,1.29410e-24,9.00255e-01,9.99999e-01
1.234781029e+00,4.10927e-16,4.55509e-16,9.02125e-01,9.99999e-01
1.240954934e+00,6.48987e-11,7.17935e-11,9.03962e-01,9.99999e-01
1.247159708e+00,3.55765e-06,3.92777e-06,9.05767e-01,9.99999e-01
1.253395507e+00,5.76820e-04,6.35586e-04,9.07540e-01,9.99999e-01
1.259662485e+00,1.33916e-02,1.47277e-02,9.09280e-01,9.99999e-01
1.265960797e+00,7.86562e-02,8.63414e-02,9.10990e-01,9.99999e-01
1.272290601e+00,3.00640e-01,3.29407e-01,9.12669e-01,9.99999e-01
1.278652054e+00,2.82396e-01,3.08859e-01,9.14318e-01,9.99999e-01
1.285045314e+00,9.15661e-03,9.99697e-03,9.15937e-01,9.99999e-01
1.291470541e+00,4.78547e-05,5.21561e-05,9.17527e-01,9.99999e-01
1.297927893e+00,6.36670e-03,6.92719e-03,9.19088e-01,9.99999e-01
1.304417533e+00,1.41606e-01,1.53815e-01,9.20621e-01,9.99999e-01
1.310939621e+00,3.58602e-02,3.88885e-02,9.22126e-01,9.99999e-01
1.317494319e+00,3.18101e-13,3.44412e-13,9.23604e-01,9.99999e-01
1.324081790e+00,3.02674e-09,3.27195e-09,9.25055e-01,9.99999e-01
1.330702199e+00,1.83784e-05,1.98368e-05,9.26480e-01,9.99999e-01
1.337355710e+00,2.09033e-05,2.25281e-05,9.27878e-01,9.99999e-01
1.344042489e+00,6.35938e-06,6.84355e-06,9.29251e-01,9.99999e-01
1.350762701e+00,1.16153e-05,1.24815e-05,9.30599e-01,9.99999e-01
1.357516515e+00,6.44885e-04,6.91994e-04,9.31922e-01,9.99999e-01
1.364304097e+00,8.46591e-03,9.07170e-03,9.33221e-01,9.99999e-01
1.371125618e+00,7.98227e-02,8.54179e-02,9.34496e-01,9.99999e-01
1.377981246e+00,1.25794e-01,1.34431e-01,9.35747e-01,9.99999e-01
1.384871152e+00,2.91304e-01,3.10898e-01,9.36975e-01,9.99999e-01
1.391795508e+00,3.18616e-01,3.39611e-01,9.38181e-01,9.99999e-01
1.398754485e+00,4.82612e-01,5.13764e-01,9.39364e-01,9.99999e-01
1.405748258e+00,5.75685e-01,6.12088e-01,9.40525e-01,9.99999e-01
1.412776999e+00,6.90570e-01,7.33349e-01,9.41665e-01,9.99999e-01
1.419840884e+00,6.26906e-01,6.64952e-01,9.42784e-01,9.99999e-01
1.426940089e+00,6.22950e-02,6.59987e-02,9.43882e-01,9.99999e-01
1.434074789e+00,0.00000e+00,0.00000e+00,9.44959e-01,9.99999e-01
1.441245163e+00,0.00000e+00,0.00000e+00,9.46016e-01,9.99999e-01
1.448451389e+00,0.00000e+00,0.00000e+00,9.47054e-01,9.99999e-01
1.455693646e+00,2.75225e-296,2.90299e-296,9.48072e-01,9.99999e-01
1.462972114e+00,1.13526e-143,1.19618e-143,9.49071e-01,9.99999e-01
1.470286975e+00,1.92766e-60,2.02900e-60,9.50052e-01,9.99999e-01
1.477638409e+00,1.67727e-38,1.76366e-38,9.51014e-01,9.99999e-01
1.485026601e+00,5.19189e-22,5.45391e-22,9.51958e-01,9.99999e-01
1.492451734e+00,9.43309e-19,9.89951e-19,9.52884e-01,9.99999e-01
1.499913993e+00,6.13988e-09,6.43732e-09,9.53793e-01,9.99999e-01
1.507413563e+00,9.74418e-08,1.02067e-07,9.54684e-01,9.99999e-01
1.514950631e+00,3.92494e-09,4.10748e-09,9.55559e-01,9.99999e-01
1.522525384e+00,9.03356e-28,9.44519e-28,9.56417e-01,9.99999e-01
1.530138011e+00,2.22603e-64,2.32541e-64,9.57260e-01,9.99999e-01
1.537788701e+00,5.54851e-48,5.79124e-48,9.58086e-01,9.99999e-01
1.545477645e+00,3.17470e-11,3.31078e-11,9.58897e-01,9.99999e-01
1.553205033e+00,7.70537e-08,8.02899e-08,9.59692e-01,9.99999e-01
1.560971058e+00,2.27691e-08,2.37061e-08,9.60472e-01,9.99999e-01
1.568775913e+00,3.98997e-161,4.15086e-161,9.61237e-01,9.99999e-01
1.576619793e+00,0.00000e+00,0.00000e+00,9.61988e-01,9.99999e-01
1.584502892e+00,8.26156e-206,8.58142e-206,9.62725e-01,9.99999e-01
1.592425406e+00,1.07473e-143,1.11550e-143,9.63448e-01,9.99999e-01
1.600387533e+00,4.75583e-231,4.93263e-231,9.64157e-01,9.99999e-01
1.608389471e+00,0.00000e+00,0.00000e+00,9.64852e-01,9.99999e-01
1.616431418e+00,0.00000e+00,0.00000e+00,9.65534e-01,9.99999e-01
1.624513575e+00,2.62446e-182,2.71626e-182,9.66203e-01,9.99999e-01
1.632636143e+00,1.18230e-135,1.22283e-135,9.66860e-01,9.99999e-01
1.640799324e+00,4.26288e-56,4.40606e-56,9.67503e-01,9.99999e-01
1.649003321e+00,4.36995e-56,4.51378e-56,9.68135e-01,9.99999e-01
1.657248337e+00,1.25489e-43,1.29536e-43,9.68754e-01,9.99999e-01
1.665534579e+00,6.54640e-44,6.75330e-44,9.69362e-01,9.99999e-01
1.673862252e+00,1.85401e-28,1.91143e-28,9.69958e-01,9.99999e-01
1.682231563e+00,4.26478e-20,4.39422e-20,9.70543e-01,9.99999e-01
1.690642721e+00,8.80222e-12,9.06402e-12,9.71116e-01,9.99999e-01
1.699095934e+00,1.13401e-07,1.16706e-07,9.71678e-01,9.99999e-01
1.707591414e+00,1.95362e-04,2.00942e-04,9.72230e-01,9.99999e-01
1.716129371e+00,8.50036e-03,8.73829e-03,9.72771e-01,9.99999e-01
1.724710018e+00,7.28784e-02,7.48774e-02,9.73301e-01,9.99999e-01
1.733333568e+00,1.82555e-01,1.87462e-01,9.73822e-01,9.99999e-01
1.742000236e+00,3.55913e-01,3.65288e-01,9.74332e-01,9.99999e-01
1.750710237e+00,1.14127e-02,1.17073e-02,9.74833e-01,9.99999e-01
1.759463788e+00,3.92461e-27,4.02390e-27,9.75324e-01,9.99999e-01
1.768261107e+00,1.68644e-28,1.72825e-28,9.75805e-01,9.99999e-01
1.777102413e+00,2.30645e-27,2.36249e-27,9.76277e-01,9.99999e-01
1.785987925e+00,4.59045e-26,4.69976e-26,9.76740e-01,9.99999e-01
1.794917864e+00,8.28024e-25,8.47347e-25,9.77194e-01,9.99999e-01
1.803892454e+00,4.35580e-24,4.45542e-24,9.77640e-01,9.99999e-01
1.812911916e+00,4.87337e-23,4.98260e-23,9.78077e-01,9.99999e-01
1.821976476e+00,3.33179e-23,3.40498e-23,9.78505e-01,9.99999e-01
1.831086358e+00,6.73298e-19,6.87793e-19,9.78925e-01,9.99999e-01
1.840241790e+00,4.51031e-16,4.60547e-16,9.79337e-01,9.99999e-01
1.849442999e+00,2.81774e-11,2.87601e-11,9.79741e-01,9.99999e-01
1.858690214e+00,2.09066e-10,2.13303e-10,9.80137e-01,9.99999e-01
1.867983665e+00,3.56740e-11,3.63825e-11,9.80525e-01,9.99999e-01
1.877323583e+00,6.71171e-51,6.84235e-51,9.80906e-01,9.99999e-01
