#,Wave/freq,Total,CO2,Rayleigh,CIA
4.000000000e-01,1.09493e-02,9.99999e-01,1.09493e-02,9.99999e-01
4.020000000e-01,1.19716e-02,9.99999e-01,1.19716e-02,9.99999e-01
4.040100000e-01,1.30651e-02,9.99999e-01,1.30651e-02,9.99999e-01
4.060300500e-01,1.42339e-02,9.99999e-01,1.42339e-02,9.99999e-01
4.080602003e-01,1.54811e-02,9.99999e-01,1.54811e-02,9.99999e-01
4.101005013e-01,1.68096e-02,9.99999e-01,1.68096e-02,9.99999e-01
4.121510038e-01,1.82225e-02,9.99999e-01,1.82225e-02,9.99999e-01
4.142117588e-01,1.97226e-02,9.99999e-01,1.97226e-02,9.99999e-01
4.162828176e-01,2.13129e-02,9.99999e-01,2.13129e-02,9.99999e-01
4.183642317e-01,2.29962e-02,9.99999e-01,2.29962e-02,9.99999e-01
4.204560528e-01,2.47752e-02,9.99999e-01,2.47752e-02,9.99999e-01
4.225583331e-01,2.66526e-02,9.99999e-01,2.66526e-02,9.99999e-01
4.246711247e-01,2.86309e-02,9.99999e-01,2.86309e-02,9.99999e-01
4.267944804e-01,3.07126e-02,9.99999e-01,3.07126e-02,9.99999e-01
4.289284528e-01,3.29000e-02,9.99999e-01,3.29000e-02,9.99999e-01
4.310730950e-01,3.51953e-02,9.99999e-01,3.51953e-02,9.99999e-01
4.332284605e-01,3.76007e-02,9.99999e-01,3.76007e-02,9.99999e-01
4.353946028e-01,4.01180e-02,9.99999e-01,4.01180e-02,9.99999e-01
4.375715758e-01,4.27491e-02,9.99999e-01,4.27491e-02,9.99999e-01
4.397594337e-01,4.54956e-02,9.99999e-01,4.54956e-02,9.99999e-01
4.419582309e-01,4.83590e-02,9.99999e-01,4.83590e-02,9.99999e-01
4.441680220e-01,5.13408e-02,9.99999e-01,5.13408e-02,9.99999e-01
4.463888621e-01,5.44420e-02,9.99999e-01,5.44420e-02,9.99999e-01
4.486208064e-01,5.76637e-02,9.99999e-01,5.76637e-02,9.99999e-01
4.508639105e-01,6.10067e-02,9.99999e-01,6.10067e-02,9.99999e-01
4.531182300e-01,6.44718e-02,9.99999e-01,6.44718e-02,9.99999e-01
4.553838212e-01,6.80593e-02,9.99999e-01,6.80593e-02,9.99999e-01
4.576607403e-01,7.17696e-02,9.99999e-01,7.17696e-02,9.99999e-01
4.599490440e-01,7.56029e-02,9.99999e-01,7.56029e-02,9.99999e-01
4.622487892e-01,7.95592e-02,9.99999e-01,7.95592e-02,9.99999e-01
4.645600332e-01,8.36382e-02,9.99999e-01,8.36382e-02,9.99999e-01
4.668828333e-01,8.78394e-02,9.99999e-01,8.78394e-02,9.99999e-01
4.692172475e-01,9.21625e-02,9.99999e-01,9.21625e-02,9.99999e-01
4.715633337e-01,9.66066e-02,9.99999e-01,9.66066e-02,9.99999e-01
4.739211504e-01,1.01171e-01,9.99999e-01,1.01171e-01,9.99999e-01
4.762907561e-01,1.05854e-01,9.99999e-01,1.05854e-01,9.99999e-01
4.786722099e-01,1.10655e-01,9.99999e-01,1.10655e-01,9.99999e-01
4.810655710e-01,1.15573e-01,9.99999e-01,1.15573e-01,9.99999e-01
4.834708988e-01,1.20606e-01,9.99999e-01,1.20606e-01,9.99999e-01
4.858882533e-01,1.25751e-01,9.99999e-01,1.25751e-01,9.99999e-01
4.883176946e-01,1.31009e-01,9.99999e-01,1.31009e-01,9.99999e-01
4.907592831e-01,1.36375e-01,9.99999e-01,1.36375e-01,9.99999e-01
4.932130795e-01,1.41849e-01,9.99999e-01,1.41849e-01,9.99999e-01
4.956791449e-01,1.47428e-01,9.99999e-01,1.47428e-01,9.99999e-01
4.981575406e-01,1.53110e-01,9.99999e-01,1.53110e-01,9.99999e-01
5.006483283e-01,1.58891e-01,9.99999e-01,1.58891e-01,9.99999e-01
5.031515699e-01,1.64771e-01,9.99999e-01,1.64771e-01,9.99999e-01
5.056673278e-01,1.70745e-01,9.99999e-01,1.70745e-01,9.99999e-01
5.081956644e-01,1.76812e-01,9.99999e-01,1.76812e-01,9.99999e-01
5.107366428e-01,1.82968e-01,9.99999e-01,1.82968e-01,9.99999e-01
5.132903260e-01,1.89211e-01,9.99999e-01,1.89211e-01,9.99999e-01
5.158567776e-01,1.95536e-01,9.99999e-01,1.95536e-01,9.99999e-01
5.184360615e-01,2.01943e-01,9.99999e-01,2.01943e-01,9.99999e-01
5.210282418e-01,2.08426e-01,9.99999e-01,2.08426e-01,9.99999e-01
5.236333830e-01,2.14983e-01,9.99999e-01,2.14983e-01,9.99999e-01
5.262515499e-01,2.21610e-01,9.99999e-01,2.21610e-01,9.99999e-01
5.288828077e-01,2.28306e-01,9.99999e-01,2.28306e-01,9.99999e-01
5.315272217e-01,2.35065e-01,9.99999e-01,2.35065e-01,9.99999e-01
5.341848578e-01,2.41884e-01,9.99999e-01,2.41884e-01,9.99999e-01
5.368557821e-01,2.48762e-01,9.99999e-01,2.48762e-01,9.99999e-01
5.395400610e-01,2.55693e-01,9.99999e-01,2.55693e-01,9.99999e-01
5.422377613e-01,2.62674e-01,9.99999e-01,2.62674e-01,9.99999e-01
5.449489501e-01,2.69703e-01,9.99999e-01,2.69703e-01,9.99999e-01
5.476736949e-01,2.76775e-01,9.99999e-01,2.76775e-01,9.99999e-01
5.504120634e-01,2.83887e-01,9.99999e-01,2.83887e-01,9.99999e-01
5.531641237e-01,2.91037e-01,9.99999e-01,2.91037e-01,9.99999e-01
5.559299443e-01,2.98219e-01,9.99999e-01,2.98219e-01,9.99999e-01
5.587095940e-01,3.05432e-01,9.99999e-01,3.05432e-01,9.99999e-01
5.615031420e-01,3.12672e-01,9.99999e-01,3.12672e-01,9.99999e-01
5.643106577e-01,3.19936e-01,9.99999e-01,3.19936e-01,9.99999e-01
5.671322110e-01,3.27219e-01,9.99999e-01,3.27219e-01,9.99999e-01
5.699678720e-01,3.34520e-01,9.99999e-01,3.34520e-01,9.99999e-01
5.728177114e-01,3.41834e-01,9.99999e-01,3.41834e-01,9.99999e-01
5.756818000e-01,3.49160e-01,9.99999e-01,3.49160e-01,9.99999e-01
5.785602090e-01,3.56492e-01,9.99999e-01,3.56492e-01,9.99999e-01
5.814530100e-01,3.63830e-01,9.99999e-01,3.63830e-01,9.99999e-01
5.843602750e-01,3.71169e-01,9.99999e-01,3.71169e-01,9.99999e-01
5.872820764e-01,3.78507e-01,9.99999e-01,3.78507e-01,9.99999e-01
5.902184868e-01,3.85841e-01,9.99999e-01,3.85841e-01,9.99999e-01
5.931695792e-01,3.93167e-01,9.99999e-01,3.93167e-01,9.99999e-01
5.961354271e-01,4.00484e-01,9.99999e-01,4.00484e-01,9.99999e-01
5.991161043e-01,4.07789e-01,9.99999e-01,4.07789e-01,9.99999e-01
6.021116848e-01,4.15078e-01,9.99999e-01,4.15078e-01,9.99999e-01
6.051222432e-01,4.22351e-01,9.99999e-01,4.22351e-01,9.99999e-01
6.081478544e-01,4.29603e-01,9.99999e-01,4.29603e-01,9.99999e-01
6.111885937e-01,4.36832e-01,9.99999e-01,4.36832e-01,9.99999e-01
6.142445367e-01,4.44037e-01,9.99999e-01,4.44037e-01,9.99999e-01
6.173157594e-01,4.51215e-01,9.99999e-01,4.51215e-01,9.99999e-01
6.204023382e-01,4.58364e-01,9.99999e-01,4.58364e-01,9.99999e-01
6.235043498e-01,4.65482e-01,9.99999e-01,4.65482e-01,9.99999e-01
6.266218716e-01,4.72566e-01,9.99999e-01,4.72566e-01,9.99999e-01
6.297549810e-01,4.79615e-01,9.99999e-01,4.79615e-01,9.99999e-01
6.329037559e-01,4.86626e-01,9.99999e-01,4.86626e-01,9.99999e-01
6.360682746e-01,4.93599e-01,9.99999e-01,4.93599e-01,9.99999e-01
6.392486160e-01,5.00531e-01,9.99999e-01,5.00531e-01,9.99999e-01
6.424448591e-01,5.07420e-01,9.99999e-01,5.07420e-01,9.99999e-01
6.456570834e-01,5.14266e-01,9.99999e-01,5.14266e-01,9.99999e-01
6.488853688e-01,5.21065e-01,9.99999e-01,5.21065e-01,9.99999e-01
6.521297956e-01,5.27818e-01,9.99999e-01,5.27818e-01,9.99999e-01
6.553904446e-01,5.34522e-01,9.99999e-01,5.34522e-01,9.99999e-01
6.586673968e-01,5.41177e-01,9.99999e-01,5.41177e-01,9.99999e-01
6.619607338e-01,5.47780e-01,9.99999e-01,5.47780e-01,9.99999e-01
6.652705375e-01,5.54332e-01,9.99999e-01,5.54332e-01,9.99999e-01
6.685968902e-01,5.60829e-01,9.99999e-01,5.60829e-01,9.99999e-01
6.719398746e-01,5.67273e-01,9.99999e-01,5.67273e-01,9.99999e-01
6.752995740e-01,5.73661e-01,9.99999e-01,5.73661e-01,9.99999e-01
6.786760719e-01,5.79993e-01,9.99999e-01,5.79993e-01,9.99999e-01
6.820694522e-01,5.86267e-01,9.99999e-01,5.86267e-01,9.99999e-01
6.854797995e-01,5.92483e-01,9.99999e-01,5.92483e-01,9.99999e-01
6.889071985e-01,5.98641e-01,9.99999e-01,5.98641e-01,9.99999e-01
6.923517345e-01,6.04739e-01,9.99999e-01,6.04739e-01,9.99999e-01
6.958134932e-01,6.10777e-01,9.99999e-01,6.10777e-01,9.99999e-01
6.992925606e-01,6.16754e-01,9.99999e-01,6.16754e-01,9.99999e-01
7.027890234e-01,6.22669e-01,9.99999e-01,6.22669e-01,9.99999e-01
7.063029686e-01,6.28523e-01,9.99999e-01,6.28523e-01,9.99999e-01
7.098344834e-01,6.34315e-01,9.99999e-01,6.34315e-01,9.99999e-01
7.133836558e-01,6.40044e-01,9.99999e-01,6.40044e-01,9.99999e-01
7.169505741e-01,6.45710e-01,9.99999e-01,6.45710e-01,9.99999e-01
7.205353270e-01,6.51313e-01,9.99999e-01,6.51313e-01,9.99999e-01
7.241380036e-01,6.56853e-01,9.99999e-01,6.56853e-01,9.99999e-01
7.277586936e-01,6.62329e-01,9.99999e-01,6.62329e-01,9.99999e-01
7.313974871e-01,6.67741e-01,9.99999e-01,6.67741e-01,9.99999e-01
7.350544745e-01,6.73089e-01,9.99999e-01,6.73089e-01,9.99999e-01
7.387297469e-01,6.78373e-01,9.99999e-01,6.78373e-01,9.99999e-01
7.424233956e-01,6.83592e-01,9.99999e-01,6.83592e-01,9.99999e-01
7.461355126e-01,6.88748e-01,9.99999e-01,6.88748e-01,9.99999e-01
7.498661902e-01,6.93839e-01,9.99999e-01,6.93839e-01,9.99999e-01
7.536155211e-01,6.98867e-01,9.99999e-01,6.98867e-01,9.99999e-01
7.573835987e-01,7.03831e-01,9.99999e-01,7.03831e-01,9.99999e-01
7.611705167e-01,7.08730e-01,9.99999e-01,7.08730e-01,9.99999e-01
7.649763693e-01,7.13566e-01,9.99999e-01,7.13566e-01,9.99999e-01
7.688012511e-01,7.18339e-01,9.99999e-01,7.18339e-01,9.99999e-01
7.726452574e-01,7.23048e-01,9.99999e-01,7.23048e-01,9.99999e-01
7.765084837e-01,7.27694e-01,9.99999e-01,7.27694e-01,9.99999e-01
7.803910261e-01,7.20683e-01,9.84166e-01,7.32278e-01,9.99999e-01
7.842929812e-01,6.89084e-01,9.35239e-01,7.36799e-01,9.99999e-01
7.882144461e-01,6.89670e-01,9.30405e-01,7.41257e-01,9.99999e-01
7.921555184e-01,7.15447e-01,9.59488e-01,7.45654e-01,9.99999e-01
7.961162960e-01,7.29629e-01,9.72852e-01,7.49989e-01,9.99999e-01
8.000968774e-01,7.43094e-01,9.85191e-01,7.54263e-01,9.99999e-01
8.040973618e-01,7.52650e-01,9.92317e-01,7.58477e-01,9.99999e-01
8.081178486e-01,7.59932e-01,9.96462e-01,7.62630e-01,9.99999e-01
8.121584379e-01,7.65887e-01,9.98909e-01,7.66723e-01,9.99999e-01
8.162192301e-01,7.70571e-01,9.99758e-01,7.70756e-01,9.99999e-01
8.203003262e-01,7.74728e-01,9.99996e-01,7.74730e-01,9.99999e-01
8.244018279e-01,7.78646e-01,9.99999e-01,7.78646e-01,9.99999e-01
8.285238370e-01,7.82504e-01,9.99999e-01,7.82504e-01,9.99999e-01
8.326664562e-01,7.86304e-01,9.99999e-01,7.86304e-01,9.99999e-01
8.368297885e-01,7.90047e-01,9.99999e-01,7.90047e-01,9.99999e-01
8.410139374e-01,7.93733e-01,9.99999e-01,7.93733e-01,9.99999e-01
8.452190071e-01,7.97363e-01,9.99999e-01,7.97363e-01,9.99999e-01
8.494451021e-01,8.00937e-01,9.99999e-01,8.00937e-01,9.99999e-01
8.536923276e-01,8.04457e-01,9.99999e-01,8.04457e-01,9.99999e-01
8.579607893e-01,8.07922e-01,9.99999e-01,8.07922e-01,9.99999e-01
8.622505932e-01,8.11333e-01,9.99999e-01,8.11333e-01,9.99999e-01
8.665618462e-01,7.79899e-01,9.57295e-01,8.14690e-01,9.99999e-01
8.708946554e-01,6.87868e-01,8.40919e-01,8.17995e-01,9.99999e-01
8.752491287e-01,7.15807e-01,8.71609e-01,8.21247e-01,9.99999e-01
8.796253743e-01,7.65210e-01,9.28148e-01,8.24448e-01,9.99999e-01
8.840235012e-01,7.96382e-01,9.62281e-01,8.27598e-01,9.99999e-01
8.884436187e-01,8.18245e-01,9.85010e-01,8.30697e-01,9.99999e-01
8.928858368e-01,8.28663e-01,9.93903e-01,8.33746e-01,9.99999e-01
8.973502660e-01,8.35507e-01,9.98519e-01,8.36746e-01,9.99999e-01
9.018370173e-01,8.39560e-01,9.99836e-01,8.39697e-01,9.99999e-01
9.063462024e-01,8.39021e-01,9.95752e-01,8.42600e-01,9.99999e-01
9.108779334e-01,8.37327e-01,9.90385e-01,8.45455e-01,9.99999e-01
9.154323231e-01,8.46349e-01,9.97743e-01,8.48263e-01,9.99999e-01
9.200094847e-01,8.22221e-01,9.66153e-01,8.51025e-01,9.99999e-01
9.246095321e-01,8.14225e-01,9.53714e-01,8.53741e-01,9.99999e-01
9.292325798e-01,8.24916e-01,9.63222e-01,8.56411e-01,9.99999e-01
9.338787427e-01,8.28687e-01,9.64668e-01,8.59038e-01,9.99999e-01
9.385481364e-01,8.39197e-01,9.73975e-01,8.61620e-01,9.99999e-01
9.432408771e-01,8.50356e-01,9.84027e-01,8.64158e-01,9.99999e-01
9.479570815e-01,8.59523e-01,9.91771e-01,8.66654e-01,9.99999e-01
9.526968669e-01,8.65654e-01,9.96026e-01,8.69107e-01,9.99999e-01
9.574603512e-01,8.70038e-01,9.98299e-01,8.71519e-01,9.99999e-01
9.622476530e-01,8.73426e-01,9.99469e-01,8.73889e-01,9.99999e-01
9.670588912e-01,8.76080e-01,9.99840e-01,8.76219e-01,9.99999e-01
9.718941857e-01,8.78500e-01,9.99988e-01,8.78509e-01,9.99999e-01
9.767536566e-01,8.80760e-01,9.99999e-01,8.80760e-01,9.99999e-01
9.816374249e-01,8.82972e-01,9.99999e-01,8.82972e-01,9.99999e-01
9.865456120e-01,8.85145e-01,9.99999e-01,8.85145e-01,9.99999e-01
9.914783401e-01,8.87281e-01,9.99999e-01,8.87281e-01,9.99999e-01
9.964357318e-01,8.89379e-01,9.99999e-01,8.89379e-01,9.99999e-01
1.001417910e+00,8.91441e-01,9.99999e-01,8.91441e-01,9.99999e-01
1.006425000e+00,8.93467e-01,9.99999e-01,8.93467e-01,9.99999e-01
1.011457125e+00,8.95457e-01,9.99999e-01,8.95457e-01,9.99999e-01
1.016514411e+00,8.97412e-01,9.99999e-01,8.97412e-01,9.99999e-01
1.021596983e+00,8.99312e-01,9.99976e-01,8.99333e-01,9.99999e-01
1.026704968e+00,8.99730e-01,9.98346e-01,9.01219e-01,9.99999e-01
1.031838492e+00,8.79986e-01,9.74434e-01,9.03073e-01,9.99999e-01
1.036997685e+00,2.81541e-01,3.11131e-01,9.04893e-01,9.99999e-01
1.042182673e+00,3.43018e-01,3.78322e-01,9.06681e-01,9.99999e-01
1.047393587e+00,3.11963e-01,3.43406e-01,9.08437e-01,9.99999e-01
1.052630555e+00,5.57071e-02,6.12056e-02,9.10162e-01,9.99999e-01
1.057893707e+00,1.01579e-01,1.11398e-01,9.11856e-01,9.99999e-01
1.063183176e+00,1.86846e-01,2.04534e-01,9.13520e-01,9.99999e-01
1.068499092e+00,3.18539e-01,3.48071e-01,9.15153e-01,9.99999e-01
1.073841587e+00,4.71689e-01,5.14518e-01,9.16757e-01,9.99999e-01
1.079210795e+00,6.04067e-01,6.57786e-01,9.18332e-01,9.99999e-01
1.084606849e+00,7.32134e-01,7.95901e-01,9.19879e-01,9.99999e-01
1.090029883e+00,8.18700e-01,8.88541e-01,9.21398e-01,9.99999e-01
1.095480033e+00,8.70768e-01,9.43523e-01,9.22889e-01,9.99999e-01
1.100957433e+00,8.98861e-01,9.72421e-01,9.24353e-01,9.99999e-01
1.106462220e+00,9.15157e-01,9.88513e-01,9.25790e-01,9.99999e-01
1.111994531e+00,9.23241e-01,9.95728e-01,9.27201e-01,9.99999e-01
1.117554504e+00,9.27619e-01,9.98957e-01,9.28587e-01,9.99999e-01
1.123142276e+00,9.29883e-01,9.99931e-01,9.29946e-01,9.99999e-01
1.128757988e+00,9.31281e-01,9.99999e-01,9.31282e-01,9.99999e-01
1.134401778e+00,9.32592e-01,9.99999e-01,9.32592e-01,9.99999e-01
1.140073787e+00,9.33878e-01,9.99999e-01,9.33878e-01,9.99999e-01
1.145774156e+00,9.35141e-01,9.99999e-01,9.35141e-01,9.99999e-01
1.151503026e+00,9.36381e-01,9.99999e-01,9.36381e-01,9.99999e-01
1.157260541e+00,9.37597e-01,9.99999e-01,9.37597e-01,9.99999e-01
1.163046844e+00,9.38791e-01,9.99999e-01,9.38791e-01,9.99999e-01
1.168862078e+00,9.39963e-01,9.99999e-01,9.39963e-01,9.99999e-01
1.174706389e+00,9.41113e-01,9.99999e-01,9.41113e-01,9.99999e-01
1.180579921e+00,9.42242e-01,9.99999e-01,9.42242e-01,9.99999e-01
1.186482820e+00,9.43347e-01,9.99996e-01,9.43350e-01,9.99999e-01
1.192415234e+00,9.38816e-01,9.94046e-01,9.44437e-01,9.99999e-01
1.198377311e+00,5.58191e-01,5.90363e-01,9.45504e-01,9.99999e-01
1.204369197e+00,3.67246e-06,3.87983e-06,9.46552e-01,9.99999e-01
1.210391043e+00,4.54268e-19,4.79398e-19,9.47579e-01,9.99999e-01
1.216442998e+00,9.41559e-17,9.92590e-17,9.48587e-01,9.99999e-01
1.222525213e+00,1.67112e-16,1.75986e-16,9.49577e-01,9.99999e-01
1.228637839e+00,1.13121e-12,1.19006e-12,9.50548e-01,9.99999e-01
1.234781029e+00,6.60939e-09,6.94628e-09,9.51501e-01,9.99999e-01
1.240954934e+00,4.78214e-06,5.02095e-06,9.52435e-01,9.99999e-01
1.247159708e+00,1.01441e-03,1.06404e-03,9.53353e-01,9.99999e-01
1.253395507e+00,2.25086e-02,2.35876e-02,9.54253e-01,9.99999e-01
1.259662485e+00,1.14377e-01,1.19750e-01,9.55136e-01,9.99999e-01
1.265960797e+00,2.79686e-01,2.92558e-01,9.56002e-01,9.99999e-01
1.272290601e+00,5.78877e-01,6.04980e-01,9.56852e-01,9.99999e-01
1.278652054e+00,5.15102e-01,5.37861e-01,9.57686e-01,9.99999e-01
1.285045314e+00,3.62618e-02,3.78316e-02,9.58504e-01,9.99999e-01
1.291470541e+00,6.46889e-03,6.74329e-03,9.59307e-01,9.99999e-01
1.297927893e+00,8.23183e-02,8.57397e-02,9.60094e-01,9.99999e-01
1.304417533e+00,3.86848e-01,4.02603e-01,9.60867e-01,9.99999e-01
1.310939621e+00,1.11939e-01,1.16406e-01,9.61625e-01,9.99999e-01
1.317494319e+00,5.64213e-07,5.86275e-07,9.62368e-01,9.99999e-01
1.324081790e+00,3.22617e-05,3.34978e-05,9.63098e-01,9.99999e-01
1.330702199e+00,4.29264e-03,4.45381e-03,9.63813e-01,9.99999e-01
1.337355710e+00,2.96884e-03,3.07806e-03,9.64515e-01,9.99999e-01
1.344042489e+00,1.08451e-03,1.12361e-03,9.65204e-01,9.99999e-01
1.350762701e+00,3.41497e-03,3.53560e-03,9.65879e-01,9.99999e-01
1.357516515e+00,2.32628e-02,2.40680e-02,9.66542e-01,9.99999e-01
1.364304097e+00,9.62636e-02,9.95289e-02,9.67192e-01,9.99999e-01
1.371125618e+00,2.85317e-01,2.94800e-01,9.67829e-01,9.99999e-01
1.377981246e+00,3.66131e-01,3.78057e-01,9.68455e-01,9.99999e-01
1.384871152e+00,5.50124e-01,5.67683e-01,9.69068e-01,9.99999e-01
1.391795508e+00,5.74967e-01,5.92951e-01,9.69669e-01,9.99999e-01
1.398754485e+00,7.03796e-01,7.25368e-01,9.70260e-01,9.99999e-01
1.405748258e+00,7.65957e-01,7.88964e-01,9.70838e-01,9.99999e-01
1.412776999e+00,8.36648e-01,8.61274e-01,9.71406e-01,9.99999e-01
1.419840884e+00,7.78699e-01,8.01160e-01,9.71963e-01,9.99999e-01
1.426940089e+00,1.08339e-01,1.11401e-01,9.72509e-01,9.99999e-01
1.434074789e+00,1.96781e-265,2.02232e-265,9.73045e-01,9.99999e-01
1.441245163e+00,0.00000e+00,0.00000e+00,9.73570e-01,9.99999e-01
1.448451389e+00,8.64615e-322,8.89318e-322,9.74085e-01,9.99999e-01
1.455693646e+00,3.37972e-144,3.46783e-144,9.74590e-01,9.99999e-01
1.462972114e+00,1.60314e-70,1.64410e-70,9.75086e-01,9.99999e-01
1.470286975e+00,2.44858e-30,2.50989e-30,9.75572e-01,9.99999e-01
1.477638409e+00,1.02491e-19,1.05006e-19,9.76049e-01,9.99999e-01
1.485026601e+00,1.33705e-11,1.36921e-11,9.76516e-01,9.99999e-01
1.492451734e+00,7.00047e-10,7.16545e-10,9.76975e-01,9.99999e-01
1.499913993e+00,3.14734e-05,3.22003e-05,9.77424e-01,9.99999e-01
1.507413563e+00,3.66792e-04,3.75094e-04,9.77865e-01,9.99999e-01
1.514950631e+00,1.64305e-05,1.67950e-05,9.78298e-01,9.99999e-01
1.522525384e+00,1.45939e-14,1.49112e-14,9.78722e-01,9.99999e-01
1.530138011e+00,4.18143e-32,4.27052e-32,9.79137e-01,9.99999e-01
1.537788701e+00,3.36642e-24,3.43672e-24,9.79545e-01,9.99999e-01
1.545477645e+00,1.43064e-06,1.45992e-06,9.79945e-01,9.99999e-01
1.553205033e+00,2.93565e-04,2.99452e-04,9.80337e-01,9.99999e-01
1.560971058e+00,7.38985e-05,7.53511e-05,9.80722e-01,9.99999e-01
1.568775913e+00,6.00905e-79,6.12481e-79,9.81099e-01,9.99999e-01
1.576619793e+00,3.56413e-183,3.63142e-183,9.81469e-01,9.99999e-01
1.584502892e+00,1.61288e-100,1.64272e-100,9.81832e-01,9.99999e-01
1.592425406e+00,2.30788e-70,2.34973e-70,9.82187e-01,9.99999e-01
1.600387533e+00,1.05435e-112,1.07309e-112,9.82536e-01,9.99999e-01
1.608389471e+00,1.80791e-188,1.83940e-188,9.82878e-01,9.99999e-01
1.616431418e+00,1.19304e-189,1.21340e-189,9.83213e-01,9.99999e-01
1.624513575e+00,3.57403e-89,3.63384e-89,9.83542e-01,9.99999e-01
1.632636143e+00,1.29493e-66,1.31617e-66,9.83865e-01,9.99999e-01
1.640799324e+00,3.03665e-28,3.08545e-28,9.84181e-01,9.99999e-01
1.649003321e+00,3.75877e-28,3.81798e-28,9.84491e-01,9.99999e-01
1.657248337e+00,4.64522e-22,4.71694e-22,9.84795e-01,9.99999e-01
1.665534579e+00,3.21144e-22,3.26004e-22,9.85093e-01,9.99999e-01
1.673862252e+00,1.12422e-14,1.14089e-14,9.85385e-01,9.99999e-01
1.682231563e+00,1.28552e-10,1.30421e-10,9.85672e-01,9.99999e-01
1.690642721e+00,1.33949e-06,1.35857e-06,9.85953e-01,9.99999e-01
1.699095934e+00,2.49320e-04,2.52801e-04,9.86228e-01,9.99999e-01
1.707591414e+00,1.18502e-02,1.20123e-02,9.86498e-01,9.99999e-01
1.716129371e+00,8.98540e-02,9.10593e-02,9.86763e-01,9.99999e-01
1.724710018e+00,2.76802e-01,2.80441e-01,9.87023e-01,9.99999e-01
1.733333568e+00,4.37129e-01,4.42762e-01,9.87278e-01,9.99999e-01
1.742000236e+00,5.91151e-01,5.98617e-01,9.87527e-01,9.99999e-01
1.750710237e+00,4.79985e-02,4.85926e-02,9.87772e-01,9.99999e-01
1.759463788e+00,5.82294e-14,5.89358e-14,9.88012e-01,9.99999e-01
1.768261107e+00,6.53505e-15,6.61276e-15,9.88248e-01,9.99999e-01
1.777102413e+00,7.88223e-14,7.97409e-14,9.88478e-01,9.99999e-01
1.785987925e+00,1.47191e-13,1.48872e-13,9.88705e-01,9.99999e-01
1.794917864e+00,1.18204e-12,1.19527e-12,9.88927e-01,9.99999e-01
1.803892454e+00,9.78320e-13,9.89056e-13,9.89144e-01,9.99999e-01
1.812911916e+00,5.44877e-12,5.50738e-12,9.89357e-01,9.99999e-01
1.821976476e+00,3.16697e-12,3.20035e-12,9.89566e-01,9.99999e-01
1.831086358e+00,4.16952e-10,4.21260e-10,9.89771e-01,9.99999e-01
1.840241790e+00,1.58218e-08,1.59820e-08,9.89972e-01,9.99999e-01
1.849442999e+00,4.56322e-06,4.60852e-06,9.90170e-01,9.99999e-01
1.858690214e+00,1.92460e-05,1.94333e-05,9.90363e-01,9.99999e-01
1.867983665e+00,3.09959e-06,3.12915e-06,9.90552e-01,9.99999e-01
1.877323583e+00,1.40622e-25,1.41937e-25,9.90738e-01,9.99999e-01
