#,Wave/freq,Total,CO2,Rayleigh,CIA
4.000000000e-01,1.63712e-20,9.99999e-01,1.63712e-20,9.99999e-01
4.020000000e-01,4.03006e-20,9.99999e-01,4.03006e-20,9.99999e-01
4.040100000e-01,9.73653e-20,9.99999e-01,9.73653e-20,9.99999e-01
4.060300500e-01,2.31169e-19,9.99999e-01,2.31169e-19,9.99999e-01
4.080602003e-01,5.39559e-19,9.99999e-01,5.39559e-19,9.99999e-01
4.101005013e-01,1.23844e-18,9.99999e-01,1.23844e-18,9.99999e-01
4.121510038e-01,2.79632e-18,9.99999e-01,2.79632e-18,9.99999e-01
4.142117588e-01,6.21312e-18,9.99999e-01,6.21312e-18,9.99999e-01
4.162828176e-01,1.35889e-17,9.99999e-01,1.35889e-17,9.99999e-01
4.183642317e-01,2.92648e-17,9.99999e-01,2.92648e-17,9.99999e-01
4.204560528e-01,6.20764e-17,9.99999e-01,6.20764e-17,9.99999e-01
4.225583331e-01,1.29735e-16,9.99999e-01,1.29735e-16,9.99999e-01
4.246711247e-01,2.67216e-16,9.99999e-01,2.67216e-16,9.99999e-01
4.267944804e-01,5.42589e-16,9.99999e-01,5.42589e-16,9.99999e-01
4.289284528e-01,1.08643e-15,9.99999e-01,1.08643e-15,9.99999e-01
4.310730950e-01,2.14575e-15,9.99999e-01,2.14575e-15,9.99999e-01
4.332284605e-01,4.18135e-15,9.99999e-01,4.18135e-15,9.99999e-01
4.353946028e-01,8.04139e-15,9.99999e-01,8.04139e-15,9.99999e-01
4.375715758e-01,1.52664e-14,9.99999e-01,1.52664e-14,9.99999e-01
4.397594337e-01,2.86181e-14,9.99999e-01,2.86181e-14,9.99999e-01
4.419582309e-01,5.29854e-14,9.99999e-01,5.29854e-14,9.99999e-01
4.441680220e-01,9.69141e-14,9.99999e-01,9.69141e-14,9.99999e-01
4.463888621e-01,1.75161e-13,9.99999e-01,1.75161e-13,9.99999e-01
4.486208064e-01,3.12905e-13,9.99999e-01,3.12905e-13,9.99999e-01
4.508639105e-01,5.52597e-13,9.99999e-01,5.52597e-13,9.99999e-01
4.531182300e-01,9.64998e-13,9.99999e-01,9.64998e-13,9.99999e-01
4.553838212e-01,1.66672e-12,9.99999e-01,1.66672e-12,9.99999e-01
4.576607403e-01,2.84780e-12,9.99999e-01,2.84780e-12,9.99999e-01
4.599490440e-01,4.81461e-12,9.99999e-01,4.81461e-12,9.99999e-01
4.622487892e-01,8.05580e-12,9.99999e-01,8.05580e-12,9.99999e-01
4.645600332e-01,1.33426e-11,9.99999e-01,1.33426e-11,9.99999e-01
4.668828333e-01,2.18798e-11,9.99999e-01,2.18798e-11,9.99999e-01
4.692172475e-01,3.55308e-11,9.99999e-01,3.55308e-11,9.99999e-01
4.715633337e-01,5.71486e-11,9.99999e-01,5.71486e-11,9.99999e-01
4.739211504e-01,9.10606e-11,9.99999e-01,9.10606e-11,9.99999e-01
4.762907561e-01,1.43767e-10,9.99999e-01,1.43767e-10,9.99999e-01
4.786722099e-01,2.24941e-10,9.99999e-01,2.24941e-10,9.99999e-01
4.810655710e-01,3.48851e-10,9.99999e-01,3.48851e-10,9.99999e-01
4.834708988e-01,5.36347e-10,9.99999e-01,5.36347e-10,9.99999e-01
4.858882533e-01,8.17640e-10,9.99999e-01,8.17640e-10,9.99999e-01
4.883176946e-01,1.23612e-09,9.99999e-01,1.23612e-09,9.99999e-01
4.907592831e-01,1.85360e-09,9.99999e-01,1.85360e-09,9.99999e-01
4.932130795e-01,2.75736e-09,9.99999e-01,2.75736e-09,9.99999e-01
4.956791449e-01,4.06973e-09,9.99999e-01,4.06973e-09,9.99999e-01
4.981575406e-01,5.96070e-09,9.99999e-01,5.96070e-09,9.99999e-01
5.006483283e-01,8.66474e-09,9.99999e-01,8.66474e-09,9.99999e-01
5.031515699e-01,1.25027e-08,9.99999e-01,1.25027e-08,9.99999e-01
5.056673278e-01,1.79105e-08,9.99999e-01,1.79105e-08,9.99999e-01
5.081956644e-01,2.54759e-08,9.99999e-01,2.54759e-08,9.99999e-01
5.107366428e-01,3.59854e-08,9.99999e-01,3.59854e-08,9.99999e-01
5.132903260e-01,5.04849e-08,9.99999e-01,5.04849e-08,9.99999e-01
5.158567776e-01,7.03546e-08,9.99999e-01,7.03546e-08,9.99999e-01
5.184360615e-01,9.74038e-08,9.99999e-01,9.74038e-08,9.99999e-01
5.210282418e-01,1.33989e-07,9.99999e-01,1.33989e-07,9.99999e-01
5.236333830e-01,1.83158e-07,9.99999e-01,1.83158e-07,9.99999e-01
5.262515499e-01,2.48830e-07,9.99999e-01,2.48830e-07,9.99999e-01
5.288828077e-01,3.36008e-07,9.99999e-01,3.36008e-07,9.99999e-01
5.315272217e-01,4.51045e-07,9.99999e-01,4.51045e-07,9.99999e-01
5.341848578e-01,6.01956e-07,9.99999e-01,6.01956e-07,9.99999e-01
5.368557821e-01,7.98792e-07,9.99999e-01,7.98792e-07,9.99999e-01
5.395400610e-01,1.05409e-06,9.99999e-01,1.05409e-06,9.99999e-01
5.422377613e-01,1.38337e-06,9.99999e-01,1.38337e-06,9.99999e-01
5.449489501e-01,1.80580e-06,9.99999e-01,1.80580e-06,9.99999e-01
5.476736949e-01,2.34485e-06,9.99999e-01,2.34485e-06,9.99999e-01
5.504120634e-01,3.02914e-06,9.99999e-01,3.02914e-06,9.99999e-01
5.531641237e-01,3.89338e-06,9.99999e-01,3.89338e-06,9.99999e-01
5.559299443e-01,4.97945e-06,9.99999e-01,4.97945e-06,9.99999e-01
5.587095940e-01,6.33760e-06,9.99999e-01,6.33760e-06,9.99999e-01
5.615031420e-01,8.02786e-06,9.99999e-01,8.02786e-06,9.99999e-01
5.643106577e-01,1.01215e-05,9.99999e-01,1.01215e-05,9.99999e-01
5.671322110e-01,1.27030e-05,9.99999e-01,1.27030e-05,9.99999e-01
5.699678720e-01,1.58714e-05,9.99999e-01,1.58714e-05,9.99999e-01
5.728177114e-01,1.97431e-05,9.99999e-01,1.97431e-05,9.99999e-01
5.756818000e-01,2.44536e-05,9.99999e-01,2.44536e-05,9.99999e-01
5.785602090e-01,3.01602e-05,9.99999e-01,3.01602e-05,9.99999e-01
5.814530100e-01,3.70447e-05,9.99999e-01,3.70447e-05,9.99999e-01
5.843602750e-01,4.53164e-05,9.99999e-01,4.53164e-05,9.99999e-01
5.872820764e-01,5.52147e-05,9.99999e-01,5.52147e-05,9.99999e-01
5.902184868e-01,6.70131e-05,9.99999e-01,6.70131e-05,9.99999e-01
5.931695792e-01,8.10221e-05,9.99999e-01,8.10221e-05,9.99999e-01
5.961354271e-01,9.75930e-05,9.99999e-01,9.75930e-05,9.99999e-01
5.991161043e-01,1.17122e-04,9.99999e-01,1.17122e-04,9.99999e-01
6.021116848e-01,1.40053e-04,9.99999e-01,1.40053e-04,9.99999e-01
6.051222432e-01,1.66883e-04,9.99999e-01,1.66883e-04,9.99999e-01
6.081478544e-01,1.98166e-04,9.99999e-01,1.98166e-04,9.99999e-01
6.111885937e-01,2.34515e-04,9.99999e-01,2.34515e-04,9.99999e-01
6.142445367e-01,2.76611e-04,9.99999e-01,2.76611e-04,9.99999e-01
6.173157594e-01,3.25201e-04,9.99999e-01,3.25201e-04,9.99999e-01
6.204023382e-01,3.81105e-04,9.99999e-01,3.81105e-04,9.99999e-01
6.235043498e-01,4.45223e-04,9.99999e-01,4.45223e-04,9.99999e-01
6.266218716e-01,5.18533e-04,9.99999e-01,5.18533e-04,9.99999e-01
6.297549810e-01,6.02099e-04,9.99999e-01,6.02099e-04,9.99999e-01
6.329037559e-01,6.97072e-04,9.99999e-01,6.97072e-04,9.99999e-01
6.360682746e-01,8.04694e-04,9.99999e-01,8.04694e-04,9.99999e-01
6.392486160e-01,9.26301e-04,9.99999e-01,9.26301e-04,9.99999e-01
6.424448591e-01,1.06333e-03,9.99999e-01,1.06333e-03,9.99999e-01
6.456570834e-01,1.21730e-03,9.99999e-01,1.21730e-03,9.99999e-01
6.488853688e-01,1.38985e-03,9.99999e-01,1.38985e-03,9.99999e-01
6.521297956e-01,1.58271e-03,9.99999e-01,1.58271e-03,9.99999e-01
6.553904446e-01,1.79771e-03,9.99999e-01,1.79771e-03,9.99999e-01
6.586673968e-01,2.03679e-03,9.99999e-01,2.03679e-03,9.99999e-01
6.619607338e-01,2.30198e-03,9.99999e-01,2.30198e-03,9.99999e-01
6.652705375e-01,2.59541e-03,9.99999e-01,2.59541e-03,9.99999e-01
6.685968902e-01,2.91932e-03,9.99999e-01,2.91932e-03,9.99999e-01
6.719398746e-01,3.27604e-03,9.99999e-01,3.27604e-03,9.99999e-01
6.752995740e-01,3.66798e-03,9.99999e-01,3.66798e-03,9.99999e-01
6.786760719e-01,4.09765e-03,9.99999e-01,4.09765e-03,9.99999e-01
6.820694522e-01,4.56766e-03,9.99999e-01,4.56766e-03,9.99999e-01
6.854797995e-01,5.08066e-03,9.99999e-01,5.08066e-03,9.99999e-01
6.889071985e-01,5.63942e-03,9.99999e-01,5.63942e-03,9.99999e-01
6.923517345e-01,6.24673e-03,9.99999e-01,6.24673e-03,9.99999e-01
6.958134932e-01,6.90549e-03,9.99999e-01,6.90549e-03,9.99999e-01
6.992925606e-01,7.61861e-03,9.99999e-01,7.61861e-03,9.99999e-01
7.027890234e-01,8.38907e-03,9.99999e-01,8.38907e-03,9.99999e-01
7.063029686e-01,9.21989e-03,9.99999e-01,9.21989e-03,9.99999e-01
7.098344834e-01,1.01141e-02,9.99999e-01,1.01141e-02,9.99999e-01
7.133836558e-01,1.10748e-02,9.99999e-01,1.10748e-02,9.99999e-01
7.169505741e-01,1.21050e-02,9.99999e-01,1.21050e-02,9.99999e-01
7.205353270e-01,1.32078e-02,9.99999e-01,1.32078e-02,9.99999e-01
7.241380036e-01,1.43863e-02,9.99999e-01,1.43863e-02,9.99999e-01
7.277586936e-01,1.56435e-02,9.99999e-01,1.56435e-02,9.99999e-01
7.313974871e-01,1.69824e-02,9.99999e-01,1.69824e-02,9.99999e-01
7.350544745e-01,1.84061e-02,9.99999e-01,1.84061e-02,9.99999e-01
7.387297469e-01,1.99174e-02,9.99999e-01,1.99174e-02,9.99999e-01
7.424233956e-01,2.15193e-02,9.99999e-01,2.15193e-02,9.99999e-01
7.461355126e-01,2.32144e-02,9.99999e-01,2.32144e-02,9.99999e-01
7.498661902e-01,2.50057e-02,9.99999e-01,2.50057e-02,9.99999e-01
7.536155211e-01,2.68956e-02,9.99999e-01,2.68956e-02,9.99999e-01
7.573835987e-01,2.88868e-02,9.99999e-01,2.88868e-02,9.99999e-01
7.611705167e-01,3.09816e-02,9.99999e-01,3.09816e-02,9.99999e-01
7.649763693e-01,3.31824e-02,9.99999e-01,3.31824e-02,9.99999e-01
7.688012511e-01,3.54915e-02,9.99999e-01,3.54915e-02,9.99999e-01
7.726452574e-01,3.79108e-02,9.99999e-01,3.79108e-02,9.99999e-01
7.765084837e-01,4.04423e-02,9.99999e-01,4.04423e-02,9.99999e-01
7.803910261e-01,3.84620e-02,8.92643e-01,4.30878e-02,9.99999e-01
7.842929812e-01,2.48176e-02,5.41291e-01,4.58489e-02,9.99999e-01
7.882144461e-01,2.57058e-02,5.27546e-01,4.87272e-02,9.99999e-01
7.921555184e-01,3.45613e-02,6.68189e-01,5.17239e-02,9.99999e-01
7.961162960e-01,4.15958e-02,7.58491e-01,5.48401e-02,9.99999e-01
8.000968774e-01,4.99842e-02,8.60652e-01,5.80771e-02,9.99999e-01
8.040973618e-01,5.68096e-02,9.24704e-01,6.14354e-02,9.99999e-01
8.081178486e-01,6.26297e-02,9.64783e-01,6.49158e-02,9.99999e-01
8.121584379e-01,6.77584e-02,9.88902e-01,6.85187e-02,9.99999e-01
8.162192301e-01,7.20666e-02,9.97537e-01,7.22445e-02,9.99999e-01
8.203003262e-01,7.60902e-02,9.99958e-01,7.60933e-02,9.99999e-01
8.244018279e-01,8.00650e-02,9.99999e-01,8.00650e-02,9.99999e-01
8.285238370e-01,8.41593e-02,9.99999e-01,8.41593e-02,9.99999e-01
8.326664562e-01,8.83760e-02,9.99999e-01,8.83760e-02,9.99999e-01
8.368297885e-01,9.27143e-02,9.99999e-01,9.27143e-02,9.99999e-01
8.410139374e-01,9.71735e-02,9.99999e-01,9.71735e-02,9.99999e-01
8.452190071e-01,1.01753e-01,9.99999e-01,1.01753e-01,9.99999e-01
8.494451021e-01,1.06451e-01,9.99999e-01,1.06451e-01,9.99999e-01
8.536923276e-01,1.11267e-01,9.99999e-01,1.11267e-01,9.99999e-01
8.579607893e-01,1.16199e-01,9.99999e-01,1.16199e-01,9.99999e-01
8.622505932e-01,1.21246e-01,9.99999e-01,1.21246e-01,9.99999e-01
8.665618462e-01,1.07949e-01,8.53988e-01,1.26406e-01,9.99999e-01
8.708946554e-01,2.99784e-02,2.27666e-01,1.31677e-01,9.99999e-01
8.752491287e-01,3.88289e-02,2.83304e-01,1.37057e-01,9.99999e-01
8.796253743e-01,6.96511e-02,4.88628e-01,1.42544e-01,9.99999e-01
8.840235012e-01,1.01131e-01,6.82689e-01,1.48136e-01,9.99999e-01
8.884436187e-01,1.32046e-01,8.58385e-01,1.53831e-01,9.99999e-01
8.928858368e-01,1.50033e-01,9.39911e-01,1.59625e-01,9.99999e-01
8.973502660e-01,1.63027e-01,9.84961e-01,1.65516e-01,9.99999e-01
9.018370173e-01,1.71216e-01,9.98327e-01,1.71503e-01,9.99999e-01
9.063462024e-01,1.70550e-01,9.60408e-01,1.77581e-01,9.99999e-01
9.108779334e-01,1.66713e-01,9.07293e-01,1.83748e-01,9.99999e-01
9.154323231e-01,1.85668e-01,9.77195e-01,1.90001e-01,9.99999e-01
9.200094847e-01,1.50551e-01,7.66799e-01,1.96337e-01,9.99999e-01
9.246095321e-01,1.26588e-01,6.24345e-01,2.02753e-01,9.99999e-01
9.292325798e-01,1.46510e-01,7.00181e-01,2.09246e-01,9.99999e-01
9.338787427e-01,1.51573e-01,7.02337e-01,2.15812e-01,9.99999e-01
9.385481364e-01,1.71016e-01,7.68790e-01,2.22448e-01,9.99999e-01
9.432408771e-01,1.94696e-01,8.49637e-01,2.29151e-01,9.99999e-01
9.479570815e-01,2.17017e-01,9.19882e-01,2.35918e-01,9.99999e-01
9.526968669e-01,2.33163e-01,9.60525e-01,2.42745e-01,9.99999e-01
9.574603512e-01,2.45358e-01,9.82888e-01,2.49630e-01,9.99999e-01
9.622476530e-01,2.55188e-01,9.94623e-01,2.56567e-01,9.99999e-01
9.670588912e-01,2.63128e-01,9.98382e-01,2.63555e-01,9.99999e-01
9.718941857e-01,2.70557e-01,9.99883e-01,2.70589e-01,9.99999e-01
9.767536566e-01,2.77666e-01,9.99999e-01,2.77666e-01,9.99999e-01
9.816374249e-01,2.84784e-01,9.99999e-01,2.84784e-01,9.99999e-01
9.865456120e-01,2.91937e-01,9.99999e-01,2.91937e-01,9.99999e-01
9.914783401e-01,2.99124e-01,9.99999e-01,2.99124e-01,9.99999e-01
9.964357318e-01,3.06341e-01,9.99999e-01,3.06341e-01,9.99999e-01
1.001417910e+00,3.13584e-01,9.99999e-01,3.13584e-01,9.99999e-01
1.006425000e+00,3.20850e-01,9.99999e-01,3.20850e-01,9.99999e-01
1.011457125e+00,3.28136e-01,9.99999e-01,3.28136e-01,9.99999e-01
1.016514411e+00,3.35438e-01,9.99999e-01,3.35438e-01,9.99999e-01
1.021596983e+00,3.42685e-01,9.99798e-01,3.42754e-01,9.99999e-01
1.026704968e+00,3.44511e-01,9.84089e-01,3.50081e-01,9.99999e-01
1.031838492e+00,3.16895e-01,8.86631e-01,3.57414e-01,9.99999e-01
1.036997685e+00,1.25415e-02,3.43836e-02,3.64752e-01,9.99999e-01
1.042182673e+00,2.58799e-04,6.95526e-04,3.72091e-01,9.99999e-01
1.047393587e+00,7.79770e-04,2.05511e-03,3.79429e-01,9.99999e-01
1.052630555e+00,5.20173e-09,1.34494e-08,3.86762e-01,9.99999e-01
1.057893707e+00,1.91302e-08,4.85431e-08,3.94087e-01,9.99999e-01
1.063183176e+00,1.91507e-06,4.77095e-06,4.01403e-01,9.99999e-01
1.068499092e+00,3.28902e-05,8.04739e-05,4.08706e-01,9.99999e-01
1.073841587e+00,8.76296e-04,2.10651e-03,4.15993e-01,9.99999e-01
1.079210795e+00,9.09265e-03,2.14822e-02,4.23263e-01,9.99999e-01
1.084606849e+00,4.69519e-02,1.09060e-01,4.30512e-01,9.99999e-01
1.090029883e+00,1.36525e-01,3.11888e-01,4.37739e-01,9.99999e-01
1.095480033e+00,2.49491e-01,5.60728e-01,4.44941e-01,9.99999e-01
1.100957433e+00,3.41312e-01,7.54921e-01,4.52115e-01,9.99999e-01
1.106462220e+00,4.08671e-01,8.89845e-01,4.59260e-01,9.99999e-01
1.111994531e+00,4.46588e-01,9.57575e-01,4.66374e-01,9.99999e-01
1.117554504e+00,4.68448e-01,9.89427e-01,4.73453e-01,9.99999e-01
1.123142276e+00,4.80161e-01,9.99298e-01,4.80498e-01,9.99999e-01
1.128757988e+00,4.87504e-01,9.99999e-01,4.87505e-01,9.99999e-01
1.134401778e+00,4.94472e-01,9.99999e-01,4.94472e-01,9.99999e-01
1.140073787e+00,5.01399e-01,9.99999e-01,5.01399e-01,9.99999e-01
1.145774156e+00,5.08283e-01,9.99999e-01,5.08283e-01,9.99999e-01
1.151503026e+00,5.15123e-01,9.99999e-01,5.15123e-01,9.99999e-01
1.157260541e+00,5.21917e-01,9.99999e-01,5.21917e-01,9.99999e-01
1.163046844e+00,5.28663e-01,9.99999e-01,5.28663e-01,9.99999e-01
1.168862078e+00,5.35361e-01,9.99999e-01,5.35361e-01,9.99999e-01
1.174706389e+00,5.42009e-01,9.99999e-01,5.42009e-01,9.99999e-01
1.180579921e+00,5.48606e-01,9.99999e-01,5.48606e-01,9.99999e-01
1.186482820e+00,5.55139e-01,9.99978e-01,5.55151e-01,9.99999e-01
1.192415234e+00,5.32096e-01,9.47393e-01,5.61642e-01,9.99999e-01
1.198377311e+00,2.81936e-01,4.96297e-01,5.68079e-01,9.99999e-01
1.204369197e+00,9.74586e-42,1.69652e-41,5.74460e-01,9.99999e-01
1.210391043e+00,6.54028e-172,1.12611e-171,5.80784e-01,9.99999e-01
1.216442998e+00,1.23965e-148,2.11166e-148,5.87051e-01,9.99999e-01
1.222525213e+00,2.17869e-146,3.67240e-146,5.93260e-01,9.99999e-01
1.228637839e+00,9.96217e-113,1.66199e-112,5.99410e-01,9.99999e-01
1.234781029e+00,9.31411e-70,1.53825e-69,6.05501e-01,9.99999e-01
1.240954934e+00,4.99059e-46,8.16081e-46,6.11531e-01,9.99999e-01
1.247159708e+00,1.20493e-21,1.95130e-21,6.17500e-01,9.99999e-01
1.253395507e+00,9.07924e-15,1.45639e-14,6.23408e-01,9.99999e-01
1.259662485e+00,4.36197e-09,6.93196e-09,6.29254e-01,9.99999e-01
1.265960797e+00,4.50742e-05,7.09786e-05,6.35038e-01,9.99999e-01
1.272290601e+00,4.57901e-03,7.14621e-03,6.40760e-01,9.99999e-01
1.278652054e+00,6.43261e-03,9.95115e-03,6.46418e-01,9.99999e-01
1.285045314e+00,1.35214e-06,2.07379e-06,6.52013e-01,9.99999e-01
1.291470541e+00,1.04991e-19,1.59671e-19,6.57544e-01,9.99999e-01
1.297927893e+00,4.44108e-08,6.69832e-08,6.63012e-01,9.99999e-01
1.304417533e+00,1.25967e-04,1.88455e-04,6.68416e-01,9.99999e-01
1.310939621e+00,3.80248e-05,5.64370e-05,6.73756e-01,9.99999e-01
1.317494319e+00,7.53379e-58,1.10949e-57,6.79032e-01,9.99999e-01
1.324081790e+00,1.23695e-37,1.80776e-37,6.84244e-01,9.99999e-01
1.330702199e+00,2.15334e-22,3.12353e-22,6.89391e-01,9.99999e-01
1.337355710e+00,2.93717e-20,4.22933e-20,6.94475e-01,9.99999e-01
1.344042489e+00,1.86175e-20,2.66156e-20,6.99494e-01,9.99999e-01
1.350762701e+00,9.66293e-23,1.37170e-22,7.04450e-01,9.99999e-01
1.357516515e+00,1.72760e-13,2.43549e-13,7.09341e-01,9.99999e-01
1.364304097e+00,4.91720e-10,6.88519e-10,7.14169e-01,9.99999e-01
1.371125618e+00,1.59403e-05,2.21720e-05,7.18934e-01,9.99999e-01
1.377981246e+00,6.30618e-05,8.71457e-05,7.23635e-01,9.99999e-01
1.384871152e+00,3.03391e-03,4.16589e-03,7.28274e-01,9.99999e-01
1.391795508e+00,4.80896e-03,6.56200e-03,7.32849e-01,9.99999e-01
1.398754485e+00,2.95271e-02,4.00442e-02,7.37362e-01,9.99999e-01
1.405748258e+00,7.21268e-02,9.72303e-02,7.41813e-01,9.99999e-01
1.412776999e+00,1.67820e-01,2.24898e-01,7.46202e-01,9.99999e-01
1.419840884e+00,1.71016e-01,2.27860e-01,7.50530e-01,9.99999e-01
1.426940089e+00,4.85177e-03,6.42791e-03,7.54796e-01,9.99999e-01
1.434074789e+00,0.00000e+00,0.00000e+00,7.59002e-01,9.99999e-01
1.441245163e+00,0.00000e+00,0.00000e+00,7.63147e-01,9.99999e-01
1.448451389e+00,0.00000e+00,0.00000e+00,7.67233e-01,9.99999e-01
1.455693646e+00,0.00000e+00,0.00000e+00,7.71259e-01,9.99999e-01
1.462972114e+00,0.00000e+00,0.00000e+00,7.75226e-01,9.99999e-01
1.470286975e+00,1.38555e-285,1.77832e-285,7.79134e-01,9.99999e-01
1.477638409e+00,8.99705e-179,1.14907e-178,7.82984e-01,9.99999e-01
1.485026601e+00,1.05251e-98,1.33774e-98,7.86777e-01,9.99999e-01
1.492451734e+00,6.27426e-84,7.93694e-84,7.90513e-01,9.99999e-01
1.499913993e+00,2.52397e-35,3.17803e-35,7.94192e-01,9.99999e-01
1.507413563e+00,4.93679e-34,6.18789e-34,7.97815e-01,9.99999e-01
1.514950631e+00,8.97824e-36,1.12034e-35,8.01383e-01,9.99999e-01
1.522525384e+00,1.60570e-126,1.99492e-126,8.04895e-01,9.99999e-01
1.530138011e+00,6.18168e-305,7.64724e-305,8.08353e-01,9.99999e-01
1.537788701e+00,4.77122e-225,5.87764e-225,8.11757e-01,9.99999e-01
1.545477645e+00,5.90899e-46,7.24932e-46,8.15108e-01,9.99999e-01
1.553205033e+00,1.08071e-33,1.32051e-33,8.18406e-01,9.99999e-01
1.560971058e+00,1.01590e-33,1.23641e-33,8.21652e-01,9.99999e-01
1.568775913e+00,0.00000e+00,0.00000e+00,8.24847e-01,9.99999e-01
1.576619793e+00,0.00000e+00,0.00000e+00,8.27990e-01,9.99999e-01
1.584502892e+00,0.00000e+00,0.00000e+00,8.31083e-01,9.99999e-01
1.592425406e+00,0.00000e+00,0.00000e+00,8.34126e-01,9.99999e-01
1.600387533e+00,0.00000e+00,0.00000e+00,8.37119e-01,9.99999e-01
1.608389471e+00,0.00000e+00,0.00000e+00,8.40064e-01,9.99999e-01
1.616431418e+00,0.00000e+00,0.00000e+00,8.42961e-01,9.99999e-01
1.624513575e+00,0.00000e+00,0.00000e+00,8.45810e-01,9.99999e-01
1.632636143e+00,0.00000e+00,0.00000e+00,8.48613e-01,9.99999e-01
1.640799324e+00,1.92626e-264,2.26254e-264,8.51369e-01,9.99999e-01
1.649003321e+00,1.93074e-264,2.26061e-264,8.54079e-01,9.99999e-01
1.657248337e+00,6.60518e-204,7.70963e-204,8.56744e-01,9.99999e-01
1.665534579e+00,2.77116e-205,3.22465e-205,8.59364e-01,9.99999e-01
1.673862252e+00,3.64699e-130,4.23113e-130,8.61941e-01,9.99999e-01
1.682231563e+00,1.64996e-89,1.90863e-89,8.64474e-01,9.99999e-01
1.690642721e+00,7.83243e-49,9.03430e-49,8.66964e-01,9.99999e-01
1.699095934e+00,9.77643e-31,1.12449e-30,8.69413e-01,9.99999e-01
1.707591414e+00,4.94922e-15,5.67688e-15,8.71819e-01,9.99999e-01
1.716129371e+00,3.35515e-09,3.83803e-09,8.74184e-01,9.99999e-01
1.724710018e+00,1.09231e-05,1.24620e-05,8.76509e-01,9.99999e-01
1.733333568e+00,4.03434e-04,4.59076e-04,8.78794e-01,9.99999e-01
1.742000236e+00,1.00520e-02,1.14092e-02,8.81040e-01,9.99999e-01
1.750710237e+00,6.08749e-06,6.89217e-06,8.83247e-01,9.99999e-01
1.759463788e+00,3.25985e-124,3.68172e-124,8.85415e-01,9.99999e-01
1.768261107e+00,4.57973e-130,5.15998e-130,8.87546e-01,9.99999e-01
1.777102413e+00,7.35032e-127,8.26212e-127,8.89640e-01,9.99999e-01
1.785987925e+00,1.70134e-118,1.90798e-118,8.91697e-01,9.99999e-01
1.794917864e+00,4.44208e-113,4.97033e-113,8.93719e-01,9.99999e-01
1.803892454e+00,1.39073e-108,1.55266e-108,8.95704e-01,9.99999e-01
1.812911916e+00,2.74354e-104,3.05633e-104,8.97655e-01,9.99999e-01
1.821976476e+00,2.25275e-104,2.50425e-104,8.99572e-01,9.99999e-01
1.831086358e+00,2.12002e-83,2.35177e-83,9.01454e-01,9.99999e-01
1.840241790e+00,7.46128e-71,8.25999e-71,9.03303e-01,9.99999e-01
1.849442999e+00,5.05451e-49,5.58435e-49,9.05120e-01,9.99999e-01
1.858690214e+00,3.06094e-46,3.37515e-46,9.06904e-01,9.99999e-01
1.867983665e+00,9.81882e-47,1.08059e-46,9.08656e-01,9.99999e-01
1.877323583e+00,2.79088e-239,3.06563e-239,9.10377e-01,9.99999e-01
