#,Wave/freq,Total,CO2,Rayleigh,CIA
4.000000000e-01,8.68843e-12,9.99999e-01,8.68843e-12,9.99999e-01
4.020000000e-01,1.43763e-11,9.99999e-01,1.43763e-11,9.99999e-01
4.040100000e-01,2.35402e-11,9.99999e-01,2.35402e-11,9.99999e-01
4.060300500e-01,3.81719e-11,9.99999e-01,3.81719e-11,9.99999e-01
4.080602003e-01,6.13099e-11,9.99999e-01,6.13099e-11,9.99999e-01
4.101005013e-01,9.75556e-11,9.99999e-01,9.75556e-11,9.99999e-01
4.121510038e-01,1.53812e-10,9.99999e-01,1.53812e-10,9.99999e-01
4.142117588e-01,2.40337e-10,9.99999e-01,2.40337e-10,9.99999e-01
4.162828176e-01,3.72240e-10,9.99999e-01,3.72240e-10,9.99999e-01
4.183642317e-01,5.71574e-10,9.99999e-01,5.71574e-10,9.99999e-01
4.204560528e-01,8.70249e-10,9.99999e-01,8.70249e-10,9.99999e-01
4.225583331e-01,1.31404e-09,9.99999e-01,1.31404e-09,9.99999e-01
4.246711247e-01,1.96806e-09,9.99999e-01,1.96806e-09,9.99999e-01
4.267944804e-01,2.92416e-09,9.99999e-01,2.92416e-09,9.99999e-01
4.289284528e-01,4.31091e-09,9.99999e-01,4.31091e-09,9.99999e-01
4.310730950e-01,6.30677e-09,9.99999e-01,6.30677e-09,9.99999e-01
4.332284605e-01,9.15759e-09,9.99999e-01,9.15759e-09,9.99999e-01
4.353946028e-01,1.31995e-08,9.99999e-01,1.31995e-08,9.99999e-01
4.375715758e-01,1.88884e-08,9.99999e-01,1.88884e-08,9.99999e-01
4.397594337e-01,2.68385e-08,9.99999e-01,2.68385e-08,9.99999e-01
4.419582309e-01,3.78713e-08,9.99999e-01,3.78713e-08,9.99999e-01
4.441680220e-01,5.30770e-08,9.99999e-01,5.30770e-08,9.99999e-01
4.463888621e-01,7.38937e-08,9.99999e-01,7.38937e-08,9.99999e-01
4.486208064e-01,1.02205e-07,9.99999e-01,1.02205e-07,9.99999e-01
4.508639105e-01,1.40459e-07,9.99999e-01,1.40459e-07,9.99999e-01
4.531182300e-01,1.91824e-07,9.99999e-01,1.91824e-07,9.99999e-01
4.553838212e-01,2.60365e-07,9.99999e-01,2.60365e-07,9.99999e-01
4.576607403e-01,3.51270e-07,9.99999e-01,3.51270e-07,9.99999e-01
4.599490440e-01,4.71119e-07,9.99999e-01,4.71119e-07,9.99999e-01
4.622487892e-01,6.28206e-07,9.99999e-01,6.28206e-07,9.99999e-01
4.645600332e-01,8.32923e-07,9.99999e-01,8.32923e-07,9.99999e-01
4.668828333e-01,1.09822e-06,9.99999e-01,1.09822e-06,9.99999e-01
4.692172475e-01,1.44012e-06,9.99999e-01,1.44012e-06,9.99999e-01
4.715633337e-01,1.87839e-06,9.99999e-01,1.87839e-06,9.99999e-01
4.739211504e-01,2.43721e-06,9.99999e-01,2.43721e-06,9.99999e-01
4.762907561e-01,3.14605e-06,9.99999e-01,3.14605e-06,9.99999e-01
4.786722099e-01,4.04062e-06,9.99999e-01,4.04062e-06,9.99999e-01
4.810655710e-01,5.16397e-06,9.99999e-01,5.16397e-06,9.99999e-01
4.834708988e-01,6.56773e-06,9.99999e-01,6.56773e-06,9.99999e-01
4.858882533e-01,8.31351e-06,9.99999e-01,8.31351e-06,9.99999e-01
4.883176946e-01,1.04744e-05,9.99999e-01,1.04744e-05,9.99999e-01
4.907592831e-01,1.31370e-05,9.99999e-01,1.31370e-05,9.99999e-01
4.932130795e-01,1.64028e-05,9.99999e-01,1.64028e-05,9.99999e-01
4.956791449e-01,2.03908e-05,9.99999e-01,2.03908e-05,9.99999e-01
4.981575406e-01,2.52398e-05,9.99999e-01,2.52398e-05,9.99999e-01
5.006483283e-01,3.11104e-05,9.99999e-01,3.11104e-05,9.99999e-01
5.031515699e-01,3.81884e-05,9.99999e-01,3.81884e-05,9.99999e-01
5.056673278e-01,4.66874e-05,9.99999e-01,4.66874e-05,9.99999e-01
5.081956644e-01,5.68517e-05,9.99999e-01,5.68517e-05,9.99999e-01
5.107366428e-01,6.89601e-05,9.99999e-01,6.89601e-05,9.99999e-01
5.132903260e-01,8.33289e-05,9.99999e-01,8.33289e-05,9.99999e-01
5.158567776e-01,1.00316e-04,9.99999e-01,1.00316e-04,9.99999e-01
5.184360615e-01,1.20324e-04,9.99999e-01,1.20324e-04,9.99999e-01
5.210282418e-01,1.43806e-04,9.99999e-01,1.43806e-04,9.99999e-01
5.236333830e-01,1.71265e-04,9.99999e-01,1.71265e-04,9.99999e-01
5.262515499e-01,2.03265e-04,9.99999e-01,2.03265e-04,9.99999e-01
5.288828077e-01,2.40430e-04,9.99999e-01,2.40430e-04,9.99999e-01
5.315272217e-01,2.83448e-04,9.99999e-01,2.83448e-04,9.99999e-01
5.341848578e-01,3.33078e-04,9.99999e-01,3.33078e-04,9.99999e-01
5.368557821e-01,3.90152e-04,9.99999e-01,3.90152e-04,9.99999e-01
5.395400610e-01,4.55581e-04,9.99999e-01,4.55581e-04,9.99999e-01
5.422377613e-01,5.30355e-04,9.99999e-01,5.30355e-04,9.99999e-01
5.449489501e-01,6.15552e-04,9.99999e-01,6.15552e-04,9.99999e-01
5.476736949e-01,7.12336e-04,9.99999e-01,7.12336e-04,9.99999e-01
5.504120634e-01,8.21963e-04,9.99999e-01,8.21963e-04,9.99999e-01
5.531641237e-01,9.45783e-04,9.99999e-01,9.45783e-04,9.99999e-01
5.559299443e-01,1.08524e-03,9.99999e-01,1.08524e-03,9.99999e-01
5.587095940e-01,1.24189e-03,9.99999e-01,1.24189e-03,9.99999e-01
5.615031420e-01,1.41737e-03,9.99999e-01,1.41737e-03,9.99999e-01
5.643106577e-01,1.61342e-03,9.99999e-01,1.61342e-03,9.99999e-01
5.671322110e-01,1.83190e-03,9.99999e-01,1.83190e-03,9.99999e-01
5.699678720e-01,2.07475e-03,9.99999e-01,2.07475e-03,9.99999e-01
5.728177114e-01,2.34402e-03,9.99999e-01,2.34402e-03,9.99999e-01
5.756818000e-01,2.64187e-03,9.99999e-01,2.64187e-03,9.99999e-01
5.785602090e-01,2.97054e-03,9.99999e-01,2.97054e-03,9.99999e-01
5.814530100e-01,3.33237e-03,9.99999e-01,3.33237e-03,9.99999e-01
5.843602750e-01,3.72979e-03,9.99999e-01,3.72979e-03,9.99999e-01
5.872820764e-01,4.16534e-03,9.99999e-01,4.16534e-03,9.99999e-01
5.902184868e-01,4.64160e-03,9.99999e-01,4.64160e-03,9.99999e-01
5.931695792e-01,5.16127e-03,9.99999e-01,5.16127e-03,9.99999e-01
5.961354271e-01,5.72711e-03,9.99999e-01,5.72711e-03,9.99999e-01
5.991161043e-01,6.34194e-03,9.99999e-01,6.34194e-03,9.99999e-01
6.021116848e-01,7.00864e-03,9.99999e-01,7.00864e-03,9.99999e-01
6.051222432e-01,7.73014e-03,9.99999e-01,7.73014e-03,9.99999e-01
6.081478544e-01,8.50944e-03,9.99999e-01,8.50944e-03,9.99999e-01
6.111885937e-01,9.34955e-03,9.99999e-01,9.34955e-03,9.99999e-01
6.142445367e-01,1.02535e-02,9.99999e-01,1.02535e-02,9.99999e-01
6.173157594e-01,1.12244e-02,9.99999e-01,1.12244e-02,9.99999e-01
6.204023382e-01,1.22653e-02,9.99999e-01,1.22653e-02,9.99999e-01
6.235043498e-01,1.33792e-02,9.99999e-01,1.33792e-02,9.99999e-01
6.266218716e-01,1.45693e-02,9.99999e-01,1.45693e-02,9.99999e-01
6.297549810e-01,1.58385e-02,9.99999e-01,1.58385e-02,9.99999e-01
6.329037559e-01,1.71900e-02,9.99999e-01,1.71900e-02,9.99999e-01
6.360682746e-01,1.86265e-02,9.99999e-01,1.86265e-02,9.99999e-01
6.392486160e-01,2.01512e-02,9.99999e-01,2.01512e-02,9.99999e-01
6.424448591e-01,2.17669e-02,9.99999e-01,2.17669e-02,9.99999e-01
6.456570834e-01,2.34762e-02,9.99999e-01,2.34762e-02,9.99999e-01
6.488853688e-01,2.52821e-02,9.99999e-01,2.52821e-02,9.99999e-01
6.521297956e-01,2.71870e-02,9.99999e-01,2.71870e-02,9.99999e-01
6.553904446e-01,2.91935e-02,9.99999e-01,2.91935e-02,9.99999e-01
6.586673968e-01,3.13041e-02,9.99999e-01,3.13041e-02,9.99999e-01
6.619607338e-01,3.35209e-02,9.99999e-01,3.35209e-02,9.99999e-01
6.652705375e-01,3.58463e-02,9.99999e-01,3.58463e-02,9.99999e-01
6.685968902e-01,3.82823e-02,9.99999e-01,3.82823e-02,9.99999e-01
6.719398746e-01,4.08308e-02,9.99999e-01,4.08308e-02,9.99999e-01
6.752995740e-01,4.34934e-02,9.99999e-01,4.34934e-02,9.99999e-01
6.786760719e-01,4.62720e-02,9.99999e-01,4.62720e-02,9.99999e-01
6.820694522e-01,4.91679e-02,9.99999e-01,4.91679e-02,9.99999e-01
6.854797995e-01,5.21824e-02,9.99999e-01,5.21824e-02,9.99999e-01
6.889071985e-01,5.53167e-02,9.99999e-01,5.53167e-02,9.99999e-01
6.923517345e-01,5.85717e-02,9.99999e-01,5.85717e-02,9.99999e-01
6.958134932e-01,6.19483e-02,9.99999e-01,6.19483e-02,9.99999e-01
6.992925606e-01,6.54470e-02,9.99999e-01,6.54470e-02,9.99999e-01
7.027890234e-01,6.90683e-02,9.99999e-01,6.90683e-02,9.99999e-01
7.063029686e-01,7.28125e-02,9.99999e-01,7.28125e-02,9.99999e-01
7.098344834e-01,7.66796e-02,9.99999e-01,7.66796e-02,9.99999e-01
7.133836558e-01,8.06697e-02,9.99999e-01,8.06697e-02,9.99999e-01
7.169505741e-01,8.47824e-02,9.99999e-01,8.47824e-02,9.99999e-01
7.205353270e-01,8.90172e-02,9.99999e-01,8.90172e-02,9.99999e-01
7.241380036e-01,9.33737e-02,9.99999e-01,9.33737e-02,9.99999e-01
7.277586936e-01,9.78510e-02,9.99999e-01,9.78510e-02,9.99999e-01
7.313974871e-01,1.02448e-01,9.99999e-01,1.02448e-01,9.99999e-01
7.350544745e-01,1.07164e-01,9.99999e-01,1.07164e-01,9.99999e-01
7.387297469e-01,1.11997e-01,9.99999e-01,1.11997e-01,9.99999e-01
7.424233956e-01,1.16947e-01,9.99999e-01,1.16947e-01,9.99999e-01
7.461355126e-01,1.22011e-01,9.99999e-01,1.22011e-01,9.99999e-01
7.498661902e-01,1.27187e-01,9.99999e-01,1.27187e-01,9.99999e-01
7.536155211e-01,1.32475e-01,9.99999e-01,1.32475e-01,9.99999e-01
7.573835987e-01,1.37871e-01,9.99999e-01,1.37871e-01,9.99999e-01
7.611705167e-01,1.43374e-01,9.99999e-01,1.43374e-01,9.99999e-01
7.649763693e-01,1.48982e-01,9.99999e-01,1.48982e-01,9.99999e-01
7.688012511e-01,1.54691e-01,9.99999e-01,1.54691e-01,9.99999e-01
7.726452574e-01,1.60500e-01,9.99999e-01,1.60500e-01,9.99999e-01
7.765084837e-01,1.66406e-01,9.99999e-01,1.66406e-01,9.99999e-01
7.803910261e-01,1.59815e-01,9.26966e-01,1.72406e-01,9.99999e-01
7.842929812e-01,1.25027e-01,7.00438e-01,1.78498e-01,9.99999e-01
7.882144461e-01,1.26497e-01,6.84957e-01,1.84678e-01,9.99999e-01
7.921555184e-01,1.51817e-01,7.95085e-01,1.90944e-01,9.99999e-01
7.961162960e-01,1.69079e-01,8.57000e-01,1.97292e-01,9.99999e-01
8.000968774e-01,1.87344e-01,9.19615e-01,2.03719e-01,9.99999e-01
8.040973618e-01,2.01296e-01,9.57533e-01,2.10223e-01,9.99999e-01
8.081178486e-01,2.12515e-01,9.80233e-01,2.16800e-01,9.99999e-01
8.121584379e-01,2.22078e-01,9.93876e-01,2.23447e-01,9.99999e-01
8.162192301e-01,2.29848e-01,9.98644e-01,2.30160e-01,9.99999e-01
8.203003262e-01,2.36931e-01,9.99980e-01,2.36936e-01,9.99999e-01
8.244018279e-01,2.43772e-01,9.99999e-01,2.43772e-01,9.99999e-01
8.285238370e-01,2.50664e-01,9.99999e-01,2.50664e-01,9.99999e-01
8.326664562e-01,2.57609e-01,9.99999e-01,2.57609e-01,9.99999e-01
8.368297885e-01,2.64604e-01,9.99999e-01,2.64604e-01,9.99999e-01
8.410139374e-01,2.71645e-01,9.99999e-01,2.71645e-01,9.99999e-01
8.452190071e-01,2.78729e-01,9.99999e-01,2.78729e-01,9.99999e-01
8.494451021e-01,2.85851e-01,9.99999e-01,2.85851e-01,9.99999e-01
8.536923276e-01,2.93010e-01,9.99999e-01,2.93010e-01,9.99999e-01
8.579607893e-01,3.00202e-01,9.99999e-01,3.00202e-01,9.99999e-01
8.622505932e-01,3.07423e-01,9.99999e-01,3.07423e-01,9.99999e-01
8.665618462e-01,2.76954e-01,8.80143e-01,3.14669e-01,9.99999e-01
8.708946554e-01,1.33023e-01,4.13192e-01,3.21938e-01,9.99999e-01
8.752491287e-01,1.58839e-01,4.82459e-01,3.29227e-01,9.99999e-01
8.796253743e-01,2.23790e-01,6.64988e-01,3.36532e-01,9.99999e-01
8.840235012e-01,2.77504e-01,8.07051e-01,3.43850e-01,9.99999e-01
8.884436187e-01,3.22636e-01,9.18726e-01,3.51177e-01,9.99999e-01
8.928858368e-01,3.46383e-01,9.66167e-01,3.58512e-01,9.99999e-01
8.973502660e-01,3.62812e-01,9.91694e-01,3.65850e-01,9.99999e-01
9.018370173e-01,3.72847e-01,9.99082e-01,3.73189e-01,9.99999e-01
9.063462024e-01,3.71658e-01,9.76695e-01,3.80526e-01,9.99999e-01
9.108779334e-01,3.67370e-01,9.47176e-01,3.87858e-01,9.99999e-01
9.154323231e-01,3.90197e-01,9.87385e-01,3.95182e-01,9.99999e-01
9.200094847e-01,3.39644e-01,8.43843e-01,4.02496e-01,9.99999e-01
9.246095321e-01,3.14521e-01,7.67504e-01,4.09797e-01,9.99999e-01
9.292325798e-01,3.39606e-01,8.14242e-01,4.17082e-01,9.99999e-01
9.338787427e-01,3.47557e-01,8.19035e-01,4.24349e-01,9.99999e-01
9.385481364e-01,3.72380e-01,8.62800e-01,4.31595e-01,9.99999e-01
9.432408771e-01,4.00812e-01,9.13389e-01,4.38818e-01,9.99999e-01
9.479570815e-01,4.25731e-01,9.54518e-01,4.46016e-01,9.99999e-01
9.526968669e-01,4.43143e-01,9.77839e-01,4.53186e-01,9.99999e-01
9.574603512e-01,4.55936e-01,9.90461e-01,4.60326e-01,9.99999e-01
9.622476530e-01,4.66040e-01,9.97016e-01,4.67435e-01,9.99999e-01
9.670588912e-01,4.74085e-01,9.99105e-01,4.74510e-01,9.99999e-01
9.718941857e-01,4.81518e-01,9.99936e-01,4.81548e-01,9.99999e-01
9.767536566e-01,4.88549e-01,9.99999e-01,4.88549e-01,9.99999e-01
9.816374249e-01,4.95511e-01,9.99999e-01,4.95511e-01,9.99999e-01
9.865456120e-01,5.02431e-01,9.99999e-01,5.02431e-01,9.99999e-01
9.914783401e-01,5.09309e-01,9.99999e-01,5.09309e-01,9.99999e-01
9.964357318e-01,5.16142e-01,9.99999e-01,5.16142e-01,9.99999e-01
1.001417910e+00,5.22929e-01,9.99999e-01,5.22929e-01,9.99999e-01
1.006425000e+00,5.29668e-01,9.99999e-01,5.29668e-01,9.99999e-01
1.011457125e+00,5.36359e-01,9.99999e-01,5.36359e-01,9.99999e-01
1.016514411e+00,5.43000e-01,9.99999e-01,5.43000e-01,9.99999e-01
1.021596983e+00,5.49516e-01,9.99867e-01,5.49589e-01,9.99999e-01
1.026704968e+00,5.50985e-01,9.90755e-01,5.56125e-01,9.99999e-01
1.031838492e+00,5.16141e-01,9.17405e-01,5.62608e-01,9.99999e-01
1.036997685e+00,3.71613e-02,6.53055e-02,5.69037e-01,9.99999e-01
1.042182673e+00,5.43212e-03,9.44044e-03,5.75409e-01,9.99999e-01
1.047393587e+00,1.17630e-02,2.02208e-02,5.81725e-01,9.99999e-01
1.052630555e+00,6.78628e-06,1.15416e-05,5.87984e-01,9.99999e-01
1.057893707e+00,2.51169e-05,4.22712e-05,5.94184e-01,9.99999e-01
1.063183176e+00,3.33379e-04,5.55330e-04,6.00325e-01,9.99999e-01
1.068499092e+00,2.37804e-03,3.92152e-03,6.06407e-01,9.99999e-01
1.073841587e+00,1.76669e-02,2.88474e-02,6.12428e-01,9.99999e-01
1.079210795e+00,6.61744e-02,1.07011e-01,6.18388e-01,9.99999e-01
1.084606849e+00,1.77542e-01,2.84391e-01,6.24287e-01,9.99999e-01
1.090029883e+00,3.26521e-01,5.18185e-01,6.30124e-01,9.99999e-01
1.095480033e+00,4.59594e-01,7.22747e-01,6.35898e-01,9.99999e-01
1.100957433e+00,5.48364e-01,8.54667e-01,6.41610e-01,9.99999e-01
1.106462220e+00,6.06536e-01,9.37083e-01,6.47259e-01,9.99999e-01
1.111994531e+00,6.37295e-01,9.76180e-01,6.52844e-01,9.99999e-01
1.117554504e+00,6.54511e-01,9.94144e-01,6.58366e-01,9.99999e-01
1.123142276e+00,6.63570e-01,9.99615e-01,6.63825e-01,9.99999e-01
1.128757988e+00,6.69219e-01,9.99999e-01,6.69219e-01,9.99999e-01
1.134401778e+00,6.74549e-01,9.99999e-01,6.74549e-01,9.99999e-01
1.140073787e+00,6.79816e-01,9.99999e-01,6.79816e-01,9.99999e-01
1.145774156e+00,6.85018e-01,9.99999e-01,6.85018e-01,9.99999e-01
1.151503026e+00,6.90156e-01,9.99999e-01,6.90156e-01,9.99999e-01
1.157260541e+00,6.95230e-01,9.99999e-01,6.95230e-01,9.99999e-01
1.163046844e+00,7.00240e-01,9.99999e-01,7.00240e-01,9.99999e-01
1.168862078e+00,7.05186e-01,9.99999e-01,7.05186e-01,9.99999e-01
1.174706389e+00,7.10068e-01,9.99999e-01,7.10068e-01,9.99999e-01
1.180579921e+00,7.14886e-01,9.99999e-01,7.14886e-01,9.99999e-01
1.186482820e+00,7.19628e-01,9.99981e-01,7.19641e-01,9.99999e-01
1.192415234e+00,7.01215e-01,9.68082e-01,7.24333e-01,9.99999e-01
1.198377311e+00,3.86036e-01,5.29569e-01,7.28962e-01,9.99999e-01
1.204369197e+00,2.46634e-24,3.36230e-24,7.33528e-01,9.99999e-01
1.210391043e+00,3.92936e-97,5.32409e-97,7.38032e-01,9.99999e-01
1.216442998e+00,4.08716e-84,5.50478e-84,7.42474e-01,9.99999e-01
1.222525213e+00,7.36937e-83,9.86721e-83,7.46854e-01,9.99999e-01
1.228637839e+00,5.34409e-64,7.11433e-64,7.51172e-01,9.99999e-01
1.234781029e+00,5.28290e-40,6.99323e-40,7.55429e-01,9.99999e-01
1.240954934e+00,1.25349e-26,1.65014e-26,7.59626e-01,9.99999e-01
1.247159708e+00,4.25932e-13,5.57675e-13,7.63762e-01,9.99999e-01
1.253395507e+00,7.38579e-09,9.61892e-09,7.67839e-01,9.99999e-01
1.259662485e+00,2.12816e-05,2.75720e-05,7.71856e-01,9.99999e-01
1.265960797e+00,2.22723e-03,2.87082e-03,7.75814e-01,9.99999e-01
1.272290601e+00,5.33895e-02,6.84731e-02,7.79714e-01,9.99999e-01
1.278652054e+00,4.69320e-02,5.98961e-02,7.83555e-01,9.99999e-01
1.285045314e+00,1.15583e-04,1.46802e-04,7.87340e-01,9.99999e-01
1.291470541e+00,1.01967e-11,1.28898e-11,7.91067e-01,9.99999e-01
1.297927893e+00,1.38965e-04,1.74856e-04,7.94738e-01,9.99999e-01
1.304417533e+00,5.77247e-03,7.23047e-03,7.98352e-01,9.99999e-01
1.310939621e+00,1.39122e-03,1.73488e-03,8.01911e-01,9.99999e-01
1.317494319e+00,2.72376e-33,3.38180e-33,8.05416e-01,9.99999e-01
1.324081790e+00,5.30333e-22,6.55649e-22,8.08866e-01,9.99999e-01
1.330702199e+00,4.40574e-13,5.42403e-13,8.12262e-01,9.99999e-01
1.337355710e+00,4.22966e-12,5.18591e-12,8.15605e-01,9.99999e-01
1.344042489e+00,1.97286e-12,2.40917e-12,8.18895e-01,9.99999e-01
1.350762701e+00,2.31589e-13,2.81693e-13,8.22133e-01,9.99999e-01
1.357516515e+00,2.31824e-08,2.80890e-08,8.25320e-01,9.99999e-01
1.364304097e+00,4.10609e-06,4.95631e-06,8.28456e-01,9.99999e-01
1.371125618e+00,1.62760e-03,1.95733e-03,8.31541e-01,9.99999e-01
1.377981246e+00,3.96158e-03,4.74681e-03,8.34576e-01,9.99999e-01
1.384871152e+00,3.70325e-02,4.42145e-02,8.37563e-01,9.99999e-01
1.391795508e+00,4.73827e-02,5.63744e-02,8.40500e-01,9.99999e-01
1.398754485e+00,1.39012e-01,1.64825e-01,8.43390e-01,9.99999e-01
1.405748258e+00,2.27027e-01,2.68279e-01,8.46232e-01,9.99999e-01
1.412776999e+00,3.67954e-01,4.33382e-01,8.49028e-01,9.99999e-01
1.419840884e+00,3.36639e-01,3.95219e-01,8.51777e-01,9.99999e-01
1.426940089e+00,1.47506e-02,1.72626e-02,8.54480e-01,9.99999e-01
1.434074789e+00,0.00000e+00,0.00000e+00,8.57139e-01,9.99999e-01
1.441245163e+00,0.00000e+00,0.00000e+00,8.59753e-01,9.99999e-01
1.448451389e+00,0.00000e+00,0.00000e+00,8.62323e-01,9.99999e-01
1.455693646e+00,0.00000e+00,0.00000e+00,8.64849e-01,9.99999e-01
1.462972114e+00,0.00000e+00,0.00000e+00,8.67333e-01,9.99999e-01
1.470286975e+00,1.02640e-160,1.18007e-160,8.69775e-01,9.99999e-01
1.477638409e+00,5.65309e-101,6.48159e-101,8.72175e-01,9.99999e-01
1.485026601e+00,3.41784e-56,3.90818e-56,8.74535e-01,9.99999e-01
1.492451734e+00,7.24270e-48,8.25987e-48,8.76854e-01,9.99999e-01
1.499913993e+00,9.65463e-21,1.09820e-20,8.79133e-01,9.99999e-01
1.507413563e+00,1.67782e-19,1.90365e-19,8.81372e-01,9.99999e-01
1.514950631e+00,5.34260e-21,6.04657e-21,8.83574e-01,9.99999e-01
1.522525384e+00,9.47825e-72,1.07010e-71,8.85737e-01,9.99999e-01
1.530138011e+00,1.61397e-171,1.81781e-171,8.87862e-01,9.99999e-01
1.537788701e+00,7.60746e-127,8.54818e-127,8.89950e-01,9.99999e-01
1.545477645e+00,1.08297e-26,1.21408e-26,8.92002e-01,9.99999e-01
1.553205033e+00,1.84772e-19,2.06676e-19,8.94018e-01,9.99999e-01
1.560971058e+00,9.02522e-20,1.00728e-19,8.95998e-01,9.99999e-01
1.568775913e+00,0.00000e+00,0.00000e+00,8.97944e-01,9.99999e-01
1.576619793e+00,0.00000e+00,0.00000e+00,8.99855e-01,9.99999e-01
1.584502892e+00,0.00000e+00,0.00000e+00,9.01733e-01,9.99999e-01
1.592425406e+00,0.00000e+00,0.00000e+00,9.03577e-01,9.99999e-01
1.600387533e+00,0.00000e+00,0.00000e+00,9.05389e-01,9.99999e-01
1.608389471e+00,0.00000e+00,0.00000e+00,9.07168e-01,9.99999e-01
1.616431418e+00,0.00000e+00,0.00000e+00,9.08915e-01,9.99999e-01
1.624513575e+00,0.00000e+00,0.00000e+00,9.10631e-01,9.99999e-01
1.632636143e+00,0.00000e+00,0.00000e+00,9.12317e-01,9.99999e-01
1.640799324e+00,6.91912e-149,7.57037e-149,9.13972e-01,9.99999e-01
1.649003321e+00,6.92818e-149,7.56683e-149,9.15598e-01,9.99999e-01
1.657248337e+00,5.02034e-115,5.47358e-115,9.17194e-01,9.99999e-01
1.665534579e+00,8.53296e-116,9.28745e-116,9.18761e-01,9.99999e-01
1.673862252e+00,8.73480e-74,9.49125e-74,9.20300e-01,9.99999e-01
1.682231563e+00,4.74608e-51,5.14864e-51,9.21811e-01,9.99999e-01
1.690642721e+00,2.65585e-28,2.87649e-28,9.23294e-01,9.99999e-01
1.699095934e+00,4.58403e-18,4.95704e-18,9.24751e-01,9.99999e-01
1.707591414e+00,2.42258e-09,2.61566e-09,9.26181e-01,9.99999e-01
1.716129371e+00,9.12687e-06,9.83938e-06,9.27585e-01,9.99999e-01
1.724710018e+00,1.21575e-03,1.30872e-03,9.28963e-01,9.99999e-01
1.733333568e+00,1.10820e-02,1.19121e-02,9.30316e-01,9.99999e-01
1.742000236e+00,7.03584e-02,7.55205e-02,9.31645e-01,9.99999e-01
1.750710237e+00,2.97317e-04,3.18685e-04,9.32948e-01,9.99999e-01
1.759463788e+00,1.88165e-70,2.01413e-70,9.34228e-01,9.99999e-01
1.768261107e+00,9.83357e-74,1.05117e-73,9.35485e-01,9.99999e-01
1.777102413e+00,7.89189e-72,8.42503e-72,9.36718e-01,9.99999e-01
1.785987925e+00,2.90077e-67,3.09274e-67,9.37928e-01,9.99999e-01
1.794917864e+00,3.14318e-64,3.34695e-64,9.39116e-01,9.99999e-01
1.803892454e+00,1.01164e-61,1.07588e-61,9.40282e-01,9.99999e-01
1.812911916e+00,2.61944e-59,2.78241e-59,9.41426e-01,9.99999e-01
1.821976476e+00,2.28682e-59,2.42620e-59,9.42549e-01,9.99999e-01
1.831086358e+00,1.22857e-47,1.30193e-47,9.43652e-01,9.99999e-01
1.840241790e+00,1.43672e-40,1.52077e-40,9.44733e-01,9.99999e-01
1.849442999e+00,3.44471e-28,3.64213e-28,9.45795e-01,9.99999e-01
1.858690214e+00,1.60686e-26,1.69708e-26,9.46836e-01,9.99999e-01
1.867983665e+00,4.06235e-27,4.28581e-27,9.47859e-01,9.99999e-01
1.877323583e+00,8.38196e-135,8.83369e-135,9.48862e-01,9.99999e-01
