#,Wave/freq,Total,CO2,Rayleigh,CIA
4.000000000e-01,2.72051e-04,9.99999e-01,2.72051e-04,9.99999e-01
4.020000000e-01,3.19999e-04,9.99999e-01,3.19999e-04,9.99999e-01
4.040100000e-01,3.75129e-04,9.99999e-01,3.75129e-04,9.99999e-01
4.060300500e-01,4.38378e-04,9.99999e-01,4.38378e-04,9.99999e-01
4.080602003e-01,5.10718e-04,9.99999e-01,5.10718e-04,9.99999e-01
4.101005013e-01,5.93202e-04,9.99999e-01,5.93202e-04,9.99999e-01
4.121510038e-01,6.86973e-04,9.99999e-01,6.86973e-04,9.99999e-01
4.142117588e-01,7.93265e-04,9.99999e-01,7.93265e-04,9.99999e-01
4.162828176e-01,9.13403e-04,9.99999e-01,9.13403e-04,9.99999e-01
4.183642317e-01,1.04881e-03,9.99999e-01,1.04881e-03,9.99999e-01
4.204560528e-01,1.20101e-03,9.99999e-01,1.20101e-03,9.99999e-01
4.225583331e-01,1.37161e-03,9.99999e-01,1.37161e-03,9.99999e-01
4.246711247e-01,1.56235e-03,9.99999e-01,1.56235e-03,9.99999e-01
4.267944804e-01,1.77504e-03,9.99999e-01,1.77504e-03,9.99999e-01
4.289284528e-01,2.01161e-03,9.99999e-01,2.01161e-03,9.99999e-01
4.310730950e-01,2.27407e-03,9.99999e-01,2.27407e-03,9.99999e-01
4.332284605e-01,2.56457e-03,9.99999e-01,2.56457e-03,9.99999e-01
4.353946028e-01,2.88531e-03,9.99999e-01,2.88531e-03,9.99999e-01
4.375715758e-01,3.23862e-03,9.99999e-01,3.23862e-03,9.99999e-01
4.397594337e-01,3.62691e-03,9.99999e-01,3.62691e-03,9.99999e-01
4.419582309e-01,4.05268e-03,9.99999e-01,4.05268e-03,9.99999e-01
4.441680220e-01,4.51851e-03,9.99999e-01,4.51851e-03,9.99999e-01
4.463888621e-01,5.02707e-03,9.99999e-01,5.02707e-03,9.99999e-01
4.486208064e-01,5.58109e-03,9.99999e-01,5.58109e-03,9.99999e-01
4.508639105e-01,6.18340e-03,9.99999e-01,6.18340e-03,9.99999e-01
4.531182300e-01,6.83685e-03,9.99999e-01,6.83685e-03,9.99999e-01
4.553838212e-01,7.54437e-03,9.99999e-01,7.54437e-03,9.99999e-01
4.576607403e-01,8.30893e-03,9.99999e-01,8.30893e-03,9.99999e-01
4.599490440e-01,9.13354e-03,9.99999e-01,9.13354e-03,9.99999e-01
4.622487892e-01,1.00212e-02,9.99999e-01,1.00212e-02,9.99999e-01
4.645600332e-01,1.09751e-02,9.99999e-01,1.09751e-02,9.99999e-01
4.668828333e-01,1.19982e-02,9.99999e-01,1.19982e-02,9.99999e-01
4.692172475e-01,1.30936e-02,9.99999e-01,1.30936e-02,9.99999e-01
4.715633337e-01,1.42643e-02,9.99999e-01,1.42643e-02,9.99999e-01
4.739211504e-01,1.55134e-02,9.99999e-01,1.55134e-02,9.99999e-01
4.762907561e-01,1.68440e-02,9.99999e-01,1.68440e-02,9.99999e-01
4.786722099e-01,1.82591e-02,9.99999e-01,1.82591e-02,9.99999e-01
4.810655710e-01,1.97614e-02,9.99999e-01,1.97614e-02,9.99999e-01
4.834708988e-01,2.13541e-02,9.99999e-01,2.13541e-02,9.99999e-01
4.858882533e-01,2.30397e-02,9.99999e-01,2.30397e-02,9.99999e-01
4.883176946e-01,2.48212e-02,9.99999e-01,2.48212e-02,9.99999e-01
4.907592831e-01,2.67011e-02,9.99999e-01,2.67011e-02,9.99999e-01
4.932130795e-01,2.86819e-02,9.99999e-01,2.86819e-02,9.99999e-01
4.956791449e-01,3.07662e-02,9.99999e-01,3.07662e-02,9.99999e-01
4.981575406e-01,3.29563e-02,9.99999e-01,3.29563e-02,9.99999e-01
5.006483283e-01,3.52544e-02,9.99999e-01,3.52544e-02,9.99999e-01
5.031515699e-01,3.76625e-02,9.99999e-01,3.76625e-02,9.99999e-01
5.056673278e-01,4.01827e-02,9.99999e-01,4.01827e-02,9.99999e-01
5.081956644e-01,4.28166e-02,9.99999e-01,4.28166e-02,9.99999e-01
5.107366428e-01,4.55660e-02,9.99999e-01,4.55660e-02,9.99999e-01
5.132903260e-01,4.84325e-02,9.99999e-01,4.84325e-02,9.99999e-01
5.158567776e-01,5.14172e-02,9.99999e-01,5.14172e-02,9.99999e-01
5.184360615e-01,5.45214e-02,9.99999e-01,5.45214e-02,9.99999e-01
5.210282418e-01,5.77461e-02,9.99999e-01,5.77461e-02,9.99999e-01
5.236333830e-01,6.10922e-02,9.99999e-01,6.10922e-02,9.99999e-01
5.262515499e-01,6.45603e-02,9.99999e-01,6.45603e-02,9.99999e-01
5.288828077e-01,6.81509e-02,9.99999e-01,6.81509e-02,9.99999e-01
5.315272217e-01,7.18644e-02,9.99999e-01,7.18644e-02,9.99999e-01
5.341848578e-01,7.57008e-02,9.99999e-01,7.57008e-02,9.99999e-01
5.368557821e-01,7.96601e-02,9.99999e-01,7.96601e-02,9.99999e-01
5.395400610e-01,8.37422e-02,9.99999e-01,8.37422e-02,9.99999e-01
5.422377613e-01,8.79465e-02,9.99999e-01,8.79465e-02,9.99999e-01
5.449489501e-01,9.22726e-02,9.99999e-01,9.22726e-02,9.99999e-01
5.476736949e-01,9.67198e-02,9.99999e-01,9.67198e-02,9.99999e-01
5.504120634e-01,1.01287e-01,9.99999e-01,1.01287e-01,9.99999e-01
5.531641237e-01,1.05973e-01,9.99999e-01,1.05973e-01,9.99999e-01
5.559299443e-01,1.10777e-01,9.99999e-01,1.10777e-01,9.99999e-01
5.587095940e-01,1.15698e-01,9.99999e-01,1.15698e-01,9.99999e-01
5.615031420e-01,1.20733e-01,9.99999e-01,1.20733e-01,9.99999e-01
5.643106577e-01,1.25882e-01,9.99999e-01,1.25882e-01,9.99999e-01
5.671322110e-01,1.31142e-01,9.99999e-01,1.31142e-01,9.99999e-01
5.699678720e-01,1.36511e-01,9.99999e-01,1.36511e-01,9.99999e-01
5.728177114e-01,1.41988e-01,9.99999e-01,1.41988e-01,9.99999e-01
5.756818000e-01,1.47569e-01,9.99999e-01,1.47569e-01,9.99999e-01
5.785602090e-01,1.53254e-01,9.99999e-01,1.53254e-01,9.99999e-01
5.814530100e-01,1.59038e-01,9.99999e-01,1.59038e-01,9.99999e-01
5.843602750e-01,1.64920e-01,9.99999e-01,1.64920e-01,9.99999e-01
5.872820764e-01,1.70897e-01,9.99999e-01,1.70897e-01,9.99999e-01
5.902184868e-01,1.76966e-01,9.99999e-01,1.76966e-01,9.99999e-01
5.931695792e-01,1.83124e-01,9.99999e-01,1.83124e-01,9.99999e-01
5.961354271e-01,1.89369e-01,9.99999e-01,1.89369e-01,9.99999e-01
5.991161043e-01,1.95696e-01,9.99999e-01,1.95696e-01,9.99999e-01
6.021116848e-01,2.02104e-01,9.99999e-01,2.02104e-01,9.99999e-01
6.051222432e-01,2.08589e-01,9.99999e-01,2.08589e-01,9.99999e-01
6.081478544e-01,2.15148e-01,9.99999e-01,2.15148e-01,9.99999e-01
6.111885937e-01,2.21778e-01,9.99999e-01,2.21778e-01,9.99999e-01
6.142445367e-01,2.28475e-01,9.99999e-01,2.28475e-01,9.99999e-01
6.173157594e-01,2.35235e-01,9.99999e-01,2.35235e-01,9.99999e-01
6.204023382e-01,2.42056e-01,9.99999e-01,2.42056e-01,9.99999e-01
6.235043498e-01,2.48935e-01,9.99999e-01,2.48935e-01,9.99999e-01
6.266218716e-01,2.55867e-01,9.99999e-01,2.55867e-01,9.99999e-01
6.297549810e-01,2.62850e-01,9.99999e-01,2.62850e-01,9.99999e-01
6.329037559e-01,2.69880e-01,9.99999e-01,2.69880e-01,9.99999e-01
6.360682746e-01,2.76953e-01,9.99999e-01,2.76953e-01,9.99999e-01
6.392486160e-01,2.84066e-01,9.99999e-01,2.84066e-01,9.99999e-01
6.424448591e-01,2.91216e-01,9.99999e-01,2.91216e-01,9.99999e-01
6.456570834e-01,2.98400e-01,9.99999e-01,2.98400e-01,9.99999e-01
6.488853688e-01,3.05614e-01,9.99999e-01,3.05614e-01,9.99999e-01
6.521297956e-01,3.12854e-01,9.99999e-01,3.12854e-01,9.99999e-01
6.553904446e-01,3.20118e-01,9.99999e-01,3.20118e-01,9.99999e-01
6.586673968e-01,3.27402e-01,9.99999e-01,3.27402e-01,9.99999e-01
6.619607338e-01,3.34703e-01,9.99999e-01,3.34703e-01,9.99999e-01
6.652705375e-01,3.42018e-01,9.99999e-01,3.42018e-01,9.99999e-01
6.685968902e-01,3.49344e-01,9.99999e-01,3.49344e-01,9.99999e-01
6.719398746e-01,3.56677e-01,9.99999e-01,3.56677e-01,9.99999e-01
6.752995740e-01,3.64014e-01,9.99999e-01,3.64014e-01,9.99999e-01
6.786760719e-01,3.71353e-01,9.99999e-01,3.71353e-01,9.99999e-01
6.820694522e-01,3.78691e-01,9.99999e-01,3.78691e-01,9.99999e-01
6.854797995e-01,3.86025e-01,9.99999e-01,3.86025e-01,9.99999e-01
6.889071985e-01,3.93351e-01,9.99999e-01,3.93351e-01,9.99999e-01
6.923517345e-01,4.00668e-01,9.99999e-01,4.00668e-01,9.99999e-01
6.958134932e-01,4.07972e-01,9.99999e-01,4.07972e-01,9.99999e-01
6.992925606e-01,4.15261e-01,9.99999e-01,4.15261e-01,9.99999e-01
7.027890234e-01,4.22533e-01,9.99999e-01,4.22533e-01,9.99999e-01
7.063029686e-01,4.29784e-01,9.99999e-01,4.29784e-01,9.99999e-01
7.098344834e-01,4.37014e-01,9.99999e-01,4.37014e-01,9.99999e-01
7.133836558e-01,4.44218e-01,9.99999e-01,4.44218e-01,9.99999e-01
7.169505741e-01,4.51395e-01,9.99999e-01,4.51395e-01,9.99999e-01
7.205353270e-01,4.58543e-01,9.99999e-01,4.58543e-01,9.99999e-01
7.241380036e-01,4.65660e-01,9.99999e-01,4.65660e-01,9.99999e-01
7.277586936e-01,4.72743e-01,9.99999e-01,4.72743e-01,9.99999e-01
7.313974871e-01,4.79791e-01,9.99999e-01,4.79791e-01,9.99999e-01
7.350544745e-01,4.86802e-01,9.99999e-01,4.86802e-01,9.99999e-01
7.387297469e-01,4.93774e-01,9.99999e-01,4.93774e-01,9.99999e-01
7.424233956e-01,5.00704e-01,9.99999e-01,5.00704e-01,9.99999e-01
7.461355126e-01,5.07593e-01,9.99999e-01,5.07593e-01,9.99999e-01
7.498661902e-01,5.14437e-01,9.99999e-01,5.14437e-01,9.99999e-01
7.536155211e-01,5.21236e-01,9.99999e-01,5.21236e-01,9.99999e-01
7.573835987e-01,5.27987e-01,9.99999e-01,5.27987e-01,9.99999e-01
7.611705167e-01,5.34690e-01,9.99999e-01,5.34690e-01,9.99999e-01
7.649763693e-01,5.41343e-01,9.99999e-01,5.41343e-01,9.99999e-01
7.688012511e-01,5.47946e-01,9.99999e-01,5.47946e-01,9.99999e-01
7.726452574e-01,5.54495e-01,9.99999e-01,5.54495e-01,9.99999e-01
7.765084837e-01,5.60992e-01,9.99999e-01,5.60992e-01,9.99999e-01
7.803910261e-01,5.52640e-01,9.73928e-01,5.67434e-01,9.99999e-01
7.842929812e-01,5.08295e-01,8.85808e-01,5.73821e-01,9.99999e-01
7.882144461e-01,5.09895e-01,8.78900e-01,5.80151e-01,9.99999e-01
7.921555184e-01,5.44183e-01,9.27968e-01,5.86424e-01,9.99999e-01
7.961162960e-01,5.63507e-01,9.50843e-01,5.92639e-01,9.99999e-01
8.000968774e-01,5.82690e-01,9.73104e-01,5.98795e-01,9.99999e-01
8.040973618e-01,5.96372e-01,9.85916e-01,6.04891e-01,9.99999e-01
8.081178486e-01,6.06983e-01,9.93542e-01,6.10927e-01,9.99999e-01
8.121584379e-01,6.15659e-01,9.97982e-01,6.16903e-01,9.99999e-01
8.162192301e-01,6.22540e-01,9.99553e-01,6.22817e-01,9.99999e-01
8.203003262e-01,6.28665e-01,9.99992e-01,6.28670e-01,9.99999e-01
8.244018279e-01,6.34460e-01,9.99999e-01,6.34460e-01,9.99999e-01
8.285238370e-01,6.40187e-01,9.99999e-01,6.40187e-01,9.99999e-01
8.326664562e-01,6.45852e-01,9.99999e-01,6.45852e-01,9.99999e-01
8.368297885e-01,6.51453e-01,9.99999e-01,6.51453e-01,9.99999e-01
8.410139374e-01,6.56991e-01,9.99999e-01,6.56991e-01,9.99999e-01
8.452190071e-01,6.62465e-01,9.99999e-01,6.62465e-01,9.99999e-01
8.494451021e-01,6.67876e-01,9.99999e-01,6.67876e-01,9.99999e-01
8.536923276e-01,6.73222e-01,9.99999e-01,6.73222e-01,9.99999e-01
8.579607893e-01,6.78504e-01,9.99999e-01,6.78504e-01,9.99999e-01
8.622505932e-01,6.83723e-01,9.99999e-01,6.83723e-01,9.99999e-01
8.665618462e-01,6.46136e-01,9.37956e-01,6.88877e-01,9.99999e-01
8.708946554e-01,5.10019e-01,7.34933e-01,6.93967e-01,9.99999e-01
8.752491287e-01,5.45462e-01,7.80355e-01,6.98992e-01,9.99999e-01
8.796253743e-01,6.14528e-01,8.72965e-01,7.03954e-01,9.99999e-01
8.840235012e-01,6.60765e-01,9.32161e-01,7.08852e-01,9.99999e-01
8.884436187e-01,6.94120e-01,9.72583e-01,7.13687e-01,9.99999e-01
8.928858368e-01,7.10444e-01,9.88845e-01,7.18458e-01,9.99999e-01
8.973502660e-01,7.21185e-01,9.97260e-01,7.23166e-01,9.99999e-01
9.018370173e-01,7.27590e-01,9.99696e-01,7.27810e-01,9.99999e-01
9.063462024e-01,7.26918e-01,9.92524e-01,7.32392e-01,9.99999e-01
9.108779334e-01,7.24005e-01,9.82486e-01,7.36911e-01,9.99999e-01
9.154323231e-01,7.38269e-01,9.95818e-01,7.41368e-01,9.99999e-01
9.200094847e-01,7.02300e-01,9.41719e-01,7.45764e-01,9.99999e-01
9.246095321e-01,6.87976e-01,9.17181e-01,7.50097e-01,9.99999e-01
9.292325798e-01,7.05416e-01,9.35105e-01,7.54370e-01,9.99999e-01
9.338787427e-01,7.10488e-01,9.36599e-01,7.58582e-01,9.99999e-01
9.385481364e-01,7.26938e-01,9.53068e-01,7.62733e-01,9.99999e-01
9.432408771e-01,7.44516e-01,9.70906e-01,7.66825e-01,9.99999e-01
9.479570815e-01,7.59311e-01,9.85022e-01,7.70857e-01,9.99999e-01
9.526968669e-01,7.69201e-01,9.92735e-01,7.74830e-01,9.99999e-01
9.574603512e-01,7.76319e-01,9.96886e-01,7.78744e-01,9.99999e-01
9.622476530e-01,7.81839e-01,9.99026e-01,7.82600e-01,9.99999e-01
9.670588912e-01,7.86169e-01,9.99707e-01,7.86398e-01,9.99999e-01
9.718941857e-01,7.90123e-01,9.99978e-01,7.90140e-01,9.99999e-01
9.767536566e-01,7.93825e-01,9.99999e-01,7.93825e-01,9.99999e-01
9.816374249e-01,7.97453e-01,9.99999e-01,7.97453e-01,9.99999e-01
9.865456120e-01,8.01026e-01,9.99999e-01,8.01026e-01,9.99999e-01
9.914783401e-01,8.04544e-01,9.99999e-01,8.04544e-01,9.99999e-01
9.964357318e-01,8.08008e-01,9.99999e-01,8.08008e-01,9.99999e-01
1.001417910e+00,8.11418e-01,9.99999e-01,8.11418e-01,9.99999e-01
1.006425000e+00,8.14774e-01,9.99999e-01,8.14774e-01,9.99999e-01
1.011457125e+00,8.18077e-01,9.99999e-01,8.18077e-01,9.99999e-01
1.016514411e+00,8.21328e-01,9.99999e-01,8.21328e-01,9.99999e-01
1.021596983e+00,8.24498e-01,9.99964e-01,8.24528e-01,9.99999e-01
1.026704968e+00,8.25271e-01,9.97093e-01,8.27676e-01,9.99999e-01
1.031838492e+00,8.02059e-01,9.65435e-01,8.30774e-01,9.99999e-01
1.036997685e+00,1.58907e-01,1.90577e-01,8.33822e-01,9.99999e-01
1.042182673e+00,1.50209e-01,1.79500e-01,8.36820e-01,9.99999e-01
1.047393587e+00,1.63897e-01,1.95168e-01,8.39770e-01,9.99999e-01
1.052630555e+00,8.66130e-03,1.02784e-02,8.42672e-01,9.99999e-01
1.057893707e+00,1.95068e-02,2.30706e-02,8.45526e-01,9.99999e-01
1.063183176e+00,5.36377e-02,6.32271e-02,8.48333e-01,9.99999e-01
1.068499092e+00,1.28929e-01,1.51487e-01,8.51094e-01,9.99999e-01
1.073841587e+00,2.58323e-01,3.02554e-01,8.53808e-01,9.99999e-01
1.079210795e+00,4.02194e-01,4.69590e-01,8.56478e-01,9.99999e-01
1.084606849e+00,5.67047e-01,6.60044e-01,8.59103e-01,9.99999e-01
1.090029883e+00,6.94855e-01,8.06391e-01,8.61684e-01,9.99999e-01
1.095480033e+00,7.77186e-01,8.99289e-01,8.64221e-01,9.99999e-01
1.100957433e+00,8.23541e-01,9.50185e-01,8.66716e-01,9.99999e-01
1.106462220e+00,8.50976e-01,9.79069e-01,8.69168e-01,9.99999e-01
1.111994531e+00,8.64775e-01,9.92192e-01,8.71579e-01,9.99999e-01
1.117554504e+00,8.72270e-01,9.98078e-01,8.73948e-01,9.99999e-01
1.123142276e+00,8.76166e-01,9.99872e-01,8.76277e-01,9.99999e-01
1.128757988e+00,8.78566e-01,9.99999e-01,8.78566e-01,9.99999e-01
1.134401778e+00,8.80816e-01,9.99999e-01,8.80816e-01,9.99999e-01
1.140073787e+00,8.83027e-01,9.99999e-01,8.83027e-01,9.99999e-01
1.145774156e+00,8.85199e-01,9.99999e-01,8.85199e-01,9.99999e-01
1.151503026e+00,8.87334e-01,9.99999e-01,8.87334e-01,9.99999e-01
1.157260541e+00,8.89431e-01,9.99999e-01,8.89431e-01,9.99999e-01
1.163046844e+00,8.91492e-01,9.99999e-01,8.91492e-01,9.99999e-01
1.168862078e+00,8.93517e-01,9.99999e-01,8.93517e-01,9.99999e-01
1.174706389e+00,8.95506e-01,9.99999e-01,8.95506e-01,9.99999e-01
1.180579921e+00,8.97461e-01,9.99999e-01,8.97461e-01,9.99999e-01
1.186482820e+00,8.99377e-01,9.99995e-01,8.99381e-01,9.99999e-01
1.192415234e+00,8.91984e-01,9.89699e-01,9.01266e-01,9.99999e-01
1.198377311e+00,5.13788e-01,5.68903e-01,9.03119e-01,9.99999e-01
1.204369197e+00,2.28768e-09,2.52800e-09,9.04939e-01,9.99999e-01
1.210391043e+00,7.92114e-33,8.73598e-33,9.06726e-01,9.99999e-01
1.216442998e+00,1.24099e-28,1.36601e-28,9.08481e-01,9.99999e-01
1.222525213e+00,3.16363e-28,3.47573e-28,9.10205e-01,9.99999e-01
1.228637839e+00,7.70899e-22,8.45378e-22,9.11898e-01,9.99999e-01
1.234781029e+00,2.04493e-14,2.23842e-14,9.13561e-01,9.99999e-01
1.240954934e+00,8.63081e-10,9.43057e-10,9.15194e-01,9.99999e-01
1.247159708e+00,1.90144e-06,2.07400e-06,9.16797e-01,9.99999e-01
1.253395507e+00,1.32958e-03,1.44776e-03,9.18372e-01,9.99999e-01
1.259662485e+00,1.62911e-02,1.77093e-02,9.19918e-01,9.99999e-01
1.265960797e+00,1.04362e-01,1.13260e-01,9.21435e-01,9.99999e-01
1.272290601e+00,3.46289e-01,3.75208e-01,9.22926e-01,9.99999e-01
1.278652054e+00,3.25573e-01,3.52203e-01,9.24389e-01,9.99999e-01
1.285045314e+00,1.31256e-02,1.41771e-02,9.25826e-01,9.99999e-01
1.291470541e+00,1.48642e-04,1.60307e-04,9.27236e-01,9.99999e-01
1.297927893e+00,1.00260e-02,1.07966e-02,9.28621e-01,9.99999e-01
1.304417533e+00,1.78670e-01,1.92122e-01,9.29980e-01,9.99999e-01
1.310939621e+00,4.69377e-02,5.03993e-02,9.31315e-01,9.99999e-01
1.317494319e+00,9.23309e-12,9.90010e-12,9.32625e-01,9.99999e-01
1.324081790e+00,2.57154e-08,2.75352e-08,9.33910e-01,9.99999e-01
1.330702199e+00,6.56357e-05,7.01855e-05,9.35173e-01,9.99999e-01
1.337355710e+00,6.44850e-05,6.88639e-05,9.36411e-01,9.99999e-01
1.344042489e+00,1.97616e-05,2.10761e-05,9.37627e-01,9.99999e-01
1.350762701e+00,4.28568e-05,4.56495e-05,9.38821e-01,9.99999e-01
1.357516515e+00,1.43614e-03,1.52782e-03,9.39992e-01,9.99999e-01
1.364304097e+00,1.48653e-02,1.57949e-02,9.41142e-01,9.99999e-01
1.371125618e+00,1.06696e-01,1.13233e-01,9.42270e-01,9.99999e-01
1.377981246e+00,1.61566e-01,1.71263e-01,9.43378e-01,9.99999e-01
1.384871152e+00,3.37922e-01,3.57791e-01,9.44465e-01,9.99999e-01
1.391795508e+00,3.65669e-01,3.86733e-01,9.45531e-01,9.99999e-01
1.398754485e+00,5.27252e-01,5.57008e-01,9.46578e-01,9.99999e-01
1.405748258e+00,6.15337e-01,6.49360e-01,9.47605e-01,9.99999e-01
1.412776999e+00,7.22196e-01,7.61317e-01,9.48613e-01,9.99999e-01
1.419840884e+00,6.60084e-01,6.95116e-01,9.49602e-01,9.99999e-01
1.426940089e+00,7.11662e-02,7.48667e-02,9.50572e-01,9.99999e-01
1.434074789e+00,0.00000e+00,0.00000e+00,9.51524e-01,9.99999e-01
1.441245163e+00,0.00000e+00,0.00000e+00,9.52459e-01,9.99999e-01
1.448451389e+00,0.00000e+00,0.00000e+00,9.53375e-01,9.99999e-01
1.455693646e+00,2.61022e-260,2.73529e-260,9.54275e-01,9.99999e-01
1.462972114e+00,2.28405e-126,2.39127e-126,9.55158e-01,9.99999e-01
1.470286975e+00,2.54150e-53,2.65840e-53,9.56024e-01,9.99999e-01
1.477638409e+00,4.58561e-34,4.79228e-34,9.56873e-01,9.99999e-01
1.485026601e+00,1.41650e-19,1.47906e-19,9.57707e-01,9.99999e-01
1.492451734e+00,1.13425e-16,1.18333e-16,9.58524e-01,9.99999e-01
1.499913993e+00,4.33129e-08,4.51492e-08,9.59327e-01,9.99999e-01
1.507413563e+00,6.78465e-07,7.06649e-07,9.60114e-01,9.99999e-01
1.514950631e+00,2.74728e-08,2.85911e-08,9.60886e-01,9.99999e-01
1.522525384e+00,1.19861e-24,1.24642e-24,9.61644e-01,9.99999e-01
1.530138011e+00,9.26051e-57,9.62243e-57,9.62387e-01,9.99999e-01
1.537788701e+00,2.25756e-42,2.34402e-42,9.63116e-01,9.99999e-01
1.545477645e+00,3.98063e-10,4.13001e-10,9.63831e-01,9.99999e-01
1.553205033e+00,5.29775e-07,5.49255e-07,9.64533e-01,9.99999e-01
1.560971058e+00,1.55049e-07,1.60636e-07,9.65221e-01,9.99999e-01
1.568775913e+00,1.09728e-141,1.13602e-141,9.65896e-01,9.99999e-01
1.576619793e+00,0.00000e+00,0.00000e+00,9.66558e-01,9.99999e-01
1.584502892e+00,6.66613e-181,6.89213e-181,9.67208e-01,9.99999e-01
1.592425406e+00,2.28963e-126,2.36570e-126,9.67845e-01,9.99999e-01
1.600387533e+00,4.70228e-203,4.85537e-203,9.68470e-01,9.99999e-01
1.608389471e+00,0.00000e+00,0.00000e+00,9.69083e-01,9.99999e-01
1.616431418e+00,0.00000e+00,0.00000e+00,9.69684e-01,9.99999e-01
1.624513575e+00,2.81932e-160,2.90569e-160,9.70274e-01,9.99999e-01
1.632636143e+00,2.49346e-119,2.56832e-119,9.70853e-01,9.99999e-01
1.640799324e+00,1.65275e-49,1.70137e-49,9.71420e-01,9.99999e-01
1.649003321e+00,1.72717e-49,1.77696e-49,9.71977e-01,9.99999e-01
1.657248337e+00,1.51580e-38,1.55862e-38,9.72522e-01,9.99999e-01
1.665534579e+00,8.61325e-39,8.85173e-39,9.73058e-01,9.99999e-01
1.673862252e+00,3.10176e-25,3.18592e-25,9.73583e-01,9.99999e-01
1.682231563e+00,7.01761e-18,7.20420e-18,9.74098e-01,9.99999e-01
1.690642721e+00,1.34106e-10,1.37600e-10,9.74603e-01,9.99999e-01
1.699095934e+00,6.55573e-07,6.72315e-07,9.75098e-01,9.99999e-01
1.707591414e+00,4.80598e-04,4.92625e-04,9.75584e-01,9.99999e-01
1.716129371e+00,1.44561e-02,1.48107e-02,9.76060e-01,9.99999e-01
1.724710018e+00,9.89377e-02,1.01316e-01,9.76528e-01,9.99999e-01
1.733333568e+00,2.23997e-01,2.29273e-01,9.76986e-01,9.99999e-01
1.742000236e+00,4.01322e-01,4.10587e-01,9.77435e-01,9.99999e-01
1.750710237e+00,1.56997e-02,1.60549e-02,9.77876e-01,9.99999e-01
1.759463788e+00,4.94629e-24,5.05596e-24,9.78308e-01,9.99999e-01
1.768261107e+00,2.74815e-25,2.80787e-25,9.78732e-01,9.99999e-01
1.777102413e+00,3.53771e-24,3.61305e-24,9.79148e-01,9.99999e-01
1.785987925e+00,3.99480e-23,4.07818e-23,9.79555e-01,9.99999e-01
1.794917864e+00,5.79779e-22,5.91638e-22,9.79955e-01,9.99999e-01
1.803892454e+00,2.05723e-21,2.09847e-21,9.80347e-01,9.99999e-01
1.812911916e+00,1.93789e-20,1.97596e-20,9.80732e-01,9.99999e-01
1.821976476e+00,1.25617e-20,1.28036e-20,9.81109e-01,9.99999e-01
1.831086358e+00,7.55915e-17,7.70179e-17,9.81478e-01,9.99999e-01
1.840241790e+00,2.58452e-14,2.63232e-14,9.81841e-01,9.99999e-01
1.849442999e+00,4.64484e-10,4.72903e-10,9.82196e-01,9.99999e-01
1.858690214e+00,3.05443e-09,3.10869e-09,9.82545e-01,9.99999e-01
1.867983665e+00,5.20887e-10,5.29956e-10,9.82887e-01,9.99999e-01
1.877323583e+00,6.25421e-45,6.36093e-45,9.83222e-01,9.99999e-01
