#,Wave/freq,Total,CO2,Rayleigh,CIA
4.000000000e-01,4.06481e-05,9.99999e-01,4.06481e-05,9.99999e-01
4.020000000e-01,4.96437e-05,9.99999e-01,4.96437e-05,9.99999e-01
4.040100000e-01,6.03783e-05,9.99999e-01,6.03783e-05,9.99999e-01
4.060300500e-01,7.31508e-05,9.99999e-01,7.31508e-05,9.99999e-01
4.080602003e-01,8.82899e-05,9.99999e-01,8.82899e-05,9.99999e-01
4.101005013e-01,1.06167e-04,9.99999e-01,1.06167e-04,9.99999e-01
4.121510038e-01,1.27200e-04,9.99999e-01,1.27200e-04,9.99999e-01
4.142117588e-01,1.51856e-04,9.99999e-01,1.51856e-04,9.99999e-01
4.162828176e-01,1.80658e-04,9.99999e-01,1.80658e-04,9.99999e-01
4.183642317e-01,2.14188e-04,9.99999e-01,2.14188e-04,9.99999e-01
4.204560528e-01,2.53087e-04,9.99999e-01,2.53087e-04,9.99999e-01
4.225583331e-01,2.98068e-04,9.99999e-01,2.98068e-04,9.99999e-01
4.246711247e-01,3.49909e-04,9.99999e-01,3.49909e-04,9.99999e-01
4.267944804e-01,4.09469e-04,9.99999e-01,4.09469e-04,9.99999e-01
4.289284528e-01,4.77681e-04,9.99999e-01,4.77681e-04,9.99999e-01
4.310730950e-01,5.55563e-04,9.99999e-01,5.55563e-04,9.99999e-01
4.332284605e-01,6.44218e-04,9.99999e-01,6.44218e-04,9.99999e-01
4.353946028e-01,7.44839e-04,9.99999e-01,7.44839e-04,9.99999e-01
4.375715758e-01,8.58711e-04,9.99999e-01,8.58711e-04,9.99999e-01
4.397594337e-01,9.87214e-04,9.99999e-01,9.87214e-04,9.99999e-01
4.419582309e-01,1.13182e-03,9.99999e-01,1.13182e-03,9.99999e-01
4.441680220e-01,1.29412e-03,9.99999e-01,1.29412e-03,9.99999e-01
4.463888621e-01,1.47577e-03,9.99999e-01,1.47577e-03,9.99999e-01
4.486208064e-01,1.67857e-03,9.99999e-01,1.67857e-03,9.99999e-01
4.508639105e-01,1.90438e-03,9.99999e-01,1.90438e-03,9.99999e-01
4.531182300e-01,2.15518e-03,9.99999e-01,2.15518e-03,9.99999e-01
4.553838212e-01,2.43307e-03,9.99999e-01,2.43307e-03,9.99999e-01
4.576607403e-01,2.74022e-03,9.99999e-01,2.74022e-03,9.99999e-01
4.599490440e-01,3.07889e-03,9.99999e-01,3.07889e-03,9.99999e-01
4.622487892e-01,3.45148e-03,9.99999e-01,3.45148e-03,9.99999e-01
4.645600332e-01,3.86043e-03,9.99999e-01,3.86043e-03,9.99999e-01
4.668828333e-01,4.30830e-03,9.99999e-01,4.30830e-03,9.99999e-01
4.692172475e-01,4.79771e-03,9.99999e-01,4.79771e-03,9.99999e-01
4.715633337e-01,5.33138e-03,9.99999e-01,5.33138e-03,9.99999e-01
4.739211504e-01,5.91207e-03,9.99999e-01,5.91207e-03,9.99999e-01
4.762907561e-01,6.54265e-03,9.99999e-01,6.54265e-03,9.99999e-01
4.786722099e-01,7.22600e-03,9.99999e-01,7.22600e-03,9.99999e-01
4.810655710e-01,7.96507e-03,9.99999e-01,7.96507e-03,9.99999e-01
4.834708988e-01,8.76287e-03,9.99999e-01,8.76287e-03,9.99999e-01
4.858882533e-01,9.62242e-03,9.99999e-01,9.62242e-03,9.99999e-01
4.883176946e-01,1.05468e-02,9.99999e-01,1.05468e-02,9.99999e-01
4.907592831e-01,1.15390e-02,9.99999e-01,1.15390e-02,9.99999e-01
4.932130795e-01,1.26022e-02,9.99999e-01,1.26022e-02,9.99999e-01
4.956791449e-01,1.37393e-02,9.99999e-01,1.37393e-02,9.99999e-01
4.981575406e-01,1.49536e-02,9.99999e-01,1.49536e-02,9.99999e-01
5.006483283e-01,1.62480e-02,9.99999e-01,1.62480e-02,9.99999e-01
5.031515699e-01,1.76254e-02,9.99999e-01,1.76254e-02,9.99999e-01
5.056673278e-01,1.90890e-02,9.99999e-01,1.90890e-02,9.99999e-01
5.081956644e-01,2.06415e-02,9.99999e-01,2.06415e-02,9.99999e-01
5.107366428e-01,2.22859e-02,9.99999e-01,2.22859e-02,9.99999e-01
5.132903260e-01,2.40248e-02,9.99999e-01,2.40248e-02,9.99999e-01
5.158567776e-01,2.58611e-02,9.99999e-01,2.58611e-02,9.99999e-01
5.184360615e-01,2.77972e-02,9.99999e-01,2.77972e-02,9.99999e-01
5.210282418e-01,2.98356e-02,9.99999e-01,2.98356e-02,9.99999e-01
5.236333830e-01,3.19789e-02,9.99999e-01,3.19789e-02,9.99999e-01
5.262515499e-01,3.42291e-02,9.99999e-01,3.42291e-02,9.99999e-01
5.288828077e-01,3.65885e-02,9.99999e-01,3.65885e-02,9.99999e-01
5.315272217e-01,3.90591e-02,9.99999e-01,3.90591e-02,9.99999e-01
5.341848578e-01,4.16427e-02,9.99999e-01,4.16427e-02,9.99999e-01
5.368557821e-01,4.43411e-02,9.99999e-01,4.43411e-02,9.99999e-01
5.395400610e-01,4.71559e-02,9.99999e-01,4.71559e-02,9.99999e-01
5.422377613e-01,5.00884e-02,9.99999e-01,5.00884e-02,9.99999e-01
5.449489501e-01,5.31398e-02,9.99999e-01,5.31398e-02,9.99999e-01
5.476736949e-01,5.63114e-02,9.99999e-01,5.63114e-02,9.99999e-01
5.504120634e-01,5.96040e-02,9.99999e-01,5.96040e-02,9.99999e-01
5.531641237e-01,6.30183e-02,9.99999e-01,6.30183e-02,9.99999e-01
5.559299443e-01,6.65549e-02,9.99999e-01,6.65549e-02,9.99999e-01
5.587095940e-01,7.02142e-02,9.99999e-01,7.02142e-02,9.99999e-01
5.615031420e-01,7.39965e-02,9.99999e-01,7.39965e-02,9.99999e-01
5.643106577e-01,7.79017e-02,9.99999e-01,7.79017e-02,9.99999e-01
5.671322110e-01,8.19297e-02,9.99999e-01,8.19297e-02,9.99999e-01
5.699678720e-01,8.60803e-02,9.99999e-01,8.60803e-02,9.99999e-01
5.728177114e-01,9.03529e-02,9.99999e-01,9.03529e-02,9.99999e-01
5.756818000e-01,9.47468e-02,9.99999e-01,9.47468e-02,9.99999e-01
5.785602090e-01,9.92613e-02,9.99999e-01,9.92613e-02,9.99999e-01
5.814530100e-01,1.03895e-01,9.99999e-01,1.03895e-01,9.99999e-01
5.843602750e-01,1.08648e-01,9.99999e-01,1.08648e-01,9.99999e-01
5.872820764e-01,1.13517e-01,9.99999e-01,1.13517e-01,9.99999e-01
5.902184868e-01,1.18502e-01,9.99999e-01,1.18502e-01,9.99999e-01
5.931695792e-01,1.23601e-01,9.99999e-01,1.23601e-01,9.99999e-01
5.961354271e-01,1.28812e-01,9.99999e-01,1.28812e-01,9.99999e-01
5.991161043e-01,1.34134e-01,9.99999e-01,1.34134e-01,9.99999e-01
6.021116848e-01,1.39563e-01,9.99999e-01,1.39563e-01,9.99999e-01
6.051222432e-01,1.45099e-01,9.99999e-01,1.45099e-01,9.99999e-01
6.081478544e-01,1.50738e-01,9.99999e-01,1.50738e-01,9.99999e-01
6.111885937e-01,1.56479e-01,9.99999e-01,1.56479e-01,9.99999e-01
6.142445367e-01,1.62318e-01,9.99999e-01,1.62318e-01,9.99999e-01
6.173157594e-01,1.68254e-01,9.99999e-01,1.68254e-01,9.99999e-01
6.204023382e-01,1.74282e-01,9.99999e-01,1.74282e-01,9.99999e-01
6.235043498e-01,1.80402e-01,9.99999e-01,1.80402e-01,9.99999e-01
6.266218716e-01,1.86609e-01,9.99999e-01,1.86609e-01,9.99999e-01
6.297549810e-01,1.92900e-01,9.99999e-01,1.92900e-01,9.99999e-01
6.329037559e-01,1.99273e-01,9.99999e-01,1.99273e-01,9.99999e-01
6.360682746e-01,2.05725e-01,9.99999e-01,2.05725e-01,9.99999e-01
6.392486160e-01,2.12252e-01,9.99999e-01,2.12252e-01,9.99999e-01
6.424448591e-01,2.18850e-01,9.99999e-01,2.18850e-01,9.99999e-01
6.456570834e-01,2.25518e-01,9.99999e-01,2.25518e-01,9.99999e-01
6.488853688e-01,2.32251e-01,9.99999e-01,2.32251e-01,9.99999e-01
6.521297956e-01,2.39046e-01,9.99999e-01,2.39046e-01,9.99999e-01
6.553904446e-01,2.45900e-01,9.99999e-01,2.45900e-01,9.99999e-01
6.586673968e-01,2.52809e-01,9.99999e-01,2.52809e-01,9.99999e-01
6.619607338e-01,2.59769e-01,9.99999e-01,2.59769e-01,9.99999e-01
6.652705375e-01,2.66779e-01,9.99999e-01,2.66779e-01,9.99999e-01
6.685968902e-01,2.73833e-01,9.99999e-01,2.73833e-01,9.99999e-01
6.719398746e-01,2.80929e-01,9.99999e-01,2.80929e-01,9.99999e-01
6.752995740e-01,2.88064e-01,9.99999e-01,2.88064e-01,9.99999e-01
6.786760719e-01,2.95233e-01,9.99999e-01,2.95233e-01,9.99999e-01
6.820694522e-01,3.02434e-01,9.99999e-01,3.02434e-01,9.99999e-01
6.854797995e-01,3.09663e-01,9.99999e-01,3.09663e-01,9.99999e-01
6.889071985e-01,3.16917e-01,9.99999e-01,3.16917e-01,9.99999e-01
6.923517345e-01,3.24193e-01,9.99999e-01,3.24193e-01,9.99999e-01
6.958134932e-01,3.31487e-01,9.99999e-01,3.31487e-01,9.99999e-01
6.992925606e-01,3.38796e-01,9.99999e-01,3.38796e-01,9.99999e-01
7.027890234e-01,3.46117e-01,9.99999e-01,3.46117e-01,9.99999e-01
7.063029686e-01,3.53447e-01,9.99999e-01,3.53447e-01,9.99999e-01
7.098344834e-01,3.60783e-01,9.99999e-01,3.60783e-01,9.99999e-01
7.133836558e-01,3.68122e-01,9.99999e-01,3.68122e-01,9.99999e-01
7.169505741e-01,3.75461e-01,9.99999e-01,3.75461e-01,9.99999e-01
7.205353270e-01,3.82796e-01,9.99999e-01,3.82796e-01,9.99999e-01
7.241380036e-01,3.90126e-01,9.99999e-01,3.90126e-01,9.99999e-01
7.277586936e-01,3.97448e-01,9.99999e-01,3.97448e-01,9.99999e-01
7.313974871e-01,4.04758e-01,9.99999e-01,4.04758e-01,9.99999e-01
7.350544745e-01,4.12054e-01,9.99999e-01,4.12054e-01,9.99999e-01
7.387297469e-01,4.19334e-01,9.99999e-01,4.19334e-01,9.99999e-01
7.424233956e-01,4.26594e-01,9.99999e-01,4.26594e-01,9.99999e-01
7.461355126e-01,4.33834e-01,9.99999e-01,4.33834e-01,9.99999e-01
7.498661902e-01,4.41049e-01,9.99999e-01,4.41049e-01,9.99999e-01
7.536155211e-01,4.48238e-01,9.99999e-01,4.48238e-01,9.99999e-01
7.573835987e-01,4.55400e-01,9.99999e-01,4.55400e-01,9.99999e-01
7.611705167e-01,4.62530e-01,9.99999e-01,4.62530e-01,9.99999e-01
7.649763693e-01,4.69629e-01,9.99999e-01,4.69629e-01,9.99999e-01
7.688012511e-01,4.76692e-01,9.99999e-01,4.76692e-01,9.99999e-01
7.726452574e-01,4.83720e-01,9.99999e-01,4.83720e-01,9.99999e-01
7.765084837e-01,4.90709e-01,9.99999e-01,4.90709e-01,9.99999e-01
7.803910261e-01,4.81945e-01,9.68425e-01,4.97658e-01,9.99999e-01
7.842929812e-01,4.34975e-01,8.62078e-01,5.04565e-01,9.99999e-01
7.882144461e-01,4.36742e-01,8.53963e-01,5.11429e-01,9.99999e-01
7.921555184e-01,4.72728e-01,9.12165e-01,5.18248e-01,9.99999e-01
7.961162960e-01,4.93448e-01,9.39864e-01,5.25020e-01,9.99999e-01
8.000968774e-01,5.14198e-01,9.67001e-01,5.31745e-01,9.99999e-01
8.040973618e-01,5.29104e-01,9.82695e-01,5.38420e-01,9.99999e-01
8.081178486e-01,5.40716e-01,9.92056e-01,5.45045e-01,9.99999e-01
8.121584379e-01,5.50250e-01,9.97518e-01,5.51618e-01,9.99999e-01
8.162192301e-01,5.57832e-01,9.99451e-01,5.58138e-01,9.99999e-01
8.203003262e-01,5.64599e-01,9.99990e-01,5.64604e-01,9.99999e-01
8.244018279e-01,5.71015e-01,9.99999e-01,5.71015e-01,9.99999e-01
8.285238370e-01,5.77371e-01,9.99999e-01,5.77371e-01,9.99999e-01
8.326664562e-01,5.83669e-01,9.99999e-01,5.83669e-01,9.99999e-01
8.368297885e-01,5.89909e-01,9.99999e-01,5.89909e-01,9.99999e-01
8.410139374e-01,5.96091e-01,9.99999e-01,5.96091e-01,9.99999e-01
8.452190071e-01,6.02214e-01,9.99999e-01,6.02214e-01,9.99999e-01
8.494451021e-01,6.08277e-01,9.99999e-01,6.08277e-01,9.99999e-01
8.536923276e-01,6.14279e-01,9.99999e-01,6.14279e-01,9.99999e-01
8.579607893e-01,6.20221e-01,9.99999e-01,6.20221e-01,9.99999e-01
8.622505932e-01,6.26100e-01,9.99999e-01,6.26100e-01,9.99999e-01
8.665618462e-01,5.87152e-01,9.29158e-01,6.31918e-01,9.99999e-01
8.708946554e-01,4.38185e-01,6.87161e-01,6.37673e-01,9.99999e-01
8.752491287e-01,4.75014e-01,7.38325e-01,6.43366e-01,9.99999e-01
8.796253743e-01,5.49299e-01,8.46383e-01,6.48995e-01,9.99999e-01
8.840235012e-01,6.00380e-01,9.17225e-01,6.54561e-01,9.99999e-01
8.884436187e-01,6.37871e-01,9.66378e-01,6.60063e-01,9.99999e-01
8.928858368e-01,6.56377e-01,9.86288e-01,6.65501e-01,9.99999e-01
8.973502660e-01,6.68616e-01,9.96630e-01,6.70876e-01,9.99999e-01
9.018370173e-01,6.75935e-01,9.99627e-01,6.76186e-01,9.99999e-01
9.063462024e-01,6.75168e-01,9.90805e-01,6.81433e-01,9.99999e-01
9.108779334e-01,6.71845e-01,9.78488e-01,6.86615e-01,9.99999e-01
9.154323231e-01,6.88177e-01,9.94858e-01,6.91733e-01,9.99999e-01
9.200094847e-01,6.47692e-01,9.29539e-01,6.96787e-01,9.99999e-01
9.246095321e-01,6.30981e-01,8.99118e-01,7.01777e-01,9.99999e-01
9.292325798e-01,6.50771e-01,9.20854e-01,7.06704e-01,9.99999e-01
9.338787427e-01,6.56515e-01,9.22633e-01,7.11566e-01,9.99999e-01
9.385481364e-01,6.75224e-01,9.42569e-01,7.16365e-01,9.99999e-01
9.432408771e-01,6.95369e-01,9.64316e-01,7.21101e-01,9.99999e-01
9.479570815e-01,7.12413e-01,9.81592e-01,7.25773e-01,9.99999e-01
9.526968669e-01,7.23857e-01,9.91065e-01,7.30382e-01,9.99999e-01
9.574603512e-01,7.32113e-01,9.96168e-01,7.34929e-01,9.99999e-01
9.622476530e-01,7.38528e-01,9.98802e-01,7.39414e-01,9.99999e-01
9.670588912e-01,7.43569e-01,9.99639e-01,7.43836e-01,9.99999e-01
9.718941857e-01,7.48178e-01,9.99973e-01,7.48197e-01,9.99999e-01
9.767536566e-01,7.52496e-01,9.99999e-01,7.52496e-01,9.99999e-01
9.816374249e-01,7.56735e-01,9.99999e-01,7.56735e-01,9.99999e-01
9.865456120e-01,7.60913e-01,9.99999e-01,7.60913e-01,9.99999e-01
9.914783401e-01,7.65031e-01,9.99999e-01,7.65031e-01,9.99999e-01
9.964357318e-01,7.69089e-01,9.99999e-01,7.69089e-01,9.99999e-01
1.001417910e+00,7.73088e-01,9.99999e-01,7.73088e-01,9.99999e-01
1.006425000e+00,7.77028e-01,9.99999e-01,7.77028e-01,9.99999e-01
1.011457125e+00,7.80909e-01,9.99999e-01,7.80909e-01,9.99999e-01
1.016514411e+00,7.84733e-01,9.99999e-01,7.84733e-01,9.99999e-01
1.021596983e+00,7.88465e-01,9.99955e-01,7.88500e-01,9.99999e-01
1.026704968e+00,7.89373e-01,9.96418e-01,7.92209e-01,9.99999e-01
1.031838492e+00,7.63817e-01,9.59734e-01,7.95862e-01,9.99999e-01
1.036997685e+00,1.26411e-01,1.58120e-01,7.99460e-01,9.99999e-01
1.042182673e+00,1.00201e-01,1.24783e-01,8.03002e-01,9.99999e-01
1.047393587e+00,1.19705e-01,1.48427e-01,8.06490e-01,9.99999e-01
1.052630555e+00,3.56652e-03,4.40353e-03,8.09923e-01,9.99999e-01
1.057893707e+00,8.82744e-03,1.08538e-02,8.13303e-01,9.99999e-01
1.063183176e+00,2.91824e-02,3.57352e-02,8.16629e-01,9.99999e-01
1.068499092e+00,8.16100e-02,9.95361e-02,8.19903e-01,9.99999e-01
1.073841587e+00,1.90667e-01,2.31637e-01,8.23125e-01,9.99999e-01
1.079210795e+00,3.27404e-01,3.96230e-01,8.26296e-01,9.99999e-01
1.084606849e+00,4.97895e-01,6.00296e-01,8.29416e-01,9.99999e-01
1.090029883e+00,6.38925e-01,7.67490e-01,8.32486e-01,9.99999e-01
1.095480033e+00,7.33232e-01,8.77589e-01,8.35506e-01,9.99999e-01
1.100957433e+00,7.87371e-01,9.39047e-01,8.38477e-01,9.99999e-01
1.106462220e+00,8.19777e-01,9.74299e-01,8.41400e-01,9.99999e-01
1.111994531e+00,8.36169e-01,9.90397e-01,8.44275e-01,9.99999e-01
1.117554504e+00,8.45101e-01,9.97636e-01,8.47103e-01,9.99999e-01
1.123142276e+00,8.49751e-01,9.99843e-01,8.49884e-01,9.99999e-01
1.128757988e+00,8.52619e-01,9.99999e-01,8.52619e-01,9.99999e-01
1.134401778e+00,8.55308e-01,9.99999e-01,8.55308e-01,9.99999e-01
1.140073787e+00,8.57953e-01,9.99999e-01,8.57953e-01,9.99999e-01
1.145774156e+00,8.60553e-01,9.99999e-01,8.60553e-01,9.99999e-01
1.151503026e+00,8.63109e-01,9.99999e-01,8.63109e-01,9.99999e-01
1.157260541e+00,8.65623e-01,9.99999e-01,8.65623e-01,9.99999e-01
1.163046844e+00,8.68094e-01,9.99999e-01,8.68094e-01,9.99999e-01
1.168862078e+00,8.70523e-01,9.99999e-01,8.70523e-01,9.99999e-01
1.174706389e+00,8.72910e-01,9.99999e-01,8.72910e-01,9.99999e-01
1.180579921e+00,8.75257e-01,9.99999e-01,8.75257e-01,9.99999e-01
1.186482820e+00,8.77559e-01,9.99994e-01,8.77563e-01,9.99999e-01
1.192415234e+00,8.68701e-01,9.87349e-01,8.79830e-01,9.99999e-01
1.198377311e+00,4.96664e-01,5.63074e-01,8.82058e-01,9.99999e-01
1.204369197e+00,5.14150e-11,5.81455e-11,8.84247e-01,9.99999e-01
1.210391043e+00,6.57132e-40,7.41350e-40,8.86398e-01,9.99999e-01
1.216442998e+00,9.63782e-35,1.08471e-34,8.88512e-01,9.99999e-01
1.222525213e+00,3.04074e-34,3.41429e-34,8.90589e-01,9.99999e-01
1.228637839e+00,1.60812e-26,1.80155e-26,8.92630e-01,9.99999e-01
1.234781029e+00,3.10646e-17,3.47232e-17,8.94635e-01,9.99999e-01
1.240954934e+00,1.14785e-11,1.28021e-11,8.96604e-01,9.99999e-01
1.247159708e+00,1.62626e-06,1.80990e-06,8.98539e-01,9.99999e-01
1.253395507e+00,3.30483e-04,3.67023e-04,9.00440e-01,9.99999e-01
1.259662485e+00,6.86867e-03,7.61233e-03,9.02307e-01,9.99999e-01
1.265960797e+00,6.47720e-02,7.16392e-02,9.04141e-01,9.99999e-01
1.272290601e+00,2.73120e-01,3.01475e-01,9.05943e-01,9.99999e-01
1.278652054e+00,2.58938e-01,2.85264e-01,9.07712e-01,9.99999e-01
1.285045314e+00,7.41072e-03,8.14857e-03,9.09450e-01,9.99999e-01
1.291470541e+00,2.26675e-05,2.48777e-05,9.11157e-01,9.99999e-01
1.297927893e+00,4.69526e-03,5.14361e-03,9.12833e-01,9.99999e-01
1.304417533e+00,1.21067e-01,1.32389e-01,9.14478e-01,9.99999e-01
1.310939621e+00,3.06553e-02,3.34630e-02,9.16095e-01,9.99999e-01
1.317494319e+00,3.46698e-14,3.77797e-14,9.17682e-01,9.99999e-01
1.324081790e+00,7.32516e-10,7.96871e-10,9.19240e-01,9.99999e-01
1.330702199e+00,7.93979e-06,8.62298e-06,9.20771e-01,9.99999e-01
1.337355710e+00,9.86641e-06,1.06979e-05,9.22273e-01,9.99999e-01
1.344042489e+00,3.07074e-06,3.32422e-06,9.23748e-01,9.99999e-01
1.350762701e+00,4.87540e-06,5.26958e-06,9.25197e-01,9.99999e-01
1.357516515e+00,3.78157e-04,4.08104e-04,9.26618e-01,9.99999e-01
1.364304097e+00,5.81240e-03,6.26325e-03,9.28014e-01,9.99999e-01
1.371125618e+00,6.56247e-02,7.06108e-02,9.29385e-01,9.99999e-01
1.377981246e+00,1.06467e-01,1.14390e-01,9.30730e-01,9.99999e-01
1.384871152e+00,2.63740e-01,2.82967e-01,9.32051e-01,9.99999e-01
1.391795508e+00,2.90449e-01,3.11191e-01,9.33347e-01,9.99999e-01
1.398754485e+00,4.54824e-01,4.86641e-01,9.34620e-01,9.99999e-01
1.405748258e+00,5.50399e-01,5.88115e-01,9.35869e-01,9.99999e-01
1.412776999e+00,6.69972e-01,7.14945e-01,9.37095e-01,9.99999e-01
1.419840884e+00,6.08480e-01,6.48493e-01,9.38298e-01,9.99999e-01
1.426940089e+00,5.76961e-02,6.14128e-02,9.39479e-01,9.99999e-01
1.434074789e+00,0.00000e+00,0.00000e+00,9.40638e-01,9.99999e-01
1.441245163e+00,0.00000e+00,0.00000e+00,9.41776e-01,9.99999e-01
1.448451389e+00,0.00000e+00,0.00000e+00,9.42893e-01,9.99999e-01
1.455693646e+00,4.54195e-320,4.81121e-320,9.43989e-01,9.99999e-01
1.462972114e+00,4.13578e-155,4.37618e-155,9.45064e-01,9.99999e-01
1.470286975e+00,3.78718e-65,4.00286e-65,9.46119e-01,9.99999e-01
1.477638409e+00,1.95853e-41,2.06781e-41,9.47155e-01,9.99999e-01
1.485026601e+00,1.25685e-23,1.32556e-23,9.48171e-01,9.99999e-01
1.492451734e+00,3.95091e-20,4.16250e-20,9.49168e-01,9.99999e-01
1.499913993e+00,1.64748e-09,1.73391e-09,9.50147e-01,9.99999e-01
1.507413563e+00,2.71305e-08,2.85251e-08,9.51107e-01,9.99999e-01
1.514950631e+00,1.08697e-09,1.14171e-09,9.52049e-01,9.99999e-01
1.522525384e+00,7.79114e-30,8.17560e-30,9.52974e-01,9.99999e-01
1.530138011e+00,2.06168e-69,2.16136e-69,9.53881e-01,9.99999e-01
1.537788701e+00,1.09342e-51,1.14521e-51,9.54771e-01,9.99999e-01
1.545477645e+00,5.96647e-12,6.24339e-12,9.55644e-01,9.99999e-01
1.553205033e+00,2.14435e-08,2.24187e-08,9.56501e-01,9.99999e-01
1.560971058e+00,6.60372e-09,6.89797e-09,9.57342e-01,9.99999e-01
1.568775913e+00,5.63222e-174,5.87812e-174,9.58166e-01,9.99999e-01
1.576619793e+00,0.00000e+00,0.00000e+00,9.58975e-01,9.99999e-01
1.584502892e+00,2.83536e-222,2.95421e-222,9.59769e-01,9.99999e-01
1.592425406e+00,3.79705e-155,3.95300e-155,9.60548e-01,9.99999e-01
1.600387533e+00,1.48357e-249,1.54327e-249,9.61312e-01,9.99999e-01
1.608389471e+00,0.00000e+00,0.00000e+00,9.62061e-01,9.99999e-01
1.616431418e+00,0.00000e+00,0.00000e+00,9.62797e-01,9.99999e-01
1.624513575e+00,7.16969e-197,7.44115e-197,9.63518e-01,9.99999e-01
1.632636143e+00,1.91472e-146,1.98576e-146,9.64226e-01,9.99999e-01
1.640799324e+00,1.88102e-60,1.94940e-60,9.64920e-01,9.99999e-01
1.649003321e+00,1.91557e-60,1.98381e-60,9.65600e-01,9.99999e-01
1.657248337e+00,5.50359e-47,5.69571e-47,9.66268e-01,9.99999e-01
1.665534579e+00,2.73439e-47,2.82792e-47,9.66923e-01,9.99999e-01
1.673862252e+00,1.33085e-30,1.37546e-30,9.67566e-01,9.99999e-01
1.682231563e+00,1.46283e-21,1.51088e-21,9.68196e-01,9.99999e-01
1.690642721e+00,1.44079e-12,1.48716e-12,9.68815e-01,9.99999e-01
1.699095934e+00,3.53407e-08,3.64554e-08,9.69421e-01,9.99999e-01
1.707591414e+00,1.06227e-04,1.09511e-04,9.70016e-01,9.99999e-01
1.716129371e+00,5.95787e-03,6.13834e-03,9.70599e-01,9.99999e-01
1.724710018e+00,5.92329e-02,6.09911e-02,9.71172e-01,9.99999e-01
1.733333568e+00,1.59408e-01,1.64045e-01,9.71733e-01,9.99999e-01
1.742000236e+00,3.29494e-01,3.38886e-01,9.72283e-01,9.99999e-01
1.750710237e+00,9.40602e-03,9.66878e-03,9.72823e-01,9.99999e-01
1.759463788e+00,3.53762e-29,3.63447e-29,9.73353e-01,9.99999e-01
1.768261107e+00,1.26982e-30,1.30388e-30,9.73872e-01,9.99999e-01
1.777102413e+00,1.81895e-29,1.86677e-29,9.74382e-01,9.99999e-01
1.785987925e+00,5.21915e-28,5.35362e-28,9.74881e-01,9.99999e-01
1.794917864e+00,1.10925e-26,1.13726e-26,9.75371e-01,9.99999e-01
1.803892454e+00,7.44619e-26,7.63044e-26,9.75852e-01,9.99999e-01
1.812911916e+00,9.41472e-25,9.64303e-25,9.76323e-01,9.99999e-01
1.821976476e+00,6.60278e-25,6.75970e-25,9.76785e-01,9.99999e-01
1.831086358e+00,2.97821e-20,3.04757e-20,9.77239e-01,9.99999e-01
1.840241790e+00,3.07570e-17,3.14590e-17,9.77683e-01,9.99999e-01
1.849442999e+00,4.41237e-12,4.51107e-12,9.78119e-01,9.99999e-01
1.858690214e+00,3.53888e-11,3.61646e-11,9.78547e-01,9.99999e-01
1.867983665e+00,6.30090e-12,6.43627e-12,9.78966e-01,9.99999e-01
1.877323583e+00,7.65620e-55,7.81741e-55,9.79377e-01,9.99999e-01
