#,Wave/freq,Total,CO2,Rayleigh,CIA
4.000000000e-01,5.25749e-02,9.99999e-01,5.25749e-02,9.99999e-01
4.020000000e-01,5.57280e-02,9.99999e-01,5.57280e-02,9.99999e-01
4.040100000e-01,5.89986e-02,9.99999e-01,5.89986e-02,9.99999e-01
4.060300500e-01,6.23908e-02,9.99999e-01,6.23908e-02,9.99999e-01
4.080602003e-01,6.59052e-02,9.99999e-01,6.59052e-02,9.99999e-01
4.101005013e-01,6.95423e-02,9.99999e-01,6.95423e-02,9.99999e-01
4.121510038e-01,7.33023e-02,9.99999e-01,7.33023e-02,9.99999e-01
4.142117588e-01,7.71852e-02,9.99999e-01,7.71852e-02,9.99999e-01
4.162828176e-01,8.11910e-02,9.99999e-01,8.11910e-02,9.99999e-01
4.183642317e-01,8.53194e-02,9.99999e-01,8.53194e-02,9.99999e-01
4.204560528e-01,8.95700e-02,9.99999e-01,8.95700e-02,9.99999e-01
4.225583331e-01,9.39420e-02,9.99999e-01,9.39420e-02,9.99999e-01
4.246711247e-01,9.84347e-02,9.99999e-01,9.84347e-02,9.99999e-01
4.267944804e-01,1.03047e-01,9.99999e-01,1.03047e-01,9.99999e-01
4.289284528e-01,1.07778e-01,9.99999e-01,1.07778e-01,9.99999e-01
4.310730950e-01,1.12627e-01,9.99999e-01,1.12627e-01,9.99999e-01
4.332284605e-01,1.17591e-01,9.99999e-01,1.17591e-01,9.99999e-01
4.353946028e-01,1.22669e-01,9.99999e-01,1.22669e-01,9.99999e-01
4.375715758e-01,1.27860e-01,9.99999e-01,1.27860e-01,9.99999e-01
4.397594337e-01,1.33162e-01,9.99999e-01,1.33162e-01,9.99999e-01
4.419582309e-01,1.38572e-01,9.99999e-01,1.38572e-01,9.99999e-01
4.441680220e-01,1.44089e-01,9.99999e-01,1.44089e-01,9.99999e-01
4.463888621e-01,1.49709e-01,9.99999e-01,1.49709e-01,9.99999e-01
4.486208064e-01,1.55432e-01,9.99999e-01,1.55432e-01,9.99999e-01
4.508639105e-01,1.61253e-01,9.99999e-01,1.61253e-01,9.99999e-01
4.531182300e-01,1.67171e-01,9.99999e-01,1.67171e-01,9.99999e-01
4.553838212e-01,1.73184e-01,9.99999e-01,1.73184e-01,9.99999e-01
4.576607403e-01,1.79287e-01,9.99999e-01,1.79287e-01,9.99999e-01
4.599490440e-01,1.85478e-01,9.99999e-01,1.85478e-01,9.99999e-01
4.622487892e-01,1.91754e-01,9.99999e-01,1.91754e-01,9.99999e-01
4.645600332e-01,1.98113e-01,9.99999e-01,1.98113e-01,9.99999e-01
4.668828333e-01,2.04551e-01,9.99999e-01,2.04551e-01,9.99999e-01
4.692172475e-01,2.11064e-01,9.99999e-01,2.11064e-01,9.99999e-01
4.715633337e-01,2.17650e-01,9.99999e-01,2.17650e-01,9.99999e-01
4.739211504e-01,2.24305e-01,9.99999e-01,2.24305e-01,9.99999e-01
4.762907561e-01,2.31027e-01,9.99999e-01,2.31027e-01,9.99999e-01
4.786722099e-01,2.37811e-01,9.99999e-01,2.37811e-01,9.99999e-01
4.810655710e-01,2.44654e-01,9.99999e-01,2.44654e-01,9.99999e-01
4.834708988e-01,2.51553e-01,9.99999e-01,2.51553e-01,9.99999e-01
4.858882533e-01,2.58505e-01,9.99999e-01,2.58505e-01,9.99999e-01
4.883176946e-01,2.65506e-01,9.99999e-01,2.65506e-01,9.99999e-01
4.907592831e-01,2.72552e-01,9.99999e-01,2.72552e-01,9.99999e-01
4.932130795e-01,2.79641e-01,9.99999e-01,2.79641e-01,9.99999e-01
4.956791449e-01,2.86769e-01,9.99999e-01,2.86769e-01,9.99999e-01
4.981575406e-01,2.93932e-01,9.99999e-01,2.93932e-01,9.99999e-01
5.006483283e-01,3.01128e-01,9.99999e-01,3.01128e-01,9.99999e-01
5.031515699e-01,3.08352e-01,9.99999e-01,3.08352e-01,9.99999e-01
5.056673278e-01,3.15602e-01,9.99999e-01,3.15602e-01,9.99999e-01
5.081956644e-01,3.22874e-01,9.99999e-01,3.22874e-01,9.99999e-01
5.107366428e-01,3.30164e-01,9.99999e-01,3.30164e-01,9.99999e-01
5.132903260e-01,3.37471e-01,9.99999e-01,3.37471e-01,9.99999e-01
5.158567776e-01,3.44790e-01,9.99999e-01,3.44790e-01,9.99999e-01
5.184360615e-01,3.52119e-01,9.99999e-01,3.52119e-01,9.99999e-01
5.210282418e-01,3.59454e-01,9.99999e-01,3.59454e-01,9.99999e-01
5.236333830e-01,3.66793e-01,9.99999e-01,3.66793e-01,9.99999e-01
5.262515499e-01,3.74132e-01,9.99999e-01,3.74132e-01,9.99999e-01
5.288828077e-01,3.81468e-01,9.99999e-01,3.81468e-01,9.99999e-01
5.315272217e-01,3.88799e-01,9.99999e-01,3.88799e-01,9.99999e-01
5.341848578e-01,3.96122e-01,9.99999e-01,3.96122e-01,9.99999e-01
5.368557821e-01,4.03435e-01,9.99999e-01,4.03435e-01,9.99999e-01
5.395400610e-01,4.10733e-01,9.99999e-01,4.10733e-01,9.99999e-01
5.422377613e-01,4.18016e-01,9.99999e-01,4.18016e-01,9.99999e-01
5.449489501e-01,4.25281e-01,9.99999e-01,4.25281e-01,9.99999e-01
5.476736949e-01,4.32524e-01,9.99999e-01,4.32524e-01,9.99999e-01
5.504120634e-01,4.39744e-01,9.99999e-01,4.39744e-01,9.99999e-01
5.531641237e-01,4.46938e-01,9.99999e-01,4.46938e-01,9.99999e-01
5.559299443e-01,4.54105e-01,9.99999e-01,4.54105e-01,9.99999e-01
5.587095940e-01,4.61241e-01,9.99999e-01,4.61241e-01,9.99999e-01
5.615031420e-01,4.68345e-01,9.99999e-01,4.68345e-01,9.99999e-01
5.643106577e-01,4.75416e-01,9.99999e-01,4.75416e-01,9.99999e-01
5.671322110e-01,4.82450e-01,9.99999e-01,4.82450e-01,9.99999e-01
5.699678720e-01,4.89446e-01,9.99999e-01,4.89446e-01,9.99999e-01
5.728177114e-01,4.96402e-01,9.99999e-01,4.96402e-01,9.99999e-01
5.756818000e-01,5.03317e-01,9.99999e-01,5.03317e-01,9.99999e-01
5.785602090e-01,5.10189e-01,9.99999e-01,5.10189e-01,9.99999e-01
5.814530100e-01,5.17016e-01,9.99999e-01,5.17016e-01,9.99999e-01
5.843602750e-01,5.23797e-01,9.99999e-01,5.23797e-01,9.99999e-01
5.872820764e-01,5.30530e-01,9.99999e-01,5.30530e-01,9.99999e-01
5.902184868e-01,5.37215e-01,9.99999e-01,5.37215e-01,9.99999e-01
5.931695792e-01,5.43849e-01,9.99999e-01,5.43849e-01,9.99999e-01
5.961354271e-01,5.50431e-01,9.99999e-01,5.50431e-01,9.99999e-01
5.991161043e-01,5.56961e-01,9.99999e-01,5.56961e-01,9.99999e-01
6.021116848e-01,5.63437e-01,9.99999e-01,5.63437e-01,9.99999e-01
6.051222432e-01,5.69858e-01,9.99999e-01,5.69858e-01,9.99999e-01
6.081478544e-01,5.76224e-01,9.99999e-01,5.76224e-01,9.99999e-01
6.111885937e-01,5.82532e-01,9.99999e-01,5.82532e-01,9.99999e-01
6.142445367e-01,5.88783e-01,9.99999e-01,5.88783e-01,9.99999e-01
6.173157594e-01,5.94976e-01,9.99999e-01,5.94976e-01,9.99999e-01
6.204023382e-01,6.01110e-01,9.99999e-01,6.01110e-01,9.99999e-01
6.235043498e-01,6.07183e-01,9.99999e-01,6.07183e-01,9.99999e-01
6.266218716e-01,6.13197e-01,9.99999e-01,6.13197e-01,9.99999e-01
6.297549810e-01,6.19149e-01,9.99999e-01,6.19149e-01,9.99999e-01
6.329037559e-01,6.25040e-01,9.99999e-01,6.25040e-01,9.99999e-01
6.360682746e-01,6.30869e-01,9.99999e-01,6.30869e-01,9.99999e-01
6.392486160e-01,6.36635e-01,9.99999e-01,6.36635e-01,9.99999e-01
6.424448591e-01,6.42339e-01,9.99999e-01,6.42339e-01,9.99999e-01
6.456570834e-01,6.47980e-01,9.99999e-01,6.47980e-01,9.99999e-01
6.488853688e-01,6.53557e-01,9.99999e-01,6.53557e-01,9.99999e-01
6.521297956e-01,6.59071e-01,9.99999e-01,6.59071e-01,9.99999e-01
6.553904446e-01,6.64521e-01,9.99999e-01,6.64521e-01,9.99999e-01
6.586673968e-01,6.69907e-01,9.99999e-01,6.69907e-01,9.99999e-01
6.619607338e-01,6.75229e-01,9.99999e-01,6.75229e-01,9.99999e-01
6.652705375e-01,6.80487e-01,9.99999e-01,6.80487e-01,9.99999e-01
6.685968902e-01,6.85681e-01,9.99999e-01,6.85681e-01,9.99999e-01
6.719398746e-01,6.90811e-01,9.99999e-01,6.90811e-01,9.99999e-01
6.752995740e-01,6.95877e-01,9.99999e-01,6.95877e-01,9.99999e-01
6.786760719e-01,7.00878e-01,9.99999e-01,7.00878e-01,9.99999e-01
6.820694522e-01,7.05816e-01,9.99999e-01,7.05816e-01,9.99999e-01
6.854797995e-01,7.10690e-01,9.99999e-01,7.10690e-01,9.99999e-01
6.889071985e-01,7.15501e-01,9.99999e-01,7.15501e-01,9.99999e-01
6.923517345e-01,7.20248e-01,9.99999e-01,7.20248e-01,9.99999e-01
6.958134932e-01,7.24931e-01,9.99999e-01,7.24931e-01,9.99999e-01
6.992925606e-01,7.29552e-01,9.99999e-01,7.29552e-01,9.99999e-01
7.027890234e-01,7.34110e-01,9.99999e-01,7.34110e-01,9.99999e-01
7.063029686e-01,7.38606e-01,9.99999e-01,7.38606e-01,9.99999e-01
7.098344834e-01,7.43040e-01,9.99999e-01,7.43040e-01,9.99999e-01
7.133836558e-01,7.47412e-01,9.99999e-01,7.47412e-01,9.99999e-01
7.169505741e-01,7.51722e-01,9.99999e-01,7.51722e-01,9.99999e-01
7.205353270e-01,7.55972e-01,9.99999e-01,7.55972e-01,9.99999e-01
7.241380036e-01,7.60160e-01,9.99999e-01,7.60160e-01,9.99999e-01
7.277586936e-01,7.64289e-01,9.99999e-01,7.64289e-01,9.99999e-01
7.313974871e-01,7.68358e-01,9.99999e-01,7.68358e-01,9.99999e-01
7.350544745e-01,7.72368e-01,9.99999e-01,7.72368e-01,9.99999e-01
7.387297469e-01,7.76318e-01,9.99999e-01,7.76318e-01,9.99999e-01
7.424233956e-01,7.80210e-01,9.99999e-01,7.80210e-01,9.99999e-01
7.461355126e-01,7.84045e-01,9.99999e-01,7.84045e-01,9.99999e-01
7.498661902e-01,7.87822e-01,9.99999e-01,7.87822e-01,9.99999e-01
7.536155211e-01,7.91541e-01,9.99999e-01,7.91541e-01,9.99999e-01
7.573835987e-01,7.95205e-01,9.99999e-01,7.95205e-01,9.99999e-01
7.611705167e-01,7.98812e-01,9.99999e-01,7.98812e-01,9.99999e-01
7.649763693e-01,8.02365e-01,9.99999e-01,8.02365e-01,9.99999e-01
7.688012511e-01,8.05862e-01,9.99999e-01,8.05862e-01,9.99999e-01
7.726452574e-01,8.09305e-01,9.99999e-01,8.09305e-01,9.99999e-01
7.765084837e-01,8.12694e-01,9.99999e-01,8.12694e-01,9.99999e-01
7.803910261e-01,8.07972e-01,9.90124e-01,8.16030e-01,9.99999e-01
7.842929812e-01,7.83830e-01,9.56690e-01,8.19314e-01,9.99999e-01
7.882144461e-01,7.84571e-01,9.53831e-01,8.22546e-01,9.99999e-01
7.921555184e-01,8.03778e-01,9.73419e-01,8.25726e-01,9.99999e-01
7.961162960e-01,8.13969e-01,9.82040e-01,8.28855e-01,9.99999e-01
8.000968774e-01,8.23825e-01,9.90252e-01,8.31934e-01,9.99999e-01
8.040973618e-01,8.30720e-01,9.94918e-01,8.34963e-01,9.99999e-01
8.081178486e-01,8.35997e-01,9.97676e-01,8.37943e-01,9.99999e-01
8.121584379e-01,8.40265e-01,9.99274e-01,8.40874e-01,9.99999e-01
8.162192301e-01,8.43623e-01,9.99839e-01,8.43758e-01,9.99999e-01
8.203003262e-01,8.46592e-01,9.99996e-01,8.46594e-01,9.99999e-01
8.244018279e-01,8.49383e-01,9.99999e-01,8.49383e-01,9.99999e-01
8.285238370e-01,8.52127e-01,9.99999e-01,8.52127e-01,9.99999e-01
8.326664562e-01,8.54824e-01,9.99999e-01,8.54824e-01,9.99999e-01
8.368297885e-01,8.57477e-01,9.99999e-01,8.57477e-01,9.99999e-01
8.410139374e-01,8.60085e-01,9.99999e-01,8.60085e-01,9.99999e-01
8.452190071e-01,8.62650e-01,9.99999e-01,8.62650e-01,9.99999e-01
8.494451021e-01,8.65171e-01,9.99999e-01,8.65171e-01,9.99999e-01
8.536923276e-01,8.67649e-01,9.99999e-01,8.67649e-01,9.99999e-01
8.579607893e-01,8.70086e-01,9.99999e-01,8.70086e-01,9.99999e-01
8.622505932e-01,8.72481e-01,9.99999e-01,8.72481e-01,9.99999e-01
8.665618462e-01,8.49626e-01,9.71183e-01,8.74835e-01,9.99999e-01
8.708946554e-01,7.82271e-01,8.91833e-01,8.77149e-01,9.99999e-01
8.752491287e-01,8.03089e-01,9.13199e-01,8.79423e-01,9.99999e-01
8.796253743e-01,8.39364e-01,9.52028e-01,8.81657e-01,9.99999e-01
8.840235012e-01,8.61786e-01,9.75031e-01,8.83853e-01,9.99999e-01
8.884436187e-01,8.77203e-01,9.90057e-01,8.86012e-01,9.99999e-01
8.928858368e-01,8.84562e-01,9.95979e-01,8.88132e-01,9.99999e-01
8.973502660e-01,8.89339e-01,9.99014e-01,8.90216e-01,9.99999e-01
9.018370173e-01,8.92166e-01,9.99890e-01,8.92263e-01,9.99999e-01
9.063462024e-01,8.91862e-01,9.97301e-01,8.94274e-01,9.99999e-01
9.108779334e-01,8.90579e-01,9.93671e-01,8.96250e-01,9.99999e-01
9.154323231e-01,8.96840e-01,9.98494e-01,8.98191e-01,9.99999e-01
9.200094847e-01,8.80230e-01,9.77925e-01,9.00098e-01,9.99999e-01
9.246095321e-01,8.74343e-01,9.69368e-01,9.01972e-01,9.99999e-01
9.292325798e-01,8.82164e-01,9.76047e-01,9.03812e-01,9.99999e-01
9.338787427e-01,8.84486e-01,9.76664e-01,9.05619e-01,9.99999e-01
9.385481364e-01,8.91845e-01,9.82863e-01,9.07394e-01,9.99999e-01
9.432408771e-01,8.99547e-01,9.89450e-01,9.09137e-01,9.99999e-01
9.479570815e-01,9.05929e-01,9.94597e-01,9.10850e-01,9.99999e-01
9.526968669e-01,9.10146e-01,9.97385e-01,9.12531e-01,9.99999e-01
9.574603512e-01,9.13160e-01,9.98880e-01,9.14183e-01,9.99999e-01
9.622476530e-01,9.15484e-01,9.99650e-01,9.15804e-01,9.99999e-01
9.670588912e-01,9.17300e-01,9.99894e-01,9.17397e-01,9.99999e-01
9.718941857e-01,9.18953e-01,9.99991e-01,9.18960e-01,9.99999e-01
9.767536566e-01,9.20495e-01,9.99999e-01,9.20495e-01,9.99999e-01
9.816374249e-01,9.22003e-01,9.99999e-01,9.22003e-01,9.99999e-01
9.865456120e-01,9.23483e-01,9.99999e-01,9.23483e-01,9.99999e-01
9.914783401e-01,9.24936e-01,9.99999e-01,9.24936e-01,9.99999e-01
9.964357318e-01,9.26363e-01,9.99999e-01,9.26363e-01,9.99999e-01
1.001417910e+00,9.27764e-01,9.99999e-01,9.27764e-01,9.99999e-01
1.006425000e+00,9.29139e-01,9.99999e-01,9.29139e-01,9.99999e-01
1.011457125e+00,9.30488e-01,9.99999e-01,9.30488e-01,9.99999e-01
1.016514411e+00,9.31813e-01,9.99999e-01,9.31813e-01,9.99999e-01
1.021596983e+00,9.33102e-01,9.99986e-01,9.33114e-01,9.99999e-01
1.026704968e+00,9.33416e-01,9.98955e-01,9.34391e-01,9.99999e-01
1.031838492e+00,9.20496e-01,9.83808e-01,9.35644e-01,9.99999e-01
1.036997685e+00,3.95132e-01,4.21755e-01,9.36874e-01,9.99999e-01
1.042182673e+00,4.91034e-01,5.23444e-01,9.38082e-01,9.99999e-01
1.047393587e+00,4.32082e-01,4.60020e-01,9.39267e-01,9.99999e-01
1.052630555e+00,1.34221e-01,1.42723e-01,9.40430e-01,9.99999e-01
1.057893707e+00,2.13183e-01,2.26411e-01,9.41572e-01,9.99999e-01
1.063183176e+00,3.25233e-01,3.45004e-01,9.42692e-01,9.99999e-01
1.068499092e+00,4.71918e-01,5.00023e-01,9.43792e-01,9.99999e-01
1.073841587e+00,6.09188e-01,6.44731e-01,9.44871e-01,9.99999e-01
1.079210795e+00,7.18138e-01,7.59187e-01,9.45930e-01,9.99999e-01
1.084606849e+00,8.14974e-01,8.60613e-01,9.46969e-01,9.99999e-01
1.090029883e+00,8.77298e-01,9.25430e-01,9.47988e-01,9.99999e-01
1.095480033e+00,9.13427e-01,9.62525e-01,9.48989e-01,9.99999e-01
1.100957433e+00,9.32691e-01,9.81808e-01,9.49971e-01,9.99999e-01
1.106462220e+00,9.43738e-01,9.92431e-01,9.50935e-01,9.99999e-01
1.111994531e+00,9.49206e-01,9.97189e-01,9.51880e-01,9.99999e-01
1.117554504e+00,9.52150e-01,9.99309e-01,9.52808e-01,9.99999e-01
1.123142276e+00,9.53674e-01,9.99953e-01,9.53718e-01,9.99999e-01
1.128757988e+00,9.54611e-01,9.99999e-01,9.54611e-01,9.99999e-01
1.134401778e+00,9.55487e-01,9.99999e-01,9.55487e-01,9.99999e-01
1.140073787e+00,9.56347e-01,9.99999e-01,9.56347e-01,9.99999e-01
1.145774156e+00,9.57191e-01,9.99999e-01,9.57191e-01,9.99999e-01
1.151503026e+00,9.58018e-01,9.99999e-01,9.58018e-01,9.99999e-01
1.157260541e+00,9.58830e-01,9.99999e-01,9.58830e-01,9.99999e-01
1.163046844e+00,9.59627e-01,9.99999e-01,9.59627e-01,9.99999e-01
1.168862078e+00,9.60408e-01,9.99999e-01,9.60408e-01,9.99999e-01
1.174706389e+00,9.61175e-01,9.99999e-01,9.61175e-01,9.99999e-01
1.180579921e+00,9.61927e-01,9.99999e-01,9.61927e-01,9.99999e-01
1.186482820e+00,9.62663e-01,9.99998e-01,9.62665e-01,9.99999e-01
1.192415234e+00,9.59788e-01,9.96262e-01,9.63388e-01,9.99999e-01
1.198377311e+00,6.01526e-01,6.23925e-01,9.64098e-01,9.99999e-01
1.204369197e+00,8.88362e-05,9.20777e-05,9.64795e-01,9.99999e-01
1.210391043e+00,3.20618e-13,3.32081e-13,9.65478e-01,9.99999e-01
1.216442998e+00,1.18586e-11,1.22741e-11,9.66148e-01,9.99999e-01
1.222525213e+00,2.02166e-11,2.09107e-11,9.66806e-01,9.99999e-01
1.228637839e+00,1.02133e-08,1.05569e-08,9.67451e-01,9.99999e-01
1.234781029e+00,1.87418e-06,1.93597e-06,9.68083e-01,9.99999e-01
1.240954934e+00,1.97096e-04,2.03464e-04,9.68704e-01,9.99999e-01
1.247159708e+00,6.06239e-03,6.25431e-03,9.69312e-01,9.99999e-01
1.253395507e+00,7.83040e-02,8.07333e-02,9.69909e-01,9.99999e-01
1.259662485e+00,2.09226e-01,2.15587e-01,9.70495e-01,9.99999e-01
1.265960797e+00,4.27613e-01,4.40353e-01,9.71069e-01,9.99999e-01
1.272290601e+00,6.78806e-01,6.98624e-01,9.71632e-01,9.99999e-01
1.278652054e+00,6.43479e-01,6.61889e-01,9.72185e-01,9.99999e-01
1.285045314e+00,1.14163e-01,1.17364e-01,9.72726e-01,9.99999e-01
1.291470541e+00,3.43233e-02,3.52664e-02,9.73258e-01,9.99999e-01
1.297927893e+00,1.31354e-01,1.34890e-01,9.73779e-01,9.99999e-01
1.304417533e+00,5.34266e-01,5.48364e-01,9.74290e-01,9.99999e-01
1.310939621e+00,1.81189e-01,1.85875e-01,9.74792e-01,9.99999e-01
1.317494319e+00,6.78669e-05,6.95868e-05,9.75283e-01,9.99999e-01
1.324081790e+00,7.34293e-04,7.52530e-04,9.75766e-01,9.99999e-01
1.330702199e+00,2.65747e-02,2.72215e-02,9.76238e-01,9.99999e-01
1.337355710e+00,1.70348e-02,1.74411e-02,9.76702e-01,9.99999e-01
1.344042489e+00,8.72690e-03,8.93090e-03,9.77157e-01,9.99999e-01
1.350762701e+00,2.30137e-02,2.35409e-02,9.77603e-01,9.99999e-01
1.357516515e+00,8.01104e-02,8.19090e-02,9.78041e-01,9.99999e-01
1.364304097e+00,2.13818e-01,2.18523e-01,9.78470e-01,9.99999e-01
1.371125618e+00,4.34196e-01,4.43559e-01,9.78890e-01,9.99999e-01
1.377981246e+00,5.17918e-01,5.28863e-01,9.79303e-01,9.99999e-01
1.384871152e+00,6.75629e-01,6.89622e-01,9.79708e-01,9.99999e-01
1.391795508e+00,6.95627e-01,7.09747e-01,9.80104e-01,9.99999e-01
1.398754485e+00,7.94546e-01,8.10352e-01,9.80494e-01,9.99999e-01
1.405748258e+00,8.39520e-01,8.55888e-01,9.80875e-01,9.99999e-01
1.412776999e+00,8.89606e-01,9.06604e-01,9.81249e-01,9.99999e-01
1.419840884e+00,8.47698e-01,8.63572e-01,9.81616e-01,9.99999e-01
1.426940089e+00,1.33586e-01,1.36038e-01,9.81976e-01,9.99999e-01
1.434074789e+00,6.41998e-174,6.53546e-174,9.82329e-01,9.99999e-01
1.441245163e+00,5.07222e-256,5.16164e-256,9.82675e-01,9.99999e-01
1.448451389e+00,1.11525e-210,1.13452e-210,9.83014e-01,9.99999e-01
1.455693646e+00,7.70477e-95,7.83524e-95,9.83347e-01,9.99999e-01
1.462972114e+00,8.86622e-47,9.01337e-47,9.83673e-01,9.99999e-01
1.470286975e+00,1.47213e-20,1.49608e-20,9.83993e-01,9.99999e-01
1.477638409e+00,1.42742e-13,1.45017e-13,9.84307e-01,9.99999e-01
1.485026601e+00,3.22876e-08,3.27921e-08,9.84614e-01,9.99999e-01
1.492451734e+00,5.97174e-07,6.06319e-07,9.84916e-01,9.99999e-01
1.499913993e+00,5.53883e-04,5.62196e-04,9.85211e-01,9.99999e-01
1.507413563e+00,5.52078e-03,5.60199e-03,9.85501e-01,9.99999e-01
1.514950631e+00,3.34107e-04,3.38924e-04,9.85786e-01,9.99999e-01
1.522525384e+00,3.05874e-10,3.10196e-10,9.86065e-01,9.99999e-01
1.530138011e+00,1.51795e-21,1.53898e-21,9.86338e-01,9.99999e-01
1.537788701e+00,2.19066e-16,2.22040e-16,9.86606e-01,9.99999e-01
1.545477645e+00,4.81444e-05,4.87850e-05,9.86869e-01,9.99999e-01
1.553205033e+00,4.40183e-03,4.45924e-03,9.87126e-01,9.99999e-01
1.560971058e+00,1.19404e-03,1.20931e-03,9.87379e-01,9.99999e-01
1.568775913e+00,2.80650e-52,2.84165e-52,9.87627e-01,9.99999e-01
1.576619793e+00,2.90495e-120,2.94061e-120,9.87870e-01,9.99999e-01
1.584502892e+00,2.38617e-66,2.41488e-66,9.88108e-01,9.99999e-01
1.592425406e+00,1.75808e-46,1.77881e-46,9.88341e-01,9.99999e-01
1.600387533e+00,2.69094e-74,2.72205e-74,9.88570e-01,9.99999e-01
1.608389471e+00,1.02188e-123,1.03346e-123,9.88795e-01,9.99999e-01
1.616431418e+00,1.73503e-124,1.75430e-124,9.89015e-01,9.99999e-01
1.624513575e+00,6.00021e-59,6.06553e-59,9.89231e-01,9.99999e-01
1.632636143e+00,3.70353e-44,3.74305e-44,9.89442e-01,9.99999e-01
1.640799324e+00,3.33541e-19,3.37029e-19,9.89650e-01,9.99999e-01
1.649003321e+00,5.19476e-19,5.24800e-19,9.89853e-01,9.99999e-01
1.657248337e+00,5.44641e-15,5.50112e-15,9.90052e-01,9.99999e-01
1.665534579e+00,4.29234e-15,4.33461e-15,9.90248e-01,9.99999e-01
1.673862252e+00,3.53426e-10,3.56837e-10,9.90440e-01,9.99999e-01
1.682231563e+00,1.81022e-07,1.82735e-07,9.90628e-01,9.99999e-01
1.690642721e+00,8.55400e-05,8.63332e-05,9.90812e-01,9.99999e-01
1.699095934e+00,3.55805e-03,3.59039e-03,9.90992e-01,9.99999e-01
1.707591414e+00,4.94496e-02,4.98901e-02,9.91170e-01,9.99999e-01
1.716129371e+00,1.99916e-01,2.01661e-01,9.91343e-01,9.99999e-01
1.724710018e+00,4.27571e-01,4.31230e-01,9.91513e-01,9.99999e-01
1.733333568e+00,5.81603e-01,5.86481e-01,9.91680e-01,9.99999e-01
1.742000236e+00,7.06418e-01,7.12226e-01,9.91844e-01,9.99999e-01
1.750710237e+00,9.07752e-02,9.15067e-02,9.92004e-01,9.99999e-01
1.759463788e+00,1.28337e-09,1.29351e-09,9.92162e-01,9.99999e-01
1.768261107e+00,1.89238e-10,1.90703e-10,9.92316e-01,9.99999e-01
1.777102413e+00,2.17910e-09,2.19563e-09,9.92467e-01,9.99999e-01
1.785987925e+00,1.80135e-09,1.81475e-09,9.92615e-01,9.99999e-01
1.794917864e+00,1.30860e-08,1.31815e-08,9.92761e-01,9.99999e-01
1.803892454e+00,5.92213e-09,5.96445e-09,9.92903e-01,9.99999e-01
1.812911916e+00,2.46209e-08,2.47934e-08,9.93043e-01,9.99999e-01
1.821976476e+00,1.34679e-08,1.35603e-08,9.93180e-01,9.99999e-01
1.831086358e+00,4.05603e-07,4.08333e-07,9.93314e-01,9.99999e-01
1.840241790e+00,5.35817e-06,5.39352e-06,9.93446e-01,9.99999e-01
1.849442999e+00,2.46796e-04,2.48392e-04,9.93575e-01,9.99999e-01
1.858690214e+00,8.11246e-04,8.16387e-04,9.93701e-01,9.99999e-01
1.867983665e+00,1.61459e-04,1.62462e-04,9.93825e-01,9.99999e-01
1.877323583e+00,2.99217e-17,3.01039e-17,9.93947e-01,9.99999e-01
