#,Wave/freq,Total,CO2,Rayleigh,CIA
4.000000000e-01,4.91172e-03,9.99999e-01,4.91172e-03,9.99999e-01
4.020000000e-01,5.45613e-03,9.99999e-01,5.45613e-03,9.99999e-01
4.040100000e-01,6.04765e-03,9.99999e-01,6.04765e-03,9.99999e-01
4.060300500e-01,6.68969e-03,9.99999e-01,6.68969e-03,9.99999e-01
4.080602003e-01,7.38515e-03,9.99999e-01,7.38515e-03,9.99999e-01
4.101005013e-01,8.13700e-03,9.99999e-01,8.13700e-03,9.99999e-01
4.121510038e-01,8.94825e-03,9.99999e-01,8.94825e-03,9.99999e-01
4.142117588e-01,9.82192e-03,9.99999e-01,9.82192e-03,9.99999e-01
4.162828176e-01,1.07611e-02,9.99999e-01,1.07611e-02,9.99999e-01
4.183642317e-01,1.17688e-02,9.99999e-01,1.17688e-02,9.99999e-01
4.204560528e-01,1.28481e-02,9.99999e-01,1.28481e-02,9.99999e-01
4.225583331e-01,1.40021e-02,9.99999e-01,1.40021e-02,9.99999e-01
4.246711247e-01,1.52339e-02,9.99999e-01,1.52339e-02,9.99999e-01
4.267944804e-01,1.65465e-02,9.99999e-01,1.65465e-02,9.99999e-01
4.289284528e-01,1.79428e-02,9.99999e-01,1.79428e-02,9.99999e-01
4.310730950e-01,1.94259e-02,9.99999e-01,1.94259e-02,9.99999e-01
4.332284605e-01,2.09985e-02,9.99999e-01,2.09985e-02,9.99999e-01
4.353946028e-01,2.26636e-02,9.99999e-01,2.26636e-02,9.99999e-01
4.375715758e-01,2.44240e-02,9.99999e-01,2.44240e-02,9.99999e-01
4.397594337e-01,2.62821e-02,9.99999e-01,2.62821e-02,9.99999e-01
4.419582309e-01,2.82408e-02,9.99999e-01,2.82408e-02,9.99999e-01
4.441680220e-01,3.03023e-02,9.99999e-01,3.03023e-02,9.99999e-01
4.463888621e-01,3.24691e-02,9.99999e-01,3.24691e-02,9.99999e-01
4.486208064e-01,3.47434e-02,9.99999e-01,3.47434e-02,9.99999e-01
4.508639105e-01,3.71273e-02,9.99999e-01,3.71273e-02,9.99999e-01
4.531182300e-01,3.96228e-02,9.99999e-01,3.96228e-02,9.99999e-01
4.553838212e-01,4.22318e-02,9.99999e-01,4.22318e-02,9.99999e-01
4.576607403e-01,4.49559e-02,9.99999e-01,4.49559e-02,9.99999e-01
4.599490440e-01,4.77967e-02,9.99999e-01,4.77967e-02,9.99999e-01
4.622487892e-01,5.07554e-02,9.99999e-01,5.07554e-02,9.99999e-01
4.645600332e-01,5.38335e-02,9.99999e-01,5.38335e-02,9.99999e-01
4.668828333e-01,5.70318e-02,9.99999e-01,5.70318e-02,9.99999e-01
4.692172475e-01,6.03514e-02,9.99999e-01,6.03514e-02,9.99999e-01
4.715633337e-01,6.37928e-02,9.99999e-01,6.37928e-02,9.99999e-01
4.739211504e-01,6.73566e-02,9.99999e-01,6.73566e-02,9.99999e-01
4.762907561e-01,7.10432e-02,9.99999e-01,7.10432e-02,9.99999e-01
4.786722099e-01,7.48528e-02,9.99999e-01,7.48528e-02,9.99999e-01
4.810655710e-01,7.87853e-02,9.99999e-01,7.87853e-02,9.99999e-01
4.834708988e-01,8.28406e-02,9.99999e-01,8.28406e-02,9.99999e-01
4.858882533e-01,8.70183e-02,9.99999e-01,8.70183e-02,9.99999e-01
4.883176946e-01,9.13179e-02,9.99999e-01,9.13179e-02,9.99999e-01
4.907592831e-01,9.57387e-02,9.99999e-01,9.57387e-02,9.99999e-01
4.932130795e-01,1.00280e-01,9.99999e-01,1.00280e-01,9.99999e-01
4.956791449e-01,1.04940e-01,9.99999e-01,1.04940e-01,9.99999e-01
4.981575406e-01,1.09719e-01,9.99999e-01,1.09719e-01,9.99999e-01
5.006483283e-01,1.14614e-01,9.99999e-01,1.14614e-01,9.99999e-01
5.031515699e-01,1.19624e-01,9.99999e-01,1.19624e-01,9.99999e-01
5.056673278e-01,1.24748e-01,9.99999e-01,1.24748e-01,9.99999e-01
5.081956644e-01,1.29984e-01,9.99999e-01,1.29984e-01,9.99999e-01
5.107366428e-01,1.35330e-01,9.99999e-01,1.35330e-01,9.99999e-01
5.132903260e-01,1.40783e-01,9.99999e-01,1.40783e-01,9.99999e-01
5.158567776e-01,1.46342e-01,9.99999e-01,1.46342e-01,9.99999e-01
5.184360615e-01,1.52004e-01,9.99999e-01,1.52004e-01,9.99999e-01
5.210282418e-01,1.57767e-01,9.99999e-01,1.57767e-01,9.99999e-01
5.236333830e-01,1.63628e-01,9.99999e-01,1.63628e-01,9.99999e-01
5.262515499e-01,1.69584e-01,9.99999e-01,1.69584e-01,9.99999e-01
5.288828077e-01,1.75633e-01,9.99999e-01,1.75633e-01,9.99999e-01
5.315272217e-01,1.81772e-01,9.99999e-01,1.81772e-01,9.99999e-01
5.341848578e-01,1.87998e-01,9.99999e-01,1.87998e-01,9.99999e-01
5.368557821e-01,1.94308e-01,9.99999e-01,1.94308e-01,9.99999e-01
5.395400610e-01,2.00699e-01,9.99999e-01,2.00699e-01,9.99999e-01
5.422377613e-01,2.07167e-01,9.99999e-01,2.07167e-01,9.99999e-01
5.449489501e-01,2.13710e-01,9.99999e-01,2.13710e-01,9.99999e-01
5.476736949e-01,2.20325e-01,9.99999e-01,2.20325e-01,9.99999e-01
5.504120634e-01,2.27007e-01,9.99999e-01,2.27007e-01,9.99999e-01
5.531641237e-01,2.33754e-01,9.99999e-01,2.33754e-01,9.99999e-01
5.559299443e-01,2.40562e-01,9.99999e-01,2.40562e-01,9.99999e-01
5.587095940e-01,2.47429e-01,9.99999e-01,2.47429e-01,9.99999e-01
5.615031420e-01,2.54349e-01,9.99999e-01,2.54349e-01,9.99999e-01
5.643106577e-01,2.61321e-01,9.99999e-01,2.61321e-01,9.99999e-01
5.671322110e-01,2.68341e-01,9.99999e-01,2.68341e-01,9.99999e-01
5.699678720e-01,2.75405e-01,9.99999e-01,2.75405e-01,9.99999e-01
5.728177114e-01,2.82510e-01,9.99999e-01,2.82510e-01,9.99999e-01
5.756818000e-01,2.89653e-01,9.99999e-01,2.89653e-01,9.99999e-01
5.785602090e-01,2.96829e-01,9.99999e-01,2.96829e-01,9.99999e-01
5.814530100e-01,3.04037e-01,9.99999e-01,3.04037e-01,9.99999e-01
5.843602750e-01,3.11272e-01,9.99999e-01,3.11272e-01,9.99999e-01
5.872820764e-01,3.18531e-01,9.99999e-01,3.18531e-01,9.99999e-01
5.902184868e-01,3.25811e-01,9.99999e-01,3.25811e-01,9.99999e-01
5.931695792e-01,3.33108e-01,9.99999e-01,3.33108e-01,9.99999e-01
5.961354271e-01,3.40420e-01,9.99999e-01,3.40420e-01,9.99999e-01
5.991161043e-01,3.47744e-01,9.99999e-01,3.47744e-01,9.99999e-01
6.021116848e-01,3.55075e-01,9.99999e-01,3.55075e-01,9.99999e-01
6.051222432e-01,3.62412e-01,9.99999e-01,3.62412e-01,9.99999e-01
6.081478544e-01,3.69751e-01,9.99999e-01,3.69751e-01,9.99999e-01
6.111885937e-01,3.77090e-01,9.99999e-01,3.77090e-01,9.99999e-01
6.142445367e-01,3.84424e-01,9.99999e-01,3.84424e-01,9.99999e-01
6.173157594e-01,3.91752e-01,9.99999e-01,3.91752e-01,9.99999e-01
6.204023382e-01,3.99072e-01,9.99999e-01,3.99072e-01,9.99999e-01
6.235043498e-01,4.06379e-01,9.99999e-01,4.06379e-01,9.99999e-01
6.266218716e-01,4.13671e-01,9.99999e-01,4.13671e-01,9.99999e-01
6.297549810e-01,4.20947e-01,9.99999e-01,4.20947e-01,9.99999e-01
6.329037559e-01,4.28203e-01,9.99999e-01,4.28203e-01,9.99999e-01
6.360682746e-01,4.35437e-01,9.99999e-01,4.35437e-01,9.99999e-01
6.392486160e-01,4.42647e-01,9.99999e-01,4.42647e-01,9.99999e-01
6.424448591e-01,4.49831e-01,9.99999e-01,4.49831e-01,9.99999e-01
6.456570834e-01,4.56985e-01,9.99999e-01,4.56985e-01,9.99999e-01
6.488853688e-01,4.64109e-01,9.99999e-01,4.64109e-01,9.99999e-01
6.521297956e-01,4.71200e-01,9.99999e-01,4.71200e-01,9.99999e-01
6.553904446e-01,4.78256e-01,9.99999e-01,4.78256e-01,9.99999e-01
6.586673968e-01,4.85275e-01,9.99999e-01,4.85275e-01,9.99999e-01
6.619607338e-01,4.92255e-01,9.99999e-01,4.92255e-01,9.99999e-01
6.652705375e-01,4.99195e-01,9.99999e-01,4.99195e-01,9.99999e-01
6.685968902e-01,5.06093e-01,9.99999e-01,5.06093e-01,9.99999e-01
6.719398746e-01,5.12947e-01,9.99999e-01,5.12947e-01,9.99999e-01
6.752995740e-01,5.19755e-01,9.99999e-01,5.19755e-01,9.99999e-01
6.786760719e-01,5.26517e-01,9.99999e-01,5.26517e-01,9.99999e-01
6.820694522e-01,5.33231e-01,9.99999e-01,5.33231e-01,9.99999e-01
6.854797995e-01,5.39895e-01,9.99999e-01,5.39895e-01,9.99999e-01
6.889071985e-01,5.46509e-01,9.99999e-01,5.46509e-01,9.99999e-01
6.923517345e-01,5.53070e-01,9.99999e-01,5.53070e-01,9.99999e-01
6.958134932e-01,5.59578e-01,9.99999e-01,5.59578e-01,9.99999e-01
6.992925606e-01,5.66032e-01,9.99999e-01,5.66032e-01,9.99999e-01
7.027890234e-01,5.72431e-01,9.99999e-01,5.72431e-01,9.99999e-01
7.063029686e-01,5.78774e-01,9.99999e-01,5.78774e-01,9.99999e-01
7.098344834e-01,5.85059e-01,9.99999e-01,5.85059e-01,9.99999e-01
7.133836558e-01,5.91287e-01,9.99999e-01,5.91287e-01,9.99999e-01
7.169505741e-01,5.97456e-01,9.99999e-01,5.97456e-01,9.99999e-01
7.205353270e-01,6.03565e-01,9.99999e-01,6.03565e-01,9.99999e-01
7.241380036e-01,6.09615e-01,9.99999e-01,6.09615e-01,9.99999e-01
7.277586936e-01,6.15604e-01,9.99999e-01,6.15604e-01,9.99999e-01
7.313974871e-01,6.21531e-01,9.99999e-01,6.21531e-01,9.99999e-01
7.350544745e-01,6.27397e-01,9.99999e-01,6.27397e-01,9.99999e-01
7.387297469e-01,6.33201e-01,9.99999e-01,6.33201e-01,9.99999e-01
7.424233956e-01,6.38942e-01,9.99999e-01,6.38942e-01,9.99999e-01
7.461355126e-01,6.44621e-01,9.99999e-01,6.44621e-01,9.99999e-01
7.498661902e-01,6.50236e-01,9.99999e-01,6.50236e-01,9.99999e-01
7.536155211e-01,6.55788e-01,9.99999e-01,6.55788e-01,9.99999e-01
7.573835987e-01,6.61276e-01,9.99999e-01,6.61276e-01,9.99999e-01
7.611705167e-01,6.66700e-01,9.99999e-01,6.66700e-01,9.99999e-01
7.649763693e-01,6.72060e-01,9.99999e-01,6.72060e-01,9.99999e-01
7.688012511e-01,6.77357e-01,9.99999e-01,6.77357e-01,9.99999e-01
7.726452574e-01,6.82589e-01,9.99999e-01,6.82589e-01,9.99999e-01
7.765084837e-01,6.87757e-01,9.99999e-01,6.87757e-01,9.99999e-01
7.803910261e-01,6.80092e-01,9.81570e-01,6.92861e-01,9.99999e-01
7.842929812e-01,6.45105e-01,9.24350e-01,6.97901e-01,9.99999e-01
7.882144461e-01,6.45814e-01,9.18814e-01,7.02877e-01,9.99999e-01
7.921555184e-01,6.74174e-01,9.52506e-01,7.07789e-01,9.99999e-01
7.961162960e-01,6.89907e-01,9.68104e-01,7.12637e-01,9.99999e-01
8.000968774e-01,7.04927e-01,9.82583e-01,7.17422e-01,9.99999e-01
8.040973618e-01,7.15612e-01,9.90955e-01,7.22143e-01,9.99999e-01
8.081178486e-01,7.23775e-01,9.95834e-01,7.26802e-01,9.99999e-01
8.121584379e-01,7.30458e-01,9.98715e-01,7.31397e-01,9.99999e-01
8.162192301e-01,7.35721e-01,9.99715e-01,7.35930e-01,9.99999e-01
8.203003262e-01,7.40398e-01,9.99995e-01,7.40401e-01,9.99999e-01
8.244018279e-01,7.44809e-01,9.99999e-01,7.44809e-01,9.99999e-01
8.285238370e-01,7.49157e-01,9.99999e-01,7.49157e-01,9.99999e-01
8.326664562e-01,7.53443e-01,9.99999e-01,7.53443e-01,9.99999e-01
8.368297885e-01,7.57668e-01,9.99999e-01,7.57668e-01,9.99999e-01
8.410139374e-01,7.61832e-01,9.99999e-01,7.61832e-01,9.99999e-01
8.452190071e-01,7.65937e-01,9.99999e-01,7.65937e-01,9.99999e-01
8.494451021e-01,7.69982e-01,9.99999e-01,7.69982e-01,9.99999e-01
8.536923276e-01,7.73967e-01,9.99999e-01,7.73967e-01,9.99999e-01
8.579607893e-01,7.77894e-01,9.99999e-01,7.77894e-01,9.99999e-01
8.622505932e-01,7.81763e-01,9.99999e-01,7.81763e-01,9.99999e-01
8.665618462e-01,7.47741e-01,9.51839e-01,7.85574e-01,9.99999e-01
8.708946554e-01,6.44342e-01,8.16317e-01,7.89328e-01,9.99999e-01
8.752491287e-01,6.74845e-01,8.50975e-01,7.93025e-01,9.99999e-01
8.796253743e-01,7.29755e-01,9.16010e-01,7.96666e-01,9.99999e-01
8.840235012e-01,7.64831e-01,9.55738e-01,8.00251e-01,9.99999e-01
8.884436187e-01,7.89607e-01,9.82365e-01,8.03781e-01,9.99999e-01
8.928858368e-01,8.01462e-01,9.92821e-01,8.07256e-01,9.99999e-01
8.973502660e-01,8.09264e-01,9.98255e-01,8.10678e-01,9.99999e-01
9.018370173e-01,8.13889e-01,9.99807e-01,8.14046e-01,9.99999e-01
9.063462024e-01,8.13282e-01,9.95009e-01,8.17360e-01,9.99999e-01
9.108779334e-01,8.11340e-01,9.88686e-01,8.20623e-01,9.99999e-01
9.154323231e-01,8.21644e-01,9.97341e-01,8.23834e-01,9.99999e-01
9.200094847e-01,7.94332e-01,9.60505e-01,8.26993e-01,9.99999e-01
9.246095321e-01,7.85054e-01,9.45731e-01,8.30102e-01,9.99999e-01
9.292325798e-01,7.97256e-01,9.56905e-01,8.33161e-01,9.99999e-01
9.338787427e-01,8.01506e-01,9.58544e-01,8.36170e-01,9.99999e-01
9.385481364e-01,8.13479e-01,9.69430e-01,8.39130e-01,9.99999e-01
9.432408771e-01,8.26224e-01,9.81213e-01,8.42042e-01,9.99999e-01
9.479570815e-01,8.36725e-01,9.90315e-01,8.44907e-01,9.99999e-01
9.526968669e-01,8.43758e-01,9.95321e-01,8.47724e-01,9.99999e-01
9.574603512e-01,8.48792e-01,9.97997e-01,8.50495e-01,9.99999e-01
9.622476530e-01,8.52687e-01,9.99375e-01,8.53220e-01,9.99999e-01
9.670588912e-01,8.55739e-01,9.99812e-01,8.55899e-01,9.99999e-01
9.718941857e-01,8.58522e-01,9.99986e-01,8.58534e-01,9.99999e-01
9.767536566e-01,8.61124e-01,9.99999e-01,8.61124e-01,9.99999e-01
9.816374249e-01,8.63671e-01,9.99999e-01,8.63671e-01,9.99999e-01
9.865456120e-01,8.66175e-01,9.99999e-01,8.66175e-01,9.99999e-01
9.914783401e-01,8.68637e-01,9.99999e-01,8.68637e-01,9.99999e-01
9.964357318e-01,8.71056e-01,9.99999e-01,8.71056e-01,9.99999e-01
1.001417910e+00,8.73435e-01,9.99999e-01,8.73435e-01,9.99999e-01
1.006425000e+00,8.75772e-01,9.99999e-01,8.75772e-01,9.99999e-01
1.011457125e+00,8.78070e-01,9.99999e-01,8.78070e-01,9.99999e-01
1.016514411e+00,8.80328e-01,9.99999e-01,8.80328e-01,9.99999e-01
1.021596983e+00,8.82524e-01,9.99972e-01,8.82547e-01,9.99999e-01
1.026704968e+00,8.83009e-01,9.98056e-01,8.84728e-01,9.99999e-01
1.031838492e+00,8.61566e-01,9.71466e-01,8.86871e-01,9.99999e-01
1.036997685e+00,2.43072e-01,2.73429e-01,8.88977e-01,9.99999e-01
1.042182673e+00,2.86034e-01,3.21010e-01,8.91045e-01,9.99999e-01
1.047393587e+00,2.68581e-01,3.00736e-01,8.93078e-01,9.99999e-01
1.052630555e+00,3.64243e-02,4.06941e-02,8.95075e-01,9.99999e-01
1.057893707e+00,7.02657e-02,7.83308e-02,8.97037e-01,9.99999e-01
1.063183176e+00,1.41622e-01,1.57539e-01,8.98964e-01,9.99999e-01
1.068499092e+00,2.61180e-01,2.89923e-01,9.00858e-01,9.99999e-01
1.073841587e+00,4.13815e-01,4.58409e-01,9.02717e-01,9.99999e-01
1.079210795e+00,5.52948e-01,6.11299e-01,9.04544e-01,9.99999e-01
1.084606849e+00,6.92841e-01,7.64438e-01,9.06338e-01,9.99999e-01
1.090029883e+00,7.90169e-01,8.70133e-01,9.08101e-01,9.99999e-01
1.095480033e+00,8.49638e-01,9.33840e-01,9.09831e-01,9.99999e-01
1.100957433e+00,8.82000e-01,9.67601e-01,9.11531e-01,9.99999e-01
1.106462220e+00,9.00859e-01,9.86484e-01,9.13200e-01,9.99999e-01
1.111994531e+00,9.10239e-01,9.94970e-01,9.14840e-01,9.99999e-01
1.117554504e+00,9.15324e-01,9.98771e-01,9.16450e-01,9.99999e-01
1.123142276e+00,9.17956e-01,9.99919e-01,9.18030e-01,9.99999e-01
1.128757988e+00,9.19582e-01,9.99999e-01,9.19582e-01,9.99999e-01
1.134401778e+00,9.21106e-01,9.99999e-01,9.21106e-01,9.99999e-01
1.140073787e+00,9.22603e-01,9.99999e-01,9.22603e-01,9.99999e-01
1.145774156e+00,9.24072e-01,9.99999e-01,9.24072e-01,9.99999e-01
1.151503026e+00,9.25514e-01,9.99999e-01,9.25514e-01,9.99999e-01
1.157260541e+00,9.26931e-01,9.99999e-01,9.26931e-01,9.99999e-01
1.163046844e+00,9.28321e-01,9.99999e-01,9.28321e-01,9.99999e-01
1.168862078e+00,9.29686e-01,9.99999e-01,9.29686e-01,9.99999e-01
1.174706389e+00,9.31026e-01,9.99999e-01,9.31026e-01,9.99999e-01
1.180579921e+00,9.32341e-01,9.99999e-01,9.32341e-01,9.99999e-01
1.186482820e+00,9.33628e-01,9.99995e-01,9.33632e-01,9.99999e-01
1.192415234e+00,9.28370e-01,9.93016e-01,9.34899e-01,9.99999e-01
1.198377311e+00,5.45346e-01,5.82545e-01,9.36143e-01,9.99999e-01
1.204369197e+00,7.37676e-07,7.86968e-07,9.37364e-01,9.99999e-01
1.210391043e+00,4.68596e-22,4.99270e-22,9.38562e-01,9.99999e-01
1.216442998e+00,2.46222e-19,2.62011e-19,9.39739e-01,9.99999e-01
1.222525213e+00,4.65318e-19,4.94549e-19,9.40893e-01,9.99999e-01
1.228637839e+00,1.12609e-14,1.19539e-14,9.42026e-01,9.99999e-01
1.234781029e+00,4.09410e-10,4.34093e-10,9.43138e-01,9.99999e-01
1.240954934e+00,7.26173e-07,7.69063e-07,9.44229e-01,9.99999e-01
1.247159708e+00,3.55991e-04,3.76590e-04,9.45300e-01,9.99999e-01
1.253395507e+00,1.20438e-02,1.27265e-02,9.46351e-01,9.99999e-01
1.259662485e+00,7.94053e-02,8.38154e-02,9.47382e-01,9.99999e-01
1.265960797e+00,2.25365e-01,2.37627e-01,9.48394e-01,9.99999e-01
1.272290601e+00,5.26080e-01,5.54125e-01,9.49387e-01,9.99999e-01
1.278652054e+00,4.63526e-01,4.87735e-01,9.50362e-01,9.99999e-01
1.285045314e+00,2.55301e-02,2.68365e-02,9.51318e-01,9.99999e-01
1.291470541e+00,2.80794e-03,2.94872e-03,9.52256e-01,9.99999e-01
1.297927893e+00,5.77017e-02,6.05362e-02,9.53177e-01,9.99999e-01
1.304417533e+00,3.27416e-01,3.43174e-01,9.54080e-01,9.99999e-01
1.310939621e+00,9.08186e-02,9.51013e-02,9.54966e-01,9.99999e-01
1.317494319e+00,5.03596e-08,5.26864e-08,9.55836e-01,9.99999e-01
1.324081790e+00,6.69636e-06,6.99951e-06,9.56689e-01,9.99999e-01
1.330702199e+00,1.71349e-03,1.78950e-03,9.57526e-01,9.99999e-01
1.337355710e+00,1.26250e-03,1.31737e-03,9.58347e-01,9.99999e-01
1.344042489e+00,4.18835e-04,4.36672e-04,9.59153e-01,9.99999e-01
1.350762701e+00,1.30327e-03,1.35766e-03,9.59943e-01,9.99999e-01
1.357516515e+00,1.25140e-02,1.30256e-02,9.60719e-01,9.99999e-01
1.364304097e+00,6.40712e-02,6.66380e-02,9.61480e-01,9.99999e-01
1.371125618e+00,2.30178e-01,2.39214e-01,9.62226e-01,9.99999e-01
1.377981246e+00,3.06599e-01,3.18393e-01,9.62958e-01,9.99999e-01
1.384871152e+00,4.95026e-01,5.13685e-01,9.63676e-01,9.99999e-01
1.391795508e+00,5.21376e-01,5.40632e-01,9.64381e-01,9.99999e-01
1.398754485e+00,6.61250e-01,6.85181e-01,9.65072e-01,9.99999e-01
1.405748258e+00,7.30624e-01,7.56535e-01,9.65750e-01,9.99999e-01
1.412776999e+00,8.10571e-01,8.38739e-01,9.66415e-01,9.99999e-01
1.419840884e+00,7.48747e-01,7.74245e-01,9.67067e-01,9.99999e-01
1.426940089e+00,9.81686e-02,1.01444e-01,9.67707e-01,9.99999e-01
1.434074789e+00,3.65991e-312,3.77958e-312,9.68335e-01,9.99999e-01
1.441245163e+00,0.00000e+00,0.00000e+00,9.68950e-01,9.99999e-01
1.448451389e+00,0.00000e+00,0.00000e+00,9.69554e-01,9.99999e-01
1.455693646e+00,2.11205e-169,2.17704e-169,9.70146e-01,9.99999e-01
1.462972114e+00,1.20890e-82,1.24535e-82,9.70727e-01,9.99999e-01
1.470286975e+00,2.50051e-35,2.57440e-35,9.71297e-01,9.99999e-01
1.477638409e+00,7.72323e-23,7.94688e-23,9.71856e-01,9.99999e-01
1.485026601e+00,2.46002e-13,2.52983e-13,9.72404e-01,9.99999e-01
1.492451734e+00,2.30525e-11,2.36936e-11,9.72942e-01,9.99999e-01
1.499913993e+00,7.44235e-06,7.64518e-06,9.73469e-01,9.99999e-01
1.507413563e+00,9.28561e-05,9.53361e-05,9.73986e-01,9.99999e-01
1.514950631e+00,3.95442e-06,4.05792e-06,9.74493e-01,9.99999e-01
1.522525384e+00,9.38019e-17,9.62079e-17,9.74991e-01,9.99999e-01
1.530138011e+00,1.79980e-37,1.84504e-37,9.75479e-01,9.99999e-01
1.537788701e+00,3.68606e-28,3.77686e-28,9.75957e-01,9.99999e-01
1.545477645e+00,2.39804e-07,2.45593e-07,9.76427e-01,9.99999e-01
1.553205033e+00,7.40112e-05,7.57623e-05,9.76887e-01,9.99999e-01
1.560971058e+00,1.88615e-05,1.92988e-05,9.77338e-01,9.99999e-01
1.568775913e+00,1.44655e-92,1.47942e-92,9.77781e-01,9.99999e-01
1.576619793e+00,2.67347e-215,2.73301e-215,9.78215e-01,9.99999e-01
1.584502892e+00,5.74081e-118,5.86610e-118,9.78640e-01,9.99999e-01
1.592425406e+00,1.55380e-82,1.58703e-82,9.79058e-01,9.99999e-01
1.600387533e+00,2.57556e-132,2.62955e-132,9.79467e-01,9.99999e-01
1.608389471e+00,1.55659e-221,1.58856e-221,9.79869e-01,9.99999e-01
1.616431418e+00,6.33923e-223,6.46687e-223,9.80262e-01,9.99999e-01
1.624513575e+00,1.31532e-104,1.34128e-104,9.80648e-01,9.99999e-01
1.632636143e+00,4.58147e-78,4.67007e-78,9.81027e-01,9.99999e-01
1.640799324e+00,7.35195e-33,7.49129e-33,9.81398e-01,9.99999e-01
1.649003321e+00,8.53513e-33,8.69368e-33,9.81762e-01,9.99999e-01
1.657248337e+00,1.18682e-25,1.20842e-25,9.82119e-01,9.99999e-01
1.665534579e+00,7.87593e-26,8.01646e-26,9.82469e-01,9.99999e-01
1.673862252e+00,5.67939e-17,5.77870e-17,9.82812e-01,9.99999e-01
1.682231563e+00,3.29472e-12,3.35118e-12,9.83149e-01,9.99999e-01
1.690642721e+00,1.72027e-07,1.74917e-07,9.83479e-01,9.99999e-01
1.699095934e+00,6.65278e-05,6.76231e-05,9.83803e-01,9.99999e-01
1.707591414e+00,5.80245e-03,5.89607e-03,9.84120e-01,9.99999e-01
1.716129371e+00,6.00213e-02,6.09705e-02,9.84431e-01,9.99999e-01
1.724710018e+00,2.21430e-01,2.24862e-01,9.84736e-01,9.99999e-01
1.733333568e+00,3.77916e-01,3.83656e-01,9.85036e-01,9.99999e-01
1.742000236e+00,5.42161e-01,5.50232e-01,9.85329e-01,9.99999e-01
1.750710237e+00,3.65449e-02,3.70782e-02,9.85617e-01,9.99999e-01
1.759463788e+00,3.68275e-16,3.73542e-16,9.85899e-01,9.99999e-01
1.768261107e+00,3.62322e-17,3.67401e-17,9.86175e-01,9.99999e-01
1.777102413e+00,4.37040e-16,4.43044e-16,9.86447e-01,9.99999e-01
1.785987925e+00,1.21473e-15,1.23108e-15,9.86712e-01,9.99999e-01
1.794917864e+00,1.07415e-14,1.08833e-14,9.86973e-01,9.99999e-01
1.803892454e+00,1.23949e-14,1.25552e-14,9.87229e-01,9.99999e-01
1.812911916e+00,7.76397e-14,7.86240e-14,9.87480e-01,9.99999e-01
1.821976476e+00,4.61471e-14,4.67206e-14,9.87725e-01,9.99999e-01
1.831086358e+00,1.35586e-11,1.37237e-11,9.87966e-01,9.99999e-01
1.840241790e+00,8.50605e-10,8.60759e-10,9.88203e-01,9.99999e-01
1.849442999e+00,6.09208e-07,6.16336e-07,9.88434e-01,9.99999e-01
1.858690214e+00,2.86374e-06,2.89658e-06,9.88661e-01,9.99999e-01
1.867983665e+00,4.47203e-07,4.52230e-07,9.88884e-01,9.99999e-01
1.877323583e+00,8.47675e-30,8.57014e-30,9.89102e-01,9.99999e-01
