#,Wave/freq,Total,CO2,Rayleigh,CIA
4.000000000e-01,2.02675e-14,9.99999e-01,2.02675e-14,9.99999e-01
4.020000000e-01,3.78047e-14,9.99999e-01,3.78047e-14,9.99999e-01
4.040100000e-01,6.96102e-14,9.99999e-01,6.96102e-14,9.99999e-01
4.060300500e-01,1.26638e-13,9.99999e-01,1.26638e-13,9.99999e-01
4.080602003e-01,2.27677e-13,9.99999e-01,2.27677e-13,9.99999e-01
4.101005013e-01,4.04616e-13,9.99999e-01,4.04616e-13,9.99999e-01
4.121510038e-01,7.10943e-13,9.99999e-01,7.10943e-13,9.99999e-01
4.142117588e-01,1.23535e-12,9.99999e-01,1.23535e-12,9.99999e-01
4.162828176e-01,2.12328e-12,9.99999e-01,2.12328e-12,9.99999e-01
4.183642317e-01,3.61059e-12,9.99999e-01,3.61059e-12,9.99999e-01
4.204560528e-01,6.07568e-12,9.99999e-01,6.07568e-12,9.99999e-01
4.225583331e-01,1.01192e-11,9.99999e-01,1.01192e-11,9.99999e-01
4.246711247e-01,1.66848e-11,9.99999e-01,1.66848e-11,9.99999e-01
4.267944804e-01,2.72400e-11,9.99999e-01,2.72400e-11,9.99999e-01
4.289284528e-01,4.40442e-11,9.99999e-01,4.40442e-11,9.99999e-01
4.310730950e-01,7.05420e-11,9.99999e-01,7.05420e-11,9.99999e-01
4.332284605e-01,1.11935e-10,9.99999e-01,1.11935e-10,9.99999e-01
4.353946028e-01,1.76004e-10,9.99999e-01,1.76004e-10,9.99999e-01
4.375715758e-01,2.74283e-10,9.99999e-01,2.74283e-10,9.99999e-01
4.397594337e-01,4.23709e-10,9.99999e-01,4.23709e-10,9.99999e-01
4.419582309e-01,6.48943e-10,9.99999e-01,6.48943e-10,9.99999e-01
4.441680220e-01,9.85571e-10,9.99999e-01,9.85571e-10,9.99999e-01
4.463888621e-01,1.48452e-09,9.99999e-01,1.48452e-09,9.99999e-01
4.486208064e-01,2.21803e-09,9.99999e-01,2.21803e-09,9.99999e-01
4.508639105e-01,3.28781e-09,9.99999e-01,3.28781e-09,9.99999e-01
4.531182300e-01,4.83581e-09,9.99999e-01,4.83581e-09,9.99999e-01
4.553838212e-01,7.05864e-09,9.99999e-01,7.05864e-09,9.99999e-01
4.576607403e-01,1.02265e-08,9.99999e-01,1.02265e-08,9.99999e-01
4.599490440e-01,1.47081e-08,9.99999e-01,1.47081e-08,9.99999e-01
4.622487892e-01,2.10023e-08,9.99999e-01,2.10023e-08,9.99999e-01
4.645600332e-01,2.97798e-08,9.99999e-01,2.97798e-08,9.99999e-01
4.668828333e-01,4.19353e-08,9.99999e-01,4.19353e-08,9.99999e-01
4.692172475e-01,5.86546e-08,9.99999e-01,5.86546e-08,9.99999e-01
4.715633337e-01,8.14978e-08,9.99999e-01,8.14978e-08,9.99999e-01
4.739211504e-01,1.12504e-07,9.99999e-01,1.12504e-07,9.99999e-01
4.762907561e-01,1.54321e-07,9.99999e-01,1.54321e-07,9.99999e-01
4.786722099e-01,2.10364e-07,9.99999e-01,2.10364e-07,9.99999e-01
4.810655710e-01,2.85009e-07,9.99999e-01,2.85009e-07,9.99999e-01
4.834708988e-01,3.83832e-07,9.99999e-01,3.83832e-07,9.99999e-01
4.858882533e-01,5.13890e-07,9.99999e-01,5.13890e-07,9.99999e-01
4.883176946e-01,6.84063e-07,9.99999e-01,6.84063e-07,9.99999e-01
4.907592831e-01,9.05458e-07,9.99999e-01,9.05458e-07,9.99999e-01
4.932130795e-01,1.19189e-06,9.99999e-01,1.19189e-06,9.99999e-01
4.956791449e-01,1.56043e-06,9.99999e-01,1.56043e-06,9.99999e-01
4.981575406e-01,2.03209e-06,9.99999e-01,2.03209e-06,9.99999e-01
5.006483283e-01,2.63254e-06,9.99999e-01,2.63254e-06,9.99999e-01
5.031515699e-01,3.39301e-06,9.99999e-01,3.39301e-06,9.99999e-01
5.056673278e-01,4.35131e-06,9.99999e-01,4.35131e-06,9.99999e-01
5.081956644e-01,5.55291e-06,9.99999e-01,5.55291e-06,9.99999e-01
5.107366428e-01,7.05228e-06,9.99999e-01,7.05228e-06,9.99999e-01
5.132903260e-01,8.91431e-06,9.99999e-01,8.91431e-06,9.99999e-01
5.158567776e-01,1.12159e-05,9.99999e-01,1.12159e-05,9.99999e-01
5.184360615e-01,1.40480e-05,9.99999e-01,1.40480e-05,9.99999e-01
5.210282418e-01,1.75170e-05,9.99999e-01,1.75170e-05,9.99999e-01
5.236333830e-01,2.17477e-05,9.99999e-01,2.17477e-05,9.99999e-01
5.262515499e-01,2.68851e-05,9.99999e-01,2.68851e-05,9.99999e-01
5.288828077e-01,3.30971e-05,9.99999e-01,3.30971e-05,9.99999e-01
5.315272217e-01,4.05775e-05,9.99999e-01,4.05775e-05,9.99999e-01
5.341848578e-01,4.95487e-05,9.99999e-01,4.95487e-05,9.99999e-01
5.368557821e-01,6.02652e-05,9.99999e-01,6.02652e-05,9.99999e-01
5.395400610e-01,7.30164e-05,9.99999e-01,7.30164e-05,9.99999e-01
5.422377613e-01,8.81309e-05,9.99999e-01,8.81309e-05,9.99999e-01
5.449489501e-01,1.05980e-04,9.99999e-01,1.05980e-04,9.99999e-01
5.476736949e-01,1.26980e-04,9.99999e-01,1.26980e-04,9.99999e-01
5.504120634e-01,1.51598e-04,9.99999e-01,1.51598e-04,9.99999e-01
5.531641237e-01,1.80358e-04,9.99999e-01,1.80358e-04,9.99999e-01
5.559299443e-01,2.13839e-04,9.99999e-01,2.13839e-04,9.99999e-01
5.587095940e-01,2.52683e-04,9.99999e-01,2.52683e-04,9.99999e-01
5.615031420e-01,2.97601e-04,9.99999e-01,2.97601e-04,9.99999e-01
5.643106577e-01,3.49372e-04,9.99999e-01,3.49372e-04,9.99999e-01
5.671322110e-01,4.08853e-04,9.99999e-01,4.08853e-04,9.99999e-01
5.699678720e-01,4.76976e-04,9.99999e-01,4.76976e-04,9.99999e-01
5.728177114e-01,5.54760e-04,9.99999e-01,5.54760e-04,9.99999e-01
5.756818000e-01,6.43305e-04,9.99999e-01,6.43305e-04,9.99999e-01
5.785602090e-01,7.43804e-04,9.99999e-01,7.43804e-04,9.99999e-01
5.814530100e-01,8.57541e-04,9.99999e-01,8.57541e-04,9.99999e-01
5.843602750e-01,9.85895e-04,9.99999e-01,9.85895e-04,9.99999e-01
5.872820764e-01,1.13034e-03,9.99999e-01,1.13034e-03,9.99999e-01
5.902184868e-01,1.29246e-03,9.99999e-01,1.29246e-03,9.99999e-01
5.931695792e-01,1.47392e-03,9.99999e-01,1.47392e-03,9.99999e-01
5.961354271e-01,1.67650e-03,9.99999e-01,1.67650e-03,9.99999e-01
5.991161043e-01,1.90207e-03,9.99999e-01,1.90207e-03,9.99999e-01
6.021116848e-01,2.15263e-03,9.99999e-01,2.15263e-03,9.99999e-01
6.051222432e-01,2.43025e-03,9.99999e-01,2.43025e-03,9.99999e-01
6.081478544e-01,2.73710e-03,9.99999e-01,2.73710e-03,9.99999e-01
6.111885937e-01,3.07546e-03,9.99999e-01,3.07546e-03,9.99999e-01
6.142445367e-01,3.44770e-03,9.99999e-01,3.44770e-03,9.99999e-01
6.173157594e-01,3.85629e-03,9.99999e-01,3.85629e-03,9.99999e-01
6.204023382e-01,4.30377e-03,9.99999e-01,4.30377e-03,9.99999e-01
6.235043498e-01,4.79277e-03,9.99999e-01,4.79277e-03,9.99999e-01
6.266218716e-01,5.32599e-03,9.99999e-01,5.32599e-03,9.99999e-01
6.297549810e-01,5.90622e-03,9.99999e-01,5.90622e-03,9.99999e-01
6.329037559e-01,6.53630e-03,9.99999e-01,6.53630e-03,9.99999e-01
6.360682746e-01,7.21912e-03,9.99999e-01,7.21912e-03,9.99999e-01
6.392486160e-01,7.95764e-03,9.99999e-01,7.95764e-03,9.99999e-01
6.424448591e-01,8.75486e-03,9.99999e-01,8.75486e-03,9.99999e-01
6.456570834e-01,9.61380e-03,9.99999e-01,9.61380e-03,9.99999e-01
6.488853688e-01,1.05375e-02,9.99999e-01,1.05375e-02,9.99999e-01
6.521297956e-01,1.15291e-02,9.99999e-01,1.15291e-02,9.99999e-01
6.553904446e-01,1.25915e-02,9.99999e-01,1.25915e-02,9.99999e-01
6.586673968e-01,1.37280e-02,9.99999e-01,1.37280e-02,9.99999e-01
6.619607338e-01,1.49415e-02,9.99999e-01,1.49415e-02,9.99999e-01
6.652705375e-01,1.62350e-02,9.99999e-01,1.62350e-02,9.99999e-01
6.685968902e-01,1.76117e-02,9.99999e-01,1.76117e-02,9.99999e-01
6.719398746e-01,1.90744e-02,9.99999e-01,1.90744e-02,9.99999e-01
6.752995740e-01,2.06261e-02,9.99999e-01,2.06261e-02,9.99999e-01
6.786760719e-01,2.22695e-02,9.99999e-01,2.22695e-02,9.99999e-01
6.820694522e-01,2.40075e-02,9.99999e-01,2.40075e-02,9.99999e-01
6.854797995e-01,2.58428e-02,9.99999e-01,2.58428e-02,9.99999e-01
6.889071985e-01,2.77779e-02,9.99999e-01,2.77779e-02,9.99999e-01
6.923517345e-01,2.98154e-02,9.99999e-01,2.98154e-02,9.99999e-01
6.958134932e-01,3.19576e-02,9.99999e-01,3.19576e-02,9.99999e-01
6.992925606e-01,3.42068e-02,9.99999e-01,3.42068e-02,9.99999e-01
7.027890234e-01,3.65652e-02,9.99999e-01,3.65652e-02,9.99999e-01
7.063029686e-01,3.90347e-02,9.99999e-01,3.90347e-02,9.99999e-01
7.098344834e-01,4.16172e-02,9.99999e-01,4.16172e-02,9.99999e-01
7.133836558e-01,4.43145e-02,9.99999e-01,4.43145e-02,9.99999e-01
7.169505741e-01,4.71281e-02,9.99999e-01,4.71281e-02,9.99999e-01
7.205353270e-01,5.00594e-02,9.99999e-01,5.00594e-02,9.99999e-01
7.241380036e-01,5.31097e-02,9.99999e-01,5.31097e-02,9.99999e-01
7.277586936e-01,5.62801e-02,9.99999e-01,5.62801e-02,9.99999e-01
7.313974871e-01,5.95715e-02,9.99999e-01,5.95715e-02,9.99999e-01
7.350544745e-01,6.29846e-02,9.99999e-01,6.29846e-02,9.99999e-01
7.387297469e-01,6.65201e-02,9.99999e-01,6.65201e-02,9.99999e-01
7.424233956e-01,7.01782e-02,9.99999e-01,7.01782e-02,9.99999e-01
7.461355126e-01,7.39593e-02,9.99999e-01,7.39593e-02,9.99999e-01
7.498661902e-01,7.78633e-02,9.99999e-01,7.78633e-02,9.99999e-01
7.536155211e-01,8.18902e-02,9.99999e-01,8.18902e-02,9.99999e-01
7.573835987e-01,8.60395e-02,9.99999e-01,8.60395e-02,9.99999e-01
7.611705167e-01,9.03110e-02,9.99999e-01,9.03110e-02,9.99999e-01
7.649763693e-01,9.47037e-02,9.99999e-01,9.47037e-02,9.99999e-01
7.688012511e-01,9.92171e-02,9.99999e-01,9.92171e-02,9.99999e-01
7.726452574e-01,1.03850e-01,9.99999e-01,1.03850e-01,9.99999e-01
7.765084837e-01,1.08601e-01,9.99999e-01,1.08601e-01,9.99999e-01
7.803910261e-01,1.03394e-01,9.11208e-01,1.13470e-01,9.99999e-01
7.842929812e-01,7.68351e-02,6.48651e-01,1.18453e-01,9.99999e-01
7.882144461e-01,7.79429e-02,6.30854e-01,1.23551e-01,9.99999e-01
7.921555184e-01,9.70309e-02,7.53570e-01,1.28761e-01,9.99999e-01
7.961162960e-01,1.10894e-01,8.27062e-01,1.34082e-01,9.99999e-01
8.000968774e-01,1.25819e-01,9.01858e-01,1.39510e-01,9.99999e-01
8.040973618e-01,1.37509e-01,9.48043e-01,1.45045e-01,9.99999e-01
8.081178486e-01,1.47017e-01,9.75671e-01,1.50683e-01,9.99999e-01
8.121584379e-01,1.55252e-01,9.92516e-01,1.56423e-01,9.99999e-01
8.162192301e-01,1.61992e-01,9.98341e-01,1.62261e-01,9.99999e-01
8.203003262e-01,1.68192e-01,9.99977e-01,1.68196e-01,9.99999e-01
8.244018279e-01,1.74224e-01,9.99999e-01,1.74224e-01,9.99999e-01
8.285238370e-01,1.80342e-01,9.99999e-01,1.80342e-01,9.99999e-01
8.326664562e-01,1.86548e-01,9.99999e-01,1.86548e-01,9.99999e-01
8.368297885e-01,1.92839e-01,9.99999e-01,1.92839e-01,9.99999e-01
8.410139374e-01,1.99211e-01,9.99999e-01,1.99211e-01,9.99999e-01
8.452190071e-01,2.05662e-01,9.99999e-01,2.05662e-01,9.99999e-01
8.494451021e-01,2.12188e-01,9.99999e-01,2.12188e-01,9.99999e-01
8.536923276e-01,2.18786e-01,9.99999e-01,2.18786e-01,9.99999e-01
8.579607893e-01,2.25453e-01,9.99999e-01,2.25453e-01,9.99999e-01
8.622505932e-01,2.32185e-01,9.99999e-01,2.32185e-01,9.99999e-01
8.665618462e-01,2.06688e-01,8.64876e-01,2.38980e-01,9.99999e-01
8.708946554e-01,8.41473e-02,3.42294e-01,2.45833e-01,9.99999e-01
8.752491287e-01,1.03946e-01,4.11275e-01,2.52741e-01,9.99999e-01
8.796253743e-01,1.57682e-01,6.07164e-01,2.59702e-01,9.99999e-01
8.840235012e-01,2.04962e-01,7.68480e-01,2.66711e-01,9.99999e-01
8.884436187e-01,2.46724e-01,9.01225e-01,2.73765e-01,9.99999e-01
8.928858368e-01,2.69224e-01,9.58569e-01,2.80861e-01,9.99999e-01
8.973502660e-01,2.85068e-01,9.89837e-01,2.87995e-01,9.99999e-01
9.018370173e-01,2.94833e-01,9.98879e-01,2.95164e-01,9.99999e-01
9.063462024e-01,2.93576e-01,9.70935e-01,3.02364e-01,9.99999e-01
9.108779334e-01,2.89574e-01,9.35337e-01,3.09593e-01,9.99999e-01
9.154323231e-01,3.11975e-01,9.84621e-01,3.16847e-01,9.99999e-01
9.200094847e-01,2.64036e-01,8.14616e-01,3.24122e-01,9.99999e-01
9.246095321e-01,2.39274e-01,7.21975e-01,3.31416e-01,9.99999e-01
9.292325798e-01,2.62789e-01,7.75818e-01,3.38725e-01,9.99999e-01
9.338787427e-01,2.70714e-01,7.82304e-01,3.46046e-01,9.99999e-01
9.385481364e-01,2.94607e-01,8.33690e-01,3.53376e-01,9.99999e-01
9.432408771e-01,3.22617e-01,8.94388e-01,3.60712e-01,9.99999e-01
9.479570815e-01,3.47501e-01,9.44166e-01,3.68051e-01,9.99999e-01
9.526968669e-01,3.65169e-01,9.72772e-01,3.75390e-01,9.99999e-01
9.574603512e-01,3.78235e-01,9.88267e-01,3.82725e-01,9.99999e-01
9.622476530e-01,3.88625e-01,9.96331e-01,3.90055e-01,9.99999e-01
9.670588912e-01,3.96941e-01,9.98901e-01,3.97377e-01,9.99999e-01
9.718941857e-01,4.04657e-01,9.99924e-01,4.04687e-01,9.99999e-01
9.767536566e-01,4.11983e-01,9.99999e-01,4.11983e-01,9.99999e-01
9.816374249e-01,4.19263e-01,9.99999e-01,4.19263e-01,9.99999e-01
9.865456120e-01,4.26524e-01,9.99999e-01,4.26524e-01,9.99999e-01
9.914783401e-01,4.33764e-01,9.99999e-01,4.33764e-01,9.99999e-01
9.964357318e-01,4.40979e-01,9.99999e-01,4.40979e-01,9.99999e-01
1.001417910e+00,4.48169e-01,9.99999e-01,4.48169e-01,9.99999e-01
1.006425000e+00,4.55330e-01,9.99999e-01,4.55330e-01,9.99999e-01
1.011457125e+00,4.62462e-01,9.99999e-01,4.62462e-01,9.99999e-01
1.016514411e+00,4.69560e-01,9.99999e-01,4.69560e-01,9.99999e-01
1.021596983e+00,4.76537e-01,9.99816e-01,4.76624e-01,9.99999e-01
1.026704968e+00,4.78025e-01,9.88365e-01,4.83652e-01,9.99999e-01
1.031838492e+00,4.42397e-01,9.01671e-01,4.90641e-01,9.99999e-01
1.036997685e+00,2.54985e-02,5.12438e-02,4.97591e-01,9.99999e-01
1.042182673e+00,2.00764e-03,3.97947e-03,5.04498e-01,9.99999e-01
1.047393587e+00,4.97238e-03,9.72377e-03,5.11363e-01,9.99999e-01
1.052630555e+00,7.30121e-07,1.40900e-06,5.18182e-01,9.99999e-01
1.057893707e+00,2.82087e-06,5.37355e-06,5.24955e-01,9.99999e-01
1.063183176e+00,6.61721e-05,1.24458e-04,5.31680e-01,9.99999e-01
1.068499092e+00,6.28597e-04,1.16762e-03,5.38356e-01,9.99999e-01
1.073841587e+00,7.10433e-03,1.30359e-02,5.44981e-01,9.99999e-01
1.079210795e+00,3.61544e-02,6.55499e-02,5.51555e-01,9.99999e-01
1.084606849e+00,1.19302e-01,2.13773e-01,5.58075e-01,9.99999e-01
1.090029883e+00,2.51416e-01,4.45345e-01,5.64542e-01,9.99999e-01
1.095480033e+00,3.82916e-01,6.70659e-01,5.70954e-01,9.99999e-01
1.100957433e+00,4.75712e-01,8.24015e-01,5.77309e-01,9.99999e-01
1.106462220e+00,5.38724e-01,9.23090e-01,5.83608e-01,9.99999e-01
1.111994531e+00,5.72587e-01,9.70734e-01,5.89849e-01,9.99999e-01
1.117554504e+00,5.91753e-01,9.92820e-01,5.96032e-01,9.99999e-01
1.123142276e+00,6.01873e-01,9.99530e-01,6.02155e-01,9.99999e-01
1.128757988e+00,6.08219e-01,9.99999e-01,6.08219e-01,9.99999e-01
1.134401778e+00,6.14222e-01,9.99999e-01,6.14222e-01,9.99999e-01
1.140073787e+00,6.20163e-01,9.99999e-01,6.20163e-01,9.99999e-01
1.145774156e+00,6.26044e-01,9.99999e-01,6.26044e-01,9.99999e-01
1.151503026e+00,6.31862e-01,9.99999e-01,6.31862e-01,9.99999e-01
1.157260541e+00,6.37618e-01,9.99999e-01,6.37618e-01,9.99999e-01
1.163046844e+00,6.43311e-01,9.99999e-01,6.43311e-01,9.99999e-01
1.168862078e+00,6.48941e-01,9.99999e-01,6.48941e-01,9.99999e-01
1.174706389e+00,6.54507e-01,9.99999e-01,6.54507e-01,9.99999e-01
1.180579921e+00,6.60010e-01,9.99999e-01,6.60010e-01,9.99999e-01
1.186482820e+00,6.65430e-01,9.99971e-01,6.65449e-01,9.99999e-01
1.192415234e+00,6.44095e-01,9.60154e-01,6.70824e-01,9.99999e-01
1.198377311e+00,3.49037e-01,5.16224e-01,6.76135e-01,9.99999e-01
1.204369197e+00,1.35920e-29,1.99476e-29,6.81382e-01,9.99999e-01
1.210391043e+00,1.00003e-119,1.45657e-119,6.86565e-01,9.99999e-01
1.216442998e+00,1.30936e-103,1.89300e-103,6.91684e-01,9.99999e-01
1.222525213e+00,4.69933e-102,6.74475e-102,6.96739e-01,9.99999e-01
1.228637839e+00,9.87547e-79,1.40730e-78,7.01729e-01,9.99999e-01
1.234781029e+00,5.40315e-49,7.64607e-49,7.06656e-01,9.99999e-01
1.240954934e+00,1.70871e-32,2.40149e-32,7.11519e-01,9.99999e-01
1.247159708e+00,1.11244e-15,1.55299e-15,7.16319e-01,9.99999e-01
1.253395507e+00,1.21162e-10,1.68034e-10,7.21055e-01,9.99999e-01
1.259662485e+00,2.21075e-06,3.04625e-06,7.25728e-01,9.99999e-01
1.265960797e+00,6.89945e-04,9.44692e-04,7.30338e-01,9.99999e-01
1.272290601e+00,2.78511e-02,3.78985e-02,7.34885e-01,9.99999e-01
1.278652054e+00,2.49222e-02,3.37073e-02,7.39371e-01,9.99999e-01
1.285045314e+00,2.86914e-05,3.85744e-05,7.43794e-01,9.99999e-01
1.291470541e+00,3.71659e-14,4.96767e-14,7.48155e-01,9.99999e-01
1.297927893e+00,3.43676e-05,4.56738e-05,7.52455e-01,9.99999e-01
1.304417533e+00,1.80149e-03,2.38074e-03,7.56694e-01,9.99999e-01
1.310939621e+00,3.32481e-04,4.36973e-04,7.60873e-01,9.99999e-01
1.317494319e+00,2.37715e-41,3.10742e-41,7.64991e-01,9.99999e-01
1.324081790e+00,5.02553e-19,6.53472e-19,7.69050e-01,9.99999e-01
1.330702199e+00,6.59952e-16,8.53699e-16,7.73049e-01,9.99999e-01
1.337355710e+00,1.96783e-14,2.53264e-14,7.76990e-01,9.99999e-01
1.344042489e+00,2.29718e-17,2.94181e-17,7.80872e-01,9.99999e-01
1.350762701e+00,3.39392e-16,4.32514e-16,7.84696e-01,9.99999e-01
1.357516515e+00,6.41517e-10,8.13628e-10,7.88463e-01,9.99999e-01
1.364304097e+00,2.63234e-07,3.32293e-07,7.92174e-01,9.99999e-01
1.371125618e+00,4.03694e-04,5.07263e-04,7.95827e-01,9.99999e-01
1.377981246e+00,1.12542e-03,1.40778e-03,7.99425e-01,9.99999e-01
1.384871152e+00,1.73308e-02,2.15834e-02,8.02968e-01,9.99999e-01
1.391795508e+00,2.37773e-02,2.94837e-02,8.06456e-01,9.99999e-01
1.398754485e+00,8.74247e-02,1.07946e-01,8.09890e-01,9.99999e-01
1.405748258e+00,1.61346e-01,1.98391e-01,8.13270e-01,9.99999e-01
1.412776999e+00,2.91670e-01,3.57177e-01,8.16597e-01,9.99999e-01
1.419840884e+00,2.69813e-01,3.29091e-01,8.19872e-01,9.99999e-01
1.426940089e+00,9.89438e-03,1.20209e-02,8.23094e-01,9.99999e-01
1.434074789e+00,0.00000e+00,0.00000e+00,8.26266e-01,9.99999e-01
1.441245163e+00,0.00000e+00,0.00000e+00,8.29386e-01,9.99999e-01
1.448451389e+00,0.00000e+00,0.00000e+00,8.32457e-01,9.99999e-01
1.455693646e+00,0.00000e+00,0.00000e+00,8.35477e-01,9.99999e-01
1.462972114e+00,0.00000e+00,0.00000e+00,8.38449e-01,9.99999e-01
1.470286975e+00,1.89881e-198,2.25680e-198,8.41372e-01,9.99999e-01
1.477638409e+00,1.75431e-124,2.07796e-124,8.44247e-01,9.99999e-01
1.485026601e+00,4.87605e-69,5.75633e-69,8.47076e-01,9.99999e-01
1.492451734e+00,9.02080e-59,1.06145e-58,8.49857e-01,9.99999e-01
1.499913993e+00,3.77695e-25,4.42995e-25,8.52592e-01,9.99999e-01
1.507413563e+00,6.64726e-24,7.77200e-24,8.55282e-01,9.99999e-01
1.514950631e+00,1.83340e-25,2.13701e-25,8.57927e-01,9.99999e-01
1.522525384e+00,2.67361e-88,3.10694e-88,8.60528e-01,9.99999e-01
1.530138011e+00,7.91386e-212,9.16927e-212,8.63085e-01,9.99999e-01
1.537788701e+00,1.62387e-156,1.87601e-156,8.65599e-01,9.99999e-01
1.545477645e+00,1.63761e-32,1.88650e-32,8.68070e-01,9.99999e-01
1.553205033e+00,9.02212e-24,1.03643e-23,8.70499e-01,9.99999e-01
1.560971058e+00,5.22280e-24,5.98336e-24,8.72887e-01,9.99999e-01
1.568775913e+00,0.00000e+00,0.00000e+00,8.75234e-01,9.99999e-01
1.576619793e+00,0.00000e+00,0.00000e+00,8.77541e-01,9.99999e-01
1.584502892e+00,0.00000e+00,0.00000e+00,8.79808e-01,9.99999e-01
1.592425406e+00,0.00000e+00,0.00000e+00,8.82037e-01,9.99999e-01
1.600387533e+00,0.00000e+00,0.00000e+00,8.84226e-01,9.99999e-01
1.608389471e+00,0.00000e+00,0.00000e+00,8.86378e-01,9.99999e-01
1.616431418e+00,0.00000e+00,0.00000e+00,8.88492e-01,9.99999e-01
1.624513575e+00,0.00000e+00,0.00000e+00,8.90569e-01,9.99999e-01
1.632636143e+00,0.00000e+00,0.00000e+00,8.92610e-01,9.99999e-01
1.640799324e+00,8.37497e-184,9.36152e-184,8.94616e-01,9.99999e-01
1.649003321e+00,8.38847e-184,9.35601e-184,8.96586e-01,9.99999e-01
1.657248337e+00,7.00350e-142,7.79447e-142,8.98521e-01,9.99999e-01
1.665534579e+00,7.80420e-143,8.66726e-143,9.00422e-01,9.99999e-01
1.673862252e+00,8.04286e-91,8.91382e-91,9.02289e-01,9.99999e-01
1.682231563e+00,1.13443e-62,1.25473e-62,9.04124e-01,9.99999e-01
1.690642721e+00,1.66089e-34,1.83336e-34,9.05926e-01,9.99999e-01
1.699095934e+00,6.65656e-22,7.33347e-22,9.07695e-01,9.99999e-01
1.707591414e+00,4.57452e-11,5.03007e-11,9.09433e-01,9.99999e-01
1.716129371e+00,8.37940e-07,9.19660e-07,9.11140e-01,9.99999e-01
1.724710018e+00,2.90893e-04,3.18676e-04,9.12816e-01,9.99999e-01
1.733333568e+00,4.01942e-03,4.39539e-03,9.14463e-01,9.99999e-01
1.742000236e+00,3.87755e-02,4.23276e-02,9.16079e-01,9.99999e-01
1.750710237e+00,8.85538e-05,9.64988e-05,9.17667e-01,9.99999e-01
1.759463788e+00,1.05976e-86,1.15288e-86,9.19225e-01,9.99999e-01
1.768261107e+00,9.35344e-91,1.01584e-90,9.20756e-01,9.99999e-01
1.777102413e+00,1.78216e-88,1.93238e-88,9.22259e-01,9.99999e-01
1.785987925e+00,9.57017e-83,1.03603e-82,9.23734e-01,9.99999e-01
1.794917864e+00,5.41646e-79,5.85447e-79,9.25183e-01,9.99999e-01
1.803892454e+00,6.98441e-76,7.53763e-76,9.26605e-01,9.99999e-01
1.812911916e+00,6.63575e-73,7.15058e-73,9.28001e-01,9.99999e-01
1.821976476e+00,5.73960e-73,6.17578e-73,9.29372e-01,9.99999e-01
1.831086358e+00,1.91514e-58,2.05771e-58,9.30717e-01,9.99999e-01
1.840241790e+00,9.98647e-50,1.07147e-49,9.32038e-01,9.99999e-01
1.849442999e+00,1.69564e-34,1.81675e-34,9.33335e-01,9.99999e-01
1.858690214e+00,1.73603e-32,1.85750e-32,9.34608e-01,9.99999e-01
1.867983665e+00,4.71528e-33,5.03845e-33,9.35857e-01,9.99999e-01
1.877323583e+00,2.27634e-166,2.42917e-166,9.37083e-01,9.99999e-01
