#,Wave/freq,Total,CO2,Rayleigh,CIA
4.000000000e-01,4.07519e-05,9.99999e-01,4.07519e-05,9.99999e-01
4.020000000e-01,4.97677e-05,9.99999e-01,4.97677e-05,9.99999e-01
4.040100000e-01,6.05262e-05,9.99999e-01,6.05262e-05,9.99999e-01
4.060300500e-01,7.33264e-05,9.99999e-01,7.33264e-05,9.99999e-01
4.080602003e-01,8.84977e-05,9.99999e-01,8.84977e-05,9.99999e-01
4.101005013e-01,1.06412e-04,9.99999e-01,1.06412e-04,9.99999e-01
4.121510038e-01,1.27487e-04,9.99999e-01,1.27487e-04,9.99999e-01
4.142117588e-01,1.52193e-04,9.99999e-01,1.52193e-04,9.99999e-01
4.162828176e-01,1.81051e-04,9.99999e-01,1.81051e-04,9.99999e-01
4.183642317e-01,2.14644e-04,9.99999e-01,2.14644e-04,9.99999e-01
4.204560528e-01,2.53616e-04,9.99999e-01,2.53616e-04,9.99999e-01
4.225583331e-01,2.98677e-04,9.99999e-01,2.98677e-04,9.99999e-01
4.246711247e-01,3.50611e-04,9.99999e-01,3.50611e-04,9.99999e-01
4.267944804e-01,4.10274e-04,9.99999e-01,4.10274e-04,9.99999e-01
4.289284528e-01,4.78602e-04,9.99999e-01,4.78602e-04,9.99999e-01
4.310730950e-01,5.56613e-04,9.99999e-01,5.56613e-04,9.99999e-01
4.332284605e-01,6.45411e-04,9.99999e-01,6.45411e-04,9.99999e-01
4.353946028e-01,7.46191e-04,9.99999e-01,7.46191e-04,9.99999e-01
4.375715758e-01,8.60239e-04,9.99999e-01,8.60239e-04,9.99999e-01
4.397594337e-01,9.88935e-04,9.99999e-01,9.88935e-04,9.99999e-01
4.419582309e-01,1.13376e-03,9.99999e-01,1.13376e-03,9.99999e-01
4.441680220e-01,1.29629e-03,9.99999e-01,1.29629e-03,9.99999e-01
4.463888621e-01,1.47820e-03,9.99999e-01,1.47820e-03,9.99999e-01
4.486208064e-01,1.68127e-03,9.99999e-01,1.68127e-03,9.99999e-01
4.508639105e-01,1.90738e-03,9.99999e-01,1.90738e-03,9.99999e-01
4.531182300e-01,2.15852e-03,9.99999e-01,2.15852e-03,9.99999e-01
4.553838212e-01,2.43676e-03,9.99999e-01,2.43676e-03,9.99999e-01
4.576607403e-01,2.74429e-03,9.99999e-01,2.74429e-03,9.99999e-01
4.599490440e-01,3.08338e-03,9.99999e-01,3.08338e-03,9.99999e-01
4.622487892e-01,3.45641e-03,9.99999e-01,3.45641e-03,9.99999e-01
4.645600332e-01,3.86584e-03,9.99999e-01,3.86584e-03,9.99999e-01
4.668828333e-01,4.31421e-03,9.99999e-01,4.31421e-03,9.99999e-01
4.692172475e-01,4.80416e-03,9.99999e-01,4.80416e-03,9.99999e-01
4.715633337e-01,5.33841e-03,9.99999e-01,5.33841e-03,9.99999e-01
4.739211504e-01,5.91972e-03,9.99999e-01,5.91972e-03,9.99999e-01
4.762907561e-01,6.55094e-03,9.99999e-01,6.55094e-03,9.99999e-01
4.786722099e-01,7.23497e-03,9.99999e-01,7.23497e-03,9.99999e-01
4.810655710e-01,7.97477e-03,9.99999e-01,7.97477e-03,9.99999e-01
4.834708988e-01,8.77333e-03,9.99999e-01,8.77333e-03,9.99999e-01
4.858882533e-01,9.63368e-03,9.99999e-01,9.63368e-03,9.99999e-01
4.883176946e-01,1.05589e-02,9.99999e-01,1.05589e-02,9.99999e-01
4.907592831e-01,1.15520e-02,9.99999e-01,1.15520e-02,9.99999e-01
4.932130795e-01,1.26160e-02,9.99999e-01,1.26160e-02,9.99999e-01
4.956791449e-01,1.37542e-02,9.99999e-01,1.37542e-02,9.99999e-01
4.981575406e-01,1.49694e-02,9.99999e-01,1.49694e-02,9.99999e-01
5.006483283e-01,1.62648e-02,9.99999e-01,1.62648e-02,9.99999e-01
5.031515699e-01,1.76434e-02,9.99999e-01,1.76434e-02,9.99999e-01
5.056673278e-01,1.91080e-02,9.99999e-01,1.91080e-02,9.99999e-01
5.081956644e-01,2.06617e-02,9.99999e-01,2.06617e-02,9.99999e-01
5.107366428e-01,2.23072e-02,9.99999e-01,2.23072e-02,9.99999e-01
5.132903260e-01,2.40474e-02,9.99999e-01,2.40474e-02,9.99999e-01
5.158567776e-01,2.58849e-02,9.99999e-01,2.58849e-02,9.99999e-01
5.184360615e-01,2.78222e-02,9.99999e-01,2.78222e-02,9.99999e-01
5.210282418e-01,2.98620e-02,9.99999e-01,2.98620e-02,9.99999e-01
5.236333830e-01,3.20066e-02,9.99999e-01,3.20066e-02,9.99999e-01
5.262515499e-01,3.42582e-02,9.99999e-01,3.42582e-02,9.99999e-01
5.288828077e-01,3.66190e-02,9.99999e-01,3.66190e-02,9.99999e-01
5.315272217e-01,3.90910e-02,9.99999e-01,3.90910e-02,9.99999e-01
5.341848578e-01,4.16761e-02,9.99999e-01,4.16761e-02,9.99999e-01
5.368557821e-01,4.43759e-02,9.99999e-01,4.43759e-02,9.99999e-01
5.395400610e-01,4.71922e-02,9.99999e-01,4.71922e-02,9.99999e-01
5.422377613e-01,5.01261e-02,9.99999e-01,5.01261e-02,9.99999e-01
5.449489501e-01,5.31791e-02,9.99999e-01,5.31791e-02,9.99999e-01
5.476736949e-01,5.63522e-02,9.99999e-01,5.63522e-02,9.99999e-01
5.504120634e-01,5.96463e-02,9.99999e-01,5.96463e-02,9.99999e-01
5.531641237e-01,6.30621e-02,9.99999e-01,6.30621e-02,9.99999e-01
5.559299443e-01,6.66003e-02,9.99999e-01,6.66003e-02,9.99999e-01
5.587095940e-01,7.02612e-02,9.99999e-01,7.02612e-02,9.99999e-01
5.615031420e-01,7.40450e-02,9.99999e-01,7.40450e-02,9.99999e-01
5.643106577e-01,7.79518e-02,9.99999e-01,7.79518e-02,9.99999e-01
5.671322110e-01,8.19814e-02,9.99999e-01,8.19814e-02,9.99999e-01
5.699678720e-01,8.61335e-02,9.99999e-01,8.61335e-02,9.99999e-01
5.728177114e-01,9.04076e-02,9.99999e-01,9.04076e-02,9.99999e-01
5.756818000e-01,9.48031e-02,9.99999e-01,9.48031e-02,9.99999e-01
5.785602090e-01,9.93191e-02,9.99999e-01,9.93191e-02,9.99999e-01
5.814530100e-01,1.03955e-01,9.99999e-01,1.03955e-01,9.99999e-01
5.843602750e-01,1.08709e-01,9.99999e-01,1.08709e-01,9.99999e-01
5.872820764e-01,1.13579e-01,9.99999e-01,1.13579e-01,9.99999e-01
5.902184868e-01,1.18566e-01,9.99999e-01,1.18566e-01,9.99999e-01
5.931695792e-01,1.23666e-01,9.99999e-01,1.23666e-01,9.99999e-01
5.961354271e-01,1.28879e-01,9.99999e-01,1.28879e-01,9.99999e-01
5.991161043e-01,1.34202e-01,9.99999e-01,1.34202e-01,9.99999e-01
6.021116848e-01,1.39633e-01,9.99999e-01,1.39633e-01,9.99999e-01
6.051222432e-01,1.45170e-01,9.99999e-01,1.45170e-01,9.99999e-01
6.081478544e-01,1.50810e-01,9.99999e-01,1.50810e-01,9.99999e-01
6.111885937e-01,1.56552e-01,9.99999e-01,1.56552e-01,9.99999e-01
6.142445367e-01,1.62393e-01,9.99999e-01,1.62393e-01,9.99999e-01
6.173157594e-01,1.68329e-01,9.99999e-01,1.68329e-01,9.99999e-01
6.204023382e-01,1.74359e-01,9.99999e-01,1.74359e-01,9.99999e-01
6.235043498e-01,1.80479e-01,9.99999e-01,1.80479e-01,9.99999e-01
6.266218716e-01,1.86688e-01,9.99999e-01,1.86688e-01,9.99999e-01
6.297549810e-01,1.92980e-01,9.99999e-01,1.92980e-01,9.99999e-01
6.329037559e-01,1.99354e-01,9.99999e-01,1.99354e-01,9.99999e-01
6.360682746e-01,2.05807e-01,9.99999e-01,2.05807e-01,9.99999e-01
6.392486160e-01,2.12334e-01,9.99999e-01,2.12334e-01,9.99999e-01
6.424448591e-01,2.18934e-01,9.99999e-01,2.18934e-01,9.99999e-01
6.456570834e-01,2.25602e-01,9.99999e-01,2.25602e-01,9.99999e-01
6.488853688e-01,2.32336e-01,9.99999e-01,2.32336e-01,9.99999e-01
6.521297956e-01,2.39132e-01,9.99999e-01,2.39132e-01,9.99999e-01
6.553904446e-01,2.45986e-01,9.99999e-01,2.45986e-01,9.99999e-01
6.586673968e-01,2.52896e-01,9.99999e-01,2.52896e-01,9.99999e-01
6.619607338e-01,2.59858e-01,9.99999e-01,2.59858e-01,9.99999e-01
6.652705375e-01,2.66868e-01,9.99999e-01,2.66868e-01,9.99999e-01
6.685968902e-01,2.73923e-01,9.99999e-01,2.73923e-01,9.99999e-01
6.719398746e-01,2.81019e-01,9.99999e-01,2.81019e-01,9.99999e-01
6.752995740e-01,2.88154e-01,9.99999e-01,2.88154e-01,9.99999e-01
6.786760719e-01,2.95324e-01,9.99999e-01,2.95324e-01,9.99999e-01
6.820694522e-01,3.02525e-01,9.99999e-01,3.02525e-01,9.99999e-01
6.854797995e-01,3.09755e-01,9.99999e-01,3.09755e-01,9.99999e-01
6.889071985e-01,3.17009e-01,9.99999e-01,3.17009e-01,9.99999e-01
6.923517345e-01,3.24285e-01,9.99999e-01,3.24285e-01,9.99999e-01
6.958134932e-01,3.31579e-01,9.99999e-01,3.31579e-01,9.99999e-01
6.992925606e-01,3.38888e-01,9.99999e-01,3.38888e-01,9.99999e-01
7.027890234e-01,3.46210e-01,9.99999e-01,3.46210e-01,9.99999e-01
7.063029686e-01,3.53540e-01,9.99999e-01,3.53540e-01,9.99999e-01
7.098344834e-01,3.60876e-01,9.99999e-01,3.60876e-01,9.99999e-01
7.133836558e-01,3.68215e-01,9.99999e-01,3.68215e-01,9.99999e-01
7.169505741e-01,3.75553e-01,9.99999e-01,3.75553e-01,9.99999e-01
7.205353270e-01,3.82889e-01,9.99999e-01,3.82889e-01,9.99999e-01
7.241380036e-01,3.90219e-01,9.99999e-01,3.90219e-01,9.99999e-01
7.277586936e-01,3.97540e-01,9.99999e-01,3.97540e-01,9.99999e-01
7.313974871e-01,4.04850e-01,9.99999e-01,4.04850e-01,9.99999e-01
7.350544745e-01,4.12146e-01,9.99999e-01,4.12146e-01,9.99999e-01
7.387297469e-01,4.19425e-01,9.99999e-01,4.19425e-01,9.99999e-01
7.424233956e-01,4.26686e-01,9.99999e-01,4.26686e-01,9.99999e-01
7.461355126e-01,4.33925e-01,9.99999e-01,4.33925e-01,9.99999e-01
7.498661902e-01,4.41140e-01,9.99999e-01,4.41140e-01,9.99999e-01
7.536155211e-01,4.48329e-01,9.99999e-01,4.48329e-01,9.99999e-01
7.573835987e-01,4.55490e-01,9.99999e-01,4.55490e-01,9.99999e-01
7.611705167e-01,4.62620e-01,9.99999e-01,4.62620e-01,9.99999e-01
7.649763693e-01,4.69718e-01,9.99999e-01,4.69718e-01,9.99999e-01
7.688012511e-01,4.76781e-01,9.99999e-01,4.76781e-01,9.99999e-01
7.726452574e-01,4.83808e-01,9.99999e-01,4.83808e-01,9.99999e-01
7.765084837e-01,4.90797e-01,9.99999e-01,4.90797e-01,9.99999e-01
7.803910261e-01,4.81180e-01,9.66718e-01,4.97745e-01,9.99999e-01
7.842929812e-01,4.35509e-01,8.62988e-01,5.04652e-01,9.99999e-01
7.882144461e-01,4.36715e-01,8.53766e-01,5.11515e-01,9.99999e-01
7.921555184e-01,4.72710e-01,9.11979e-01,5.18334e-01,9.99999e-01
7.961162960e-01,4.93760e-01,9.40306e-01,5.25105e-01,9.99999e-01
8.000968774e-01,5.14373e-01,9.67175e-01,5.31829e-01,9.99999e-01
8.040973618e-01,5.29286e-01,9.82881e-01,5.38504e-01,9.99999e-01
8.081178486e-01,5.40821e-01,9.92097e-01,5.45128e-01,9.99999e-01
8.121584379e-01,5.50354e-01,9.97559e-01,5.51701e-01,9.99999e-01
8.162192301e-01,5.57919e-01,9.99460e-01,5.58220e-01,9.99999e-01
8.203003262e-01,5.64681e-01,9.99991e-01,5.64686e-01,9.99999e-01
8.244018279e-01,5.71096e-01,9.99999e-01,5.71096e-01,9.99999e-01
8.285238370e-01,5.77450e-01,9.99999e-01,5.77450e-01,9.99999e-01
8.326664562e-01,5.83748e-01,9.99999e-01,5.83748e-01,9.99999e-01
8.368297885e-01,5.89988e-01,9.99999e-01,5.89988e-01,9.99999e-01
8.410139374e-01,5.96169e-01,9.99999e-01,5.96169e-01,9.99999e-01
8.452190071e-01,6.02291e-01,9.99999e-01,6.02291e-01,9.99999e-01
8.494451021e-01,6.08353e-01,9.99999e-01,6.08353e-01,9.99999e-01
8.536923276e-01,6.14355e-01,9.99999e-01,6.14355e-01,9.99999e-01
8.579607893e-01,6.20295e-01,9.99999e-01,6.20295e-01,9.99999e-01
8.622505932e-01,6.26174e-01,9.99999e-01,6.26174e-01,9.99999e-01
8.665618462e-01,5.85193e-01,9.25951e-01,6.31991e-01,9.99999e-01
8.708946554e-01,4.38269e-01,6.87215e-01,6.37745e-01,9.99999e-01
8.752491287e-01,4.75848e-01,7.39540e-01,6.43437e-01,9.99999e-01
8.796253743e-01,5.50009e-01,8.47385e-01,6.49066e-01,9.99999e-01
8.840235012e-01,6.00774e-01,9.17729e-01,6.54631e-01,9.99999e-01
8.884436187e-01,6.38197e-01,9.66770e-01,6.60132e-01,9.99999e-01
8.928858368e-01,6.56519e-01,9.86401e-01,6.65570e-01,9.99999e-01
8.973502660e-01,6.68721e-01,9.96687e-01,6.70943e-01,9.99999e-01
9.018370173e-01,6.76006e-01,9.99634e-01,6.76253e-01,9.99999e-01
9.063462024e-01,6.75076e-01,9.90575e-01,6.81499e-01,9.99999e-01
9.108779334e-01,6.71998e-01,9.78618e-01,6.86680e-01,9.99999e-01
9.154323231e-01,6.88307e-01,9.94954e-01,6.91797e-01,9.99999e-01
9.200094847e-01,6.47021e-01,9.28492e-01,6.96851e-01,9.99999e-01
9.246095321e-01,6.31356e-01,8.99572e-01,7.01840e-01,9.99999e-01
9.292325798e-01,6.50357e-01,9.20187e-01,7.06765e-01,9.99999e-01
9.338787427e-01,6.56790e-01,9.22941e-01,7.11627e-01,9.99999e-01
9.385481364e-01,6.75430e-01,9.42777e-01,7.16425e-01,9.99999e-01
9.432408771e-01,6.95632e-01,9.64600e-01,7.21160e-01,9.99999e-01
9.479570815e-01,7.12529e-01,9.81671e-01,7.25832e-01,9.99999e-01
9.526968669e-01,7.23959e-01,9.91126e-01,7.30440e-01,9.99999e-01
9.574603512e-01,7.32192e-01,9.96197e-01,7.34986e-01,9.99999e-01
9.622476530e-01,7.38592e-01,9.98812e-01,7.39470e-01,9.99999e-01
9.670588912e-01,7.43627e-01,9.99644e-01,7.43892e-01,9.99999e-01
9.718941857e-01,7.48233e-01,9.99974e-01,7.48252e-01,9.99999e-01
9.767536566e-01,7.52550e-01,9.99999e-01,7.52550e-01,9.99999e-01
9.816374249e-01,7.56788e-01,9.99999e-01,7.56788e-01,9.99999e-01
9.865456120e-01,7.60965e-01,9.99999e-01,7.60965e-01,9.99999e-01
9.914783401e-01,7.65082e-01,9.99999e-01,7.65082e-01,9.99999e-01
9.964357318e-01,7.69140e-01,9.99999e-01,7.69140e-01,9.99999e-01
1.001417910e+00,7.73138e-01,9.99999e-01,7.73138e-01,9.99999e-01
1.006425000e+00,7.77077e-01,9.99999e-01,7.77077e-01,9.99999e-01
1.011457125e+00,7.80958e-01,9.99999e-01,7.80958e-01,9.99999e-01
1.016514411e+00,7.84781e-01,9.99999e-01,7.84781e-01,9.99999e-01
1.021596983e+00,7.88506e-01,9.99948e-01,7.88547e-01,9.99999e-01
1.026704968e+00,7.89336e-01,9.96314e-01,7.92256e-01,9.99999e-01
1.031838492e+00,7.60580e-01,9.55612e-01,7.95908e-01,9.99999e-01
1.036997685e+00,1.24473e-01,1.55687e-01,7.99505e-01,9.99999e-01
1.042182673e+00,1.01094e-01,1.25888e-01,8.03047e-01,9.99999e-01
1.047393587e+00,1.18056e-01,1.46375e-01,8.06533e-01,9.99999e-01
1.052630555e+00,3.54899e-03,4.38165e-03,8.09966e-01,9.99999e-01
1.057893707e+00,8.98501e-03,1.10470e-02,8.13345e-01,9.99999e-01
1.063183176e+00,2.94646e-02,3.60789e-02,8.16671e-01,9.99999e-01
1.068499092e+00,8.15552e-02,9.94642e-02,8.19944e-01,9.99999e-01
1.073841587e+00,1.91607e-01,2.32768e-01,8.23166e-01,9.99999e-01
1.079210795e+00,3.28320e-01,3.97320e-01,8.26336e-01,9.99999e-01
1.084606849e+00,4.99203e-01,6.01844e-01,8.29455e-01,9.99999e-01
1.090029883e+00,6.39580e-01,7.68241e-01,8.32524e-01,9.99999e-01
1.095480033e+00,7.33796e-01,8.78224e-01,8.35544e-01,9.99999e-01
1.100957433e+00,7.87666e-01,9.39358e-01,8.38515e-01,9.99999e-01
1.106462220e+00,8.19958e-01,9.74473e-01,8.41437e-01,9.99999e-01
1.111994531e+00,8.36259e-01,9.90462e-01,8.44311e-01,9.99999e-01
1.117554504e+00,8.45162e-01,9.97666e-01,8.47138e-01,9.99999e-01
1.123142276e+00,8.49789e-01,9.99846e-01,8.49919e-01,9.99999e-01
1.128757988e+00,8.52653e-01,9.99999e-01,8.52653e-01,9.99999e-01
1.134401778e+00,8.55342e-01,9.99999e-01,8.55342e-01,9.99999e-01
1.140073787e+00,8.57986e-01,9.99999e-01,8.57986e-01,9.99999e-01
1.145774156e+00,8.60585e-01,9.99999e-01,8.60585e-01,9.99999e-01
1.151503026e+00,8.63141e-01,9.99999e-01,8.63141e-01,9.99999e-01
1.157260541e+00,8.65654e-01,9.99999e-01,8.65654e-01,9.99999e-01
1.163046844e+00,8.68125e-01,9.99999e-01,8.68125e-01,9.99999e-01
1.168862078e+00,8.70553e-01,9.99999e-01,8.70553e-01,9.99999e-01
1.174706389e+00,8.72940e-01,9.99999e-01,8.72940e-01,9.99999e-01
1.180579921e+00,8.75286e-01,9.99999e-01,8.75286e-01,9.99999e-01
1.186482820e+00,8.77586e-01,9.99992e-01,8.77592e-01,9.99999e-01
1.192415234e+00,8.68318e-01,9.86883e-01,8.79859e-01,9.99999e-01
1.198377311e+00,4.95604e-01,5.61854e-01,8.82086e-01,9.99999e-01
1.204369197e+00,5.14345e-11,5.81657e-11,8.84275e-01,9.99999e-01
1.210391043e+00,6.58038e-40,7.42349e-40,8.86425e-01,9.99999e-01
1.216442998e+00,9.64958e-35,1.08600e-34,8.88539e-01,9.99999e-01
1.222525213e+00,3.04421e-34,3.41810e-34,8.90615e-01,9.99999e-01
1.228637839e+00,1.60255e-26,1.79526e-26,8.92655e-01,9.99999e-01
1.234781029e+00,3.10833e-17,3.47431e-17,8.94660e-01,9.99999e-01
1.240954934e+00,1.21669e-11,1.35696e-11,8.96629e-01,9.99999e-01
1.247159708e+00,1.63265e-06,1.81696e-06,8.98564e-01,9.99999e-01
1.253395507e+00,3.38682e-04,3.76119e-04,9.00464e-01,9.99999e-01
1.259662485e+00,9.80828e-03,1.08699e-02,9.02331e-01,9.99999e-01
1.265960797e+00,6.61436e-02,7.31543e-02,9.04164e-01,9.99999e-01
1.272290601e+00,2.99785e-01,3.30901e-01,9.05965e-01,9.99999e-01
1.278652054e+00,2.55767e-01,2.81764e-01,9.07734e-01,9.99999e-01
1.285045314e+00,5.32711e-03,5.85736e-03,9.09472e-01,9.99999e-01
1.291470541e+00,2.28236e-05,2.50485e-05,9.11178e-01,9.99999e-01
1.297927893e+00,9.39240e-03,1.02890e-02,9.12853e-01,9.99999e-01
1.304417533e+00,1.22166e-01,1.33587e-01,9.14499e-01,9.99999e-01
1.310939621e+00,2.94577e-02,3.21550e-02,9.16115e-01,9.99999e-01
1.317494319e+00,3.46569e-14,3.77648e-14,9.17702e-01,9.99999e-01
1.324081790e+00,7.53105e-10,8.19251e-10,9.19260e-01,9.99999e-01
1.330702199e+00,7.96416e-06,8.64926e-06,9.20790e-01,9.99999e-01
1.337355710e+00,1.01326e-05,1.09863e-05,9.22292e-01,9.99999e-01
1.344042489e+00,3.03483e-06,3.28527e-06,9.23767e-01,9.99999e-01
1.350762701e+00,5.01986e-06,5.42562e-06,9.25215e-01,9.99999e-01
1.357516515e+00,3.91402e-04,4.22389e-04,9.26636e-01,9.99999e-01
1.364304097e+00,5.89723e-03,6.35455e-03,9.28032e-01,9.99999e-01
1.371125618e+00,6.65142e-02,7.15666e-02,9.29402e-01,9.99999e-01
1.377981246e+00,1.06925e-01,1.14880e-01,9.30747e-01,9.99999e-01
1.384871152e+00,2.64644e-01,2.83933e-01,9.32067e-01,9.99999e-01
1.391795508e+00,2.91677e-01,3.12501e-01,9.33363e-01,9.99999e-01
1.398754485e+00,4.55815e-01,4.87692e-01,9.34636e-01,9.99999e-01
1.405748258e+00,5.51707e-01,5.89502e-01,9.35884e-01,9.99999e-01
1.412776999e+00,6.71150e-01,7.16190e-01,9.37110e-01,9.99999e-01
1.419840884e+00,6.03505e-01,6.43180e-01,9.38313e-01,9.99999e-01
1.426940089e+00,5.64048e-02,6.00373e-02,9.39494e-01,9.99999e-01
1.434074789e+00,0.00000e+00,0.00000e+00,9.40653e-01,9.99999e-01
1.441245163e+00,0.00000e+00,0.00000e+00,9.41790e-01,9.99999e-01
1.448451389e+00,0.00000e+00,0.00000e+00,9.42907e-01,9.99999e-01
1.455693646e+00,4.59827e-320,4.87099e-320,9.44002e-01,9.99999e-01
1.462972114e+00,4.16149e-155,4.40333e-155,9.45077e-01,9.99999e-01
1.470286975e+00,3.79701e-65,4.01318e-65,9.46132e-01,9.99999e-01
1.477638409e+00,1.96232e-41,2.07178e-41,9.47168e-01,9.99999e-01
1.485026601e+00,1.31240e-23,1.38412e-23,9.48184e-01,9.99999e-01
1.492451734e+00,4.05763e-20,4.27488e-20,9.49181e-01,9.99999e-01
1.499913993e+00,1.75578e-09,1.84788e-09,9.50159e-01,9.99999e-01
1.507413563e+00,2.70012e-08,2.83888e-08,9.51119e-01,9.99999e-01
1.514950631e+00,1.08680e-09,1.14153e-09,9.52061e-01,9.99999e-01
1.522525384e+00,7.79921e-30,8.18397e-30,9.52985e-01,9.99999e-01
1.530138011e+00,2.06213e-69,2.16180e-69,9.53892e-01,9.99999e-01
1.537788701e+00,1.09435e-51,1.14617e-51,9.54782e-01,9.99999e-01
1.545477645e+00,5.96911e-12,6.24609e-12,9.55655e-01,9.99999e-01
1.553205033e+00,2.18613e-08,2.28552e-08,9.56512e-01,9.99999e-01
1.560971058e+00,6.25177e-09,6.53027e-09,9.57352e-01,9.99999e-01
1.568775913e+00,5.66941e-174,5.91686e-174,9.58177e-01,9.99999e-01
1.576619793e+00,0.00000e+00,0.00000e+00,9.58986e-01,9.99999e-01
1.584502892e+00,2.85827e-222,2.97804e-222,9.59779e-01,9.99999e-01
1.592425406e+00,3.82113e-155,3.97803e-155,9.60558e-01,9.99999e-01
1.600387533e+00,1.49695e-249,1.55718e-249,9.61322e-01,9.99999e-01
1.608389471e+00,0.00000e+00,0.00000e+00,9.62071e-01,9.99999e-01
1.616431418e+00,0.00000e+00,0.00000e+00,9.62806e-01,9.99999e-01
1.624513575e+00,7.22271e-197,7.49611e-197,9.63527e-01,9.99999e-01
1.632636143e+00,1.92586e-146,1.99729e-146,9.64234e-01,9.99999e-01
1.640799324e+00,1.88531e-60,1.95384e-60,9.64928e-01,9.99999e-01
1.649003321e+00,1.91449e-60,1.98267e-60,9.65609e-01,9.99999e-01
1.657248337e+00,5.54795e-47,5.74156e-47,9.66277e-01,9.99999e-01
1.665534579e+00,2.71660e-47,2.80951e-47,9.66932e-01,9.99999e-01
1.673862252e+00,1.42920e-30,1.47709e-30,9.67574e-01,9.99999e-01
1.682231563e+00,1.48761e-21,1.53646e-21,9.68204e-01,9.99999e-01
1.690642721e+00,1.49592e-12,1.54406e-12,9.68822e-01,9.99999e-01
1.699095934e+00,3.66382e-08,3.77935e-08,9.69429e-01,9.99999e-01
1.707591414e+00,1.13173e-04,1.16670e-04,9.70023e-01,9.99999e-01
1.716129371e+00,6.10875e-03,6.29374e-03,9.70607e-01,9.99999e-01
1.724710018e+00,6.01873e-02,6.19734e-02,9.71179e-01,9.99999e-01
1.733333568e+00,1.59725e-01,1.64370e-01,9.71740e-01,9.99999e-01
1.742000236e+00,3.27991e-01,3.37338e-01,9.72290e-01,9.99999e-01
1.750710237e+00,9.18599e-03,9.44253e-03,9.72830e-01,9.99999e-01
1.759463788e+00,3.52345e-29,3.61989e-29,9.73360e-01,9.99999e-01
1.768261107e+00,1.27120e-30,1.30529e-30,9.73879e-01,9.99999e-01
1.777102413e+00,1.82882e-29,1.87689e-29,9.74388e-01,9.99999e-01
1.785987925e+00,5.32391e-28,5.46104e-28,9.74888e-01,9.99999e-01
1.794917864e+00,1.10826e-26,1.13623e-26,9.75377e-01,9.99999e-01
1.803892454e+00,7.45439e-26,7.63880e-26,9.75858e-01,9.99999e-01
1.812911916e+00,9.37940e-25,9.60679e-25,9.76329e-01,9.99999e-01
1.821976476e+00,6.67362e-25,6.83218e-25,9.76791e-01,9.99999e-01
1.831086358e+00,3.00346e-20,3.07340e-20,9.77244e-01,9.99999e-01
1.840241790e+00,3.19656e-17,3.26951e-17,9.77689e-01,9.99999e-01
1.849442999e+00,4.48283e-12,4.58308e-12,9.78124e-01,9.99999e-01
1.858690214e+00,3.61088e-11,3.69002e-11,9.78552e-01,9.99999e-01
1.867983665e+00,5.83322e-12,5.95852e-12,9.78971e-01,9.99999e-01
1.877323583e+00,7.66533e-55,7.82669e-55,9.79382e-01,9.99999e-01
