#,Wave/freq,Total,CO2,Rayleigh,CIA
4.000000000e-01,5.72054e-03,9.99999e-01,5.72054e-03,9.99999e-01
4.020000000e-01,6.33547e-03,9.99999e-01,6.33547e-03,9.99999e-01
4.040100000e-01,7.00163e-03,9.99999e-01,7.00163e-03,9.99999e-01
4.060300500e-01,7.72257e-03,9.99999e-01,7.72257e-03,9.99999e-01
4.080602003e-01,8.50126e-03,9.99999e-01,8.50126e-03,9.99999e-01
4.101005013e-01,9.34074e-03,9.99999e-01,9.34074e-03,9.99999e-01
4.121510038e-01,1.02440e-02,9.99999e-01,1.02440e-02,9.99999e-01
4.142117588e-01,1.12142e-02,9.99999e-01,1.12142e-02,9.99999e-01
4.162828176e-01,1.22544e-02,9.99999e-01,1.22544e-02,9.99999e-01
4.183642317e-01,1.33676e-02,9.99999e-01,1.33676e-02,9.99999e-01
4.204560528e-01,1.45569e-02,9.99999e-01,1.45569e-02,9.99999e-01
4.225583331e-01,1.58253e-02,9.99999e-01,1.58253e-02,9.99999e-01
4.246711247e-01,1.71759e-02,9.99999e-01,1.71759e-02,9.99999e-01
4.267944804e-01,1.86116e-02,9.99999e-01,1.86116e-02,9.99999e-01
4.289284528e-01,2.01354e-02,9.99999e-01,2.01354e-02,9.99999e-01
4.310730950e-01,2.17501e-02,9.99999e-01,2.17501e-02,9.99999e-01
4.332284605e-01,2.34585e-02,9.99999e-01,2.34585e-02,9.99999e-01
4.353946028e-01,2.52633e-02,9.99999e-01,2.52633e-02,9.99999e-01
4.375715758e-01,2.71672e-02,9.99999e-01,2.71672e-02,9.99999e-01
4.397594337e-01,2.91727e-02,9.99999e-01,2.91727e-02,9.99999e-01
4.419582309e-01,3.12822e-02,9.99999e-01,3.12822e-02,9.99999e-01
4.441680220e-01,3.34980e-02,9.99999e-01,3.34980e-02,9.99999e-01
4.463888621e-01,3.58223e-02,9.99999e-01,3.58223e-02,9.99999e-01
4.486208064e-01,3.82571e-02,9.99999e-01,3.82571e-02,9.99999e-01
4.508639105e-01,4.08044e-02,9.99999e-01,4.08044e-02,9.99999e-01
4.531182300e-01,4.34659e-02,9.99999e-01,4.34659e-02,9.99999e-01
4.553838212e-01,4.62433e-02,9.99999e-01,4.62433e-02,9.99999e-01
4.576607403e-01,4.91380e-02,9.99999e-01,4.91380e-02,9.99999e-01
4.599490440e-01,5.21513e-02,9.99999e-01,5.21513e-02,9.99999e-01
4.622487892e-01,5.52844e-02,9.99999e-01,5.52844e-02,9.99999e-01
4.645600332e-01,5.85382e-02,9.99999e-01,5.85382e-02,9.99999e-01
4.668828333e-01,6.19135e-02,9.99999e-01,6.19135e-02,9.99999e-01
4.692172475e-01,6.54110e-02,9.99999e-01,6.54110e-02,9.99999e-01
4.715633337e-01,6.90310e-02,9.99999e-01,6.90310e-02,9.99999e-01
4.739211504e-01,7.27740e-02,9.99999e-01,7.27740e-02,9.99999e-01
4.762907561e-01,7.66399e-02,9.99999e-01,7.66399e-02,9.99999e-01
4.786722099e-01,8.06287e-02,9.99999e-01,8.06287e-02,9.99999e-01
4.810655710e-01,8.47402e-02,9.99999e-01,8.47402e-02,9.99999e-01
4.834708988e-01,8.89738e-02,9.99999e-01,8.89738e-02,9.99999e-01
4.858882533e-01,9.33290e-02,9.99999e-01,9.33290e-02,9.99999e-01
4.883176946e-01,9.78051e-02,9.99999e-01,9.78051e-02,9.99999e-01
4.907592831e-01,1.02401e-01,9.99999e-01,1.02401e-01,9.99999e-01
4.932130795e-01,1.07116e-01,9.99999e-01,1.07116e-01,9.99999e-01
4.956791449e-01,1.11948e-01,9.99999e-01,1.11948e-01,9.99999e-01
4.981575406e-01,1.16896e-01,9.99999e-01,1.16896e-01,9.99999e-01
5.006483283e-01,1.21959e-01,9.99999e-01,1.21959e-01,9.99999e-01
5.031515699e-01,1.27134e-01,9.99999e-01,1.27134e-01,9.99999e-01
5.056673278e-01,1.32421e-01,9.99999e-01,1.32421e-01,9.99999e-01
5.081956644e-01,1.37816e-01,9.99999e-01,1.37816e-01,9.99999e-01
5.107366428e-01,1.43318e-01,9.99999e-01,1.43318e-01,9.99999e-01
5.132903260e-01,1.48924e-01,9.99999e-01,1.48924e-01,9.99999e-01
5.158567776e-01,1.54633e-01,9.99999e-01,1.54633e-01,9.99999e-01
5.184360615e-01,1.60441e-01,9.99999e-01,1.60441e-01,9.99999e-01
5.210282418e-01,1.66346e-01,9.99999e-01,1.66346e-01,9.99999e-01
5.236333830e-01,1.72345e-01,9.99999e-01,1.72345e-01,9.99999e-01
5.262515499e-01,1.78436e-01,9.99999e-01,1.78436e-01,9.99999e-01
5.288828077e-01,1.84615e-01,9.99999e-01,1.84615e-01,9.99999e-01
5.315272217e-01,1.90880e-01,9.99999e-01,1.90880e-01,9.99999e-01
5.341848578e-01,1.97227e-01,9.99999e-01,1.97227e-01,9.99999e-01
5.368557821e-01,2.03654e-01,9.99999e-01,2.03654e-01,9.99999e-01
5.395400610e-01,2.10157e-01,9.99999e-01,2.10157e-01,9.99999e-01
5.422377613e-01,2.16733e-01,9.99999e-01,2.16733e-01,9.99999e-01
5.449489501e-01,2.23379e-01,9.99999e-01,2.23379e-01,9.99999e-01
5.476736949e-01,2.30092e-01,9.99999e-01,2.30092e-01,9.99999e-01
5.504120634e-01,2.36867e-01,9.99999e-01,2.36867e-01,9.99999e-01
5.531641237e-01,2.43702e-01,9.99999e-01,2.43702e-01,9.99999e-01
5.559299443e-01,2.50594e-01,9.99999e-01,2.50594e-01,9.99999e-01
5.587095940e-01,2.57539e-01,9.99999e-01,2.57539e-01,9.99999e-01
5.615031420e-01,2.64533e-01,9.99999e-01,2.64533e-01,9.99999e-01
5.643106577e-01,2.71573e-01,9.99999e-01,2.71573e-01,9.99999e-01
5.671322110e-01,2.78657e-01,9.99999e-01,2.78657e-01,9.99999e-01
5.699678720e-01,2.85779e-01,9.99999e-01,2.85779e-01,9.99999e-01
5.728177114e-01,2.92938e-01,9.99999e-01,2.92938e-01,9.99999e-01
5.756818000e-01,3.00129e-01,9.99999e-01,3.00129e-01,9.99999e-01
5.785602090e-01,3.07349e-01,9.99999e-01,3.07349e-01,9.99999e-01
5.814530100e-01,3.14596e-01,9.99999e-01,3.14596e-01,9.99999e-01
5.843602750e-01,3.21865e-01,9.99999e-01,3.21865e-01,9.99999e-01
5.872820764e-01,3.29153e-01,9.99999e-01,3.29153e-01,9.99999e-01
5.902184868e-01,3.36458e-01,9.99999e-01,3.36458e-01,9.99999e-01
5.931695792e-01,3.43776e-01,9.99999e-01,3.43776e-01,9.99999e-01
5.961354271e-01,3.51103e-01,9.99999e-01,3.51103e-01,9.99999e-01
5.991161043e-01,3.58438e-01,9.99999e-01,3.58438e-01,9.99999e-01
6.021116848e-01,3.65776e-01,9.99999e-01,3.65776e-01,9.99999e-01
6.051222432e-01,3.73115e-01,9.99999e-01,3.73115e-01,9.99999e-01
6.081478544e-01,3.80452e-01,9.99999e-01,3.80452e-01,9.99999e-01
6.111885937e-01,3.87784e-01,9.99999e-01,3.87784e-01,9.99999e-01
6.142445367e-01,3.95108e-01,9.99999e-01,3.95108e-01,9.99999e-01
6.173157594e-01,4.02422e-01,9.99999e-01,4.02422e-01,9.99999e-01
6.204023382e-01,4.09723e-01,9.99999e-01,4.09723e-01,9.99999e-01
6.235043498e-01,4.17008e-01,9.99999e-01,4.17008e-01,9.99999e-01
6.266218716e-01,4.24275e-01,9.99999e-01,4.24275e-01,9.99999e-01
6.297549810e-01,4.31522e-01,9.99999e-01,4.31522e-01,9.99999e-01
6.329037559e-01,4.38745e-01,9.99999e-01,4.38745e-01,9.99999e-01
6.360682746e-01,4.45943e-01,9.99999e-01,4.45943e-01,9.99999e-01
6.392486160e-01,4.53114e-01,9.99999e-01,4.53114e-01,9.99999e-01
6.424448591e-01,4.60254e-01,9.99999e-01,4.60254e-01,9.99999e-01
6.456570834e-01,4.67363e-01,9.99999e-01,4.67363e-01,9.99999e-01
6.488853688e-01,4.74438e-01,9.99999e-01,4.74438e-01,9.99999e-01
6.521297956e-01,4.81477e-01,9.99999e-01,4.81477e-01,9.99999e-01
6.553904446e-01,4.88479e-01,9.99999e-01,4.88479e-01,9.99999e-01
6.586673968e-01,4.95441e-01,9.99999e-01,4.95441e-01,9.99999e-01
6.619607338e-01,5.02362e-01,9.99999e-01,5.02362e-01,9.99999e-01
6.652705375e-01,5.09240e-01,9.99999e-01,5.09240e-01,9.99999e-01
6.685968902e-01,5.16073e-01,9.99999e-01,5.16073e-01,9.99999e-01
6.719398746e-01,5.22860e-01,9.99999e-01,5.22860e-01,9.99999e-01
6.752995740e-01,5.29600e-01,9.99999e-01,5.29600e-01,9.99999e-01
6.786760719e-01,5.36292e-01,9.99999e-01,5.36292e-01,9.99999e-01
6.820694522e-01,5.42933e-01,9.99999e-01,5.42933e-01,9.99999e-01
6.854797995e-01,5.49522e-01,9.99999e-01,5.49522e-01,9.99999e-01
6.889071985e-01,5.56060e-01,9.99999e-01,5.56060e-01,9.99999e-01
6.923517345e-01,5.62543e-01,9.99999e-01,5.62543e-01,9.99999e-01
6.958134932e-01,5.68972e-01,9.99999e-01,5.68972e-01,9.99999e-01
6.992925606e-01,5.75345e-01,9.99999e-01,5.75345e-01,9.99999e-01
7.027890234e-01,5.81662e-01,9.99999e-01,5.81662e-01,9.99999e-01
7.063029686e-01,5.87921e-01,9.99999e-01,5.87921e-01,9.99999e-01
7.098344834e-01,5.94122e-01,9.99999e-01,5.94122e-01,9.99999e-01
7.133836558e-01,6.00263e-01,9.99999e-01,6.00263e-01,9.99999e-01
7.169505741e-01,6.06345e-01,9.99999e-01,6.06345e-01,9.99999e-01
7.205353270e-01,6.12367e-01,9.99999e-01,6.12367e-01,9.99999e-01
7.241380036e-01,6.18328e-01,9.99999e-01,6.18328e-01,9.99999e-01
7.277586936e-01,6.24227e-01,9.99999e-01,6.24227e-01,9.99999e-01
7.313974871e-01,6.30065e-01,9.99999e-01,6.30065e-01,9.99999e-01
7.350544745e-01,6.35840e-01,9.99999e-01,6.35840e-01,9.99999e-01
7.387297469e-01,6.41553e-01,9.99999e-01,6.41553e-01,9.99999e-01
7.424233956e-01,6.47202e-01,9.99999e-01,6.47202e-01,9.99999e-01
7.461355126e-01,6.52788e-01,9.99999e-01,6.52788e-01,9.99999e-01
7.498661902e-01,6.58311e-01,9.99999e-01,6.58311e-01,9.99999e-01
7.536155211e-01,6.63770e-01,9.99999e-01,6.63770e-01,9.99999e-01
7.573835987e-01,6.69165e-01,9.99999e-01,6.69165e-01,9.99999e-01
7.611705167e-01,6.74496e-01,9.99999e-01,6.74496e-01,9.99999e-01
7.649763693e-01,6.79763e-01,9.99999e-01,6.79763e-01,9.99999e-01
7.688012511e-01,6.84965e-01,9.99999e-01,6.84965e-01,9.99999e-01
7.726452574e-01,6.90104e-01,9.99999e-01,6.90104e-01,9.99999e-01
7.765084837e-01,6.95179e-01,9.99999e-01,6.95179e-01,9.99999e-01
7.803910261e-01,6.87868e-01,9.82401e-01,7.00189e-01,9.99999e-01
7.842929812e-01,6.53115e-01,9.26225e-01,7.05136e-01,9.99999e-01
7.882144461e-01,6.53962e-01,9.21048e-01,7.10019e-01,9.99999e-01
7.921555184e-01,6.81863e-01,9.53870e-01,7.14838e-01,9.99999e-01
7.961162960e-01,6.97229e-01,9.68919e-01,7.19594e-01,9.99999e-01
8.000968774e-01,7.12009e-01,9.83048e-01,7.24286e-01,9.99999e-01
8.040973618e-01,7.22488e-01,9.91180e-01,7.28916e-01,9.99999e-01
8.081178486e-01,7.30510e-01,9.95947e-01,7.33482e-01,9.99999e-01
8.121584379e-01,7.37061e-01,9.98744e-01,7.37987e-01,9.99999e-01
8.162192301e-01,7.42223e-01,9.99722e-01,7.42429e-01,9.99999e-01
8.203003262e-01,7.46806e-01,9.99995e-01,7.46810e-01,9.99999e-01
8.244018279e-01,7.51129e-01,9.99999e-01,7.51129e-01,9.99999e-01
8.285238370e-01,7.55386e-01,9.99999e-01,7.55386e-01,9.99999e-01
8.326664562e-01,7.59584e-01,9.99999e-01,7.59584e-01,9.99999e-01
8.368297885e-01,7.63721e-01,9.99999e-01,7.63721e-01,9.99999e-01
8.410139374e-01,7.67798e-01,9.99999e-01,7.67798e-01,9.99999e-01
8.452190071e-01,7.71816e-01,9.99999e-01,7.71816e-01,9.99999e-01
8.494451021e-01,7.75774e-01,9.99999e-01,7.75774e-01,9.99999e-01
8.536923276e-01,7.79675e-01,9.99999e-01,7.79675e-01,9.99999e-01
8.579607893e-01,7.83517e-01,9.99999e-01,7.83517e-01,9.99999e-01
8.622505932e-01,7.87302e-01,9.99999e-01,7.87302e-01,9.99999e-01
8.665618462e-01,7.54322e-01,9.53594e-01,7.91029e-01,9.99999e-01
8.708946554e-01,6.52341e-01,8.20863e-01,7.94701e-01,9.99999e-01
8.752491287e-01,6.82226e-01,8.54581e-01,7.98316e-01,9.99999e-01
8.796253743e-01,7.36207e-01,9.18106e-01,8.01876e-01,9.99999e-01
8.840235012e-01,7.70655e-01,9.56882e-01,8.05381e-01,9.99999e-01
8.884436187e-01,7.94919e-01,9.82799e-01,8.08831e-01,9.99999e-01
8.928858368e-01,8.06548e-01,9.93006e-01,8.12228e-01,9.99999e-01
8.973502660e-01,8.14182e-01,9.98295e-01,8.15571e-01,9.99999e-01
9.018370173e-01,8.18708e-01,9.99811e-01,8.18862e-01,9.99999e-01
9.063462024e-01,8.18149e-01,9.95192e-01,8.22101e-01,9.99999e-01
9.108779334e-01,8.16199e-01,9.88986e-01,8.25288e-01,9.99999e-01
9.154323231e-01,8.26271e-01,9.97400e-01,8.28424e-01,9.99999e-01
9.200094847e-01,7.99733e-01,9.61783e-01,8.31510e-01,9.99999e-01
9.246095321e-01,7.90449e-01,9.47159e-01,8.34546e-01,9.99999e-01
9.292325798e-01,8.02556e-01,9.58237e-01,8.37533e-01,9.99999e-01
9.338787427e-01,8.06554e-01,9.59645e-01,8.40471e-01,9.99999e-01
9.385481364e-01,8.18277e-01,9.70256e-01,8.43361e-01,9.99999e-01
9.432408771e-01,8.30720e-01,9.81701e-01,8.46204e-01,9.99999e-01
9.479570815e-01,8.41001e-01,9.90578e-01,8.49000e-01,9.99999e-01
9.526968669e-01,8.47869e-01,9.95444e-01,8.51749e-01,9.99999e-01
9.574603512e-01,8.52787e-01,9.98049e-01,8.54453e-01,9.99999e-01
9.622476530e-01,8.56591e-01,9.99391e-01,8.57112e-01,9.99999e-01
9.670588912e-01,8.59570e-01,9.99817e-01,8.59726e-01,9.99999e-01
9.718941857e-01,8.62286e-01,9.99986e-01,8.62297e-01,9.99999e-01
9.767536566e-01,8.64824e-01,9.99999e-01,8.64824e-01,9.99999e-01
9.816374249e-01,8.67308e-01,9.99999e-01,8.67308e-01,9.99999e-01
9.865456120e-01,8.69751e-01,9.99999e-01,8.69751e-01,9.99999e-01
9.914783401e-01,8.72151e-01,9.99999e-01,8.72151e-01,9.99999e-01
9.964357318e-01,8.74511e-01,9.99999e-01,8.74511e-01,9.99999e-01
1.001417910e+00,8.76830e-01,9.99999e-01,8.76830e-01,9.99999e-01
1.006425000e+00,8.79110e-01,9.99999e-01,8.79110e-01,9.99999e-01
1.011457125e+00,8.81350e-01,9.99999e-01,8.81350e-01,9.99999e-01
1.016514411e+00,8.83552e-01,9.99999e-01,8.83552e-01,9.99999e-01
1.021596983e+00,8.85693e-01,9.99974e-01,8.85715e-01,9.99999e-01
1.026704968e+00,8.86182e-01,9.98131e-01,8.87841e-01,9.99999e-01
1.031838492e+00,8.66024e-01,9.73136e-01,8.89929e-01,9.99999e-01
1.036997685e+00,2.50334e-01,2.80649e-01,8.91981e-01,9.99999e-01
1.042182673e+00,2.95518e-01,3.30557e-01,8.93998e-01,9.99999e-01
1.047393587e+00,2.77375e-01,3.09577e-01,8.95979e-01,9.99999e-01
1.052630555e+00,3.94667e-02,4.39532e-02,8.97925e-01,9.99999e-01
1.057893707e+00,7.50277e-02,8.33792e-02,8.99836e-01,9.99999e-01
1.063183176e+00,1.48952e-01,1.65188e-01,9.01714e-01,9.99999e-01
1.068499092e+00,2.71292e-01,3.00248e-01,9.03559e-01,9.99999e-01
1.073841587e+00,4.23792e-01,4.68086e-01,9.05370e-01,9.99999e-01
1.079210795e+00,5.62027e-01,6.19552e-01,9.07150e-01,9.99999e-01
1.084606849e+00,6.99813e-01,7.69957e-01,9.08898e-01,9.99999e-01
1.090029883e+00,7.95379e-01,8.73452e-01,9.10614e-01,9.99999e-01
1.095480033e+00,8.53504e-01,9.35551e-01,9.12300e-01,9.99999e-01
1.100957433e+00,8.85132e-01,9.68461e-01,9.13956e-01,9.99999e-01
1.106462220e+00,9.03531e-01,9.86838e-01,9.15581e-01,9.99999e-01
1.111994531e+00,9.12687e-01,9.95103e-01,9.17178e-01,9.99999e-01
1.117554504e+00,9.17644e-01,9.98801e-01,9.18745e-01,9.99999e-01
1.123142276e+00,9.20212e-01,9.99920e-01,9.20284e-01,9.99999e-01
1.128757988e+00,9.21796e-01,9.99999e-01,9.21796e-01,9.99999e-01
1.134401778e+00,9.23280e-01,9.99999e-01,9.23280e-01,9.99999e-01
1.140073787e+00,9.24736e-01,9.99999e-01,9.24736e-01,9.99999e-01
1.145774156e+00,9.26167e-01,9.99999e-01,9.26167e-01,9.99999e-01
1.151503026e+00,9.27571e-01,9.99999e-01,9.27571e-01,9.99999e-01
1.157260541e+00,9.28950e-01,9.99999e-01,9.28950e-01,9.99999e-01
1.163046844e+00,9.30303e-01,9.99999e-01,9.30303e-01,9.99999e-01
1.168862078e+00,9.31631e-01,9.99999e-01,9.31631e-01,9.99999e-01
1.174706389e+00,9.32935e-01,9.99999e-01,9.32935e-01,9.99999e-01
1.180579921e+00,9.34216e-01,9.99999e-01,9.34216e-01,9.99999e-01
1.186482820e+00,9.35469e-01,9.99996e-01,9.35472e-01,9.99999e-01
1.192415234e+00,9.30427e-01,9.93296e-01,9.36705e-01,9.99999e-01
1.198377311e+00,5.48301e-01,5.84595e-01,9.37916e-01,9.99999e-01
1.204369197e+00,1.00183e-06,1.06680e-06,9.39104e-01,9.99999e-01
1.210391043e+00,1.73932e-21,1.84981e-21,9.40270e-01,9.99999e-01
1.216442998e+00,7.64585e-19,8.12165e-19,9.41415e-01,9.99999e-01
1.222525213e+00,1.42671e-18,1.51369e-18,9.42538e-01,9.99999e-01
1.228637839e+00,2.71397e-14,2.87606e-14,9.43640e-01,9.99999e-01
1.234781029e+00,6.93755e-10,7.34347e-10,9.44722e-01,9.99999e-01
1.240954934e+00,1.01299e-06,1.07106e-06,9.45784e-01,9.99999e-01
1.247159708e+00,4.30942e-04,4.55143e-04,9.46826e-01,9.99999e-01
1.253395507e+00,1.34840e-02,1.42258e-02,9.47848e-01,9.99999e-01
1.259662485e+00,8.48318e-02,8.94046e-02,9.48852e-01,9.99999e-01
1.265960797e+00,2.34001e-01,2.46359e-01,9.49836e-01,9.99999e-01
1.272290601e+00,5.35232e-01,5.62926e-01,9.50802e-01,9.99999e-01
1.278652054e+00,4.74204e-01,4.98244e-01,9.51750e-01,9.99999e-01
1.285045314e+00,3.76358e-02,3.95051e-02,9.52680e-01,9.99999e-01
1.291470541e+00,3.28296e-03,3.44272e-03,9.53593e-01,9.99999e-01
1.297927893e+00,4.02368e-02,4.21553e-02,9.54488e-01,9.99999e-01
1.304417533e+00,3.37253e-01,3.53008e-01,9.55367e-01,9.99999e-01
1.310939621e+00,9.56325e-02,1.00010e-01,9.56229e-01,9.99999e-01
1.317494319e+00,7.97493e-08,8.33261e-08,9.57075e-01,9.99999e-01
1.324081790e+00,8.91250e-06,9.30415e-06,9.57904e-01,9.99999e-01
1.330702199e+00,2.03745e-03,2.12518e-03,9.58718e-01,9.99999e-01
1.337355710e+00,1.47011e-03,1.53213e-03,9.59517e-01,9.99999e-01
1.344042489e+00,5.03723e-04,5.24547e-04,9.60301e-01,9.99999e-01
1.350762701e+00,1.55437e-03,1.61734e-03,9.61069e-01,9.99999e-01
1.357516515e+00,1.39551e-02,1.45090e-02,9.61823e-01,9.99999e-01
1.364304097e+00,6.90258e-02,7.17103e-02,9.62563e-01,9.99999e-01
1.371125618e+00,2.39004e-01,2.48112e-01,9.63289e-01,9.99999e-01
1.377981246e+00,3.16900e-01,3.28734e-01,9.64001e-01,9.99999e-01
1.384871152e+00,5.04714e-01,5.23183e-01,9.64699e-01,9.99999e-01
1.391795508e+00,5.30787e-01,5.49819e-01,9.65384e-01,9.99999e-01
1.398754485e+00,6.68894e-01,6.92396e-01,9.66056e-01,9.99999e-01
1.405748258e+00,7.36899e-01,7.62270e-01,9.66715e-01,9.99999e-01
1.412776999e+00,8.15211e-01,8.42715e-01,9.67362e-01,9.99999e-01
1.419840884e+00,7.55707e-01,7.80691e-01,9.67996e-01,9.99999e-01
1.426940089e+00,1.00536e-01,1.03793e-01,9.68618e-01,9.99999e-01
1.434074789e+00,2.99129e-303,3.08625e-303,9.69228e-01,9.99999e-01
1.441245163e+00,0.00000e+00,0.00000e+00,9.69827e-01,9.99999e-01
1.448451389e+00,0.00000e+00,0.00000e+00,9.70414e-01,9.99999e-01
1.455693646e+00,1.35413e-164,1.39459e-164,9.70990e-01,9.99999e-01
1.462972114e+00,2.47973e-80,2.55233e-80,9.71555e-01,9.99999e-01
1.470286975e+00,2.23450e-34,2.29861e-34,9.72109e-01,9.99999e-01
1.477638409e+00,3.03107e-22,3.11629e-22,9.72652e-01,9.99999e-01
1.485026601e+00,5.12832e-13,5.26962e-13,9.73185e-01,9.99999e-01
1.492451734e+00,4.36561e-11,4.48348e-11,9.73707e-01,9.99999e-01
1.499913993e+00,9.54886e-06,9.80153e-06,9.74220e-01,9.99999e-01
1.507413563e+00,1.20781e-04,1.23913e-04,9.74723e-01,9.99999e-01
1.514950631e+00,5.19176e-06,5.32370e-06,9.75216e-01,9.99999e-01
1.522525384e+00,2.45612e-16,2.51729e-16,9.75699e-01,9.99999e-01
1.530138011e+00,1.90006e-36,1.94644e-36,9.76173e-01,9.99999e-01
1.537788701e+00,2.09630e-27,2.14644e-27,9.76639e-01,9.99999e-01
1.545477645e+00,3.35846e-07,3.43719e-07,9.77095e-01,9.99999e-01
1.553205033e+00,9.56573e-05,9.78548e-05,9.77542e-01,9.99999e-01
1.560971058e+00,2.49387e-05,2.55002e-05,9.77981e-01,9.99999e-01
1.568775913e+00,5.72338e-90,5.84967e-90,9.78411e-01,9.99999e-01
1.576619793e+00,3.57930e-209,3.65670e-209,9.78833e-01,9.99999e-01
1.584502892e+00,1.22111e-114,1.24699e-114,9.79246e-01,9.99999e-01
1.592425406e+00,3.24905e-80,3.31653e-80,9.79652e-01,9.99999e-01
1.600387533e+00,1.41666e-128,1.44550e-128,9.80050e-01,9.99999e-01
1.608389471e+00,3.14928e-215,3.21210e-215,9.80440e-01,9.99999e-01
1.616431418e+00,1.40630e-216,1.43380e-216,9.80823e-01,9.99999e-01
1.624513575e+00,1.15512e-101,1.17725e-101,9.81198e-01,9.99999e-01
1.632636143e+00,6.97047e-76,7.10137e-76,9.81566e-01,9.99999e-01
1.640799324e+00,5.58073e-32,5.68344e-32,9.81927e-01,9.99999e-01
1.649003321e+00,6.58211e-32,6.70084e-32,9.82280e-01,9.99999e-01
1.657248337e+00,5.70089e-25,5.80167e-25,9.82627e-01,9.99999e-01
1.665534579e+00,3.86631e-25,3.93330e-25,9.82968e-01,9.99999e-01
1.673862252e+00,1.50828e-16,1.53389e-16,9.83301e-01,9.99999e-01
1.682231563e+00,6.53536e-12,6.64413e-12,9.83628e-01,9.99999e-01
1.690642721e+00,2.46431e-07,2.50450e-07,9.83949e-01,9.99999e-01
1.699095934e+00,8.44044e-05,8.57537e-05,9.84264e-01,9.99999e-01
1.707591414e+00,6.55785e-03,6.66060e-03,9.84572e-01,9.99999e-01
1.716129371e+00,6.44357e-02,6.54253e-02,9.84874e-01,9.99999e-01
1.724710018e+00,2.30322e-01,2.33789e-01,9.85171e-01,9.99999e-01
1.733333568e+00,3.88406e-01,3.94136e-01,9.85462e-01,9.99999e-01
1.742000236e+00,5.52078e-01,5.60060e-01,9.85747e-01,9.99999e-01
1.750710237e+00,3.87724e-02,3.93218e-02,9.86026e-01,9.99999e-01
1.759463788e+00,9.67128e-16,9.80560e-16,9.86300e-01,9.99999e-01
1.768261107e+00,9.75887e-17,9.89171e-17,9.86569e-01,9.99999e-01
1.777102413e+00,1.17396e-15,1.18962e-15,9.86833e-01,9.99999e-01
1.785987925e+00,2.99722e-15,3.03641e-15,9.87091e-01,9.99999e-01
1.794917864e+00,2.62868e-14,2.66237e-14,9.87344e-01,9.99999e-01
1.803892454e+00,2.84315e-14,2.87887e-14,9.87593e-01,9.99999e-01
1.812911916e+00,1.74903e-13,1.77057e-13,9.87836e-01,9.99999e-01
1.821976476e+00,1.02069e-13,1.03300e-13,9.88075e-01,9.99999e-01
1.831086358e+00,2.56769e-11,2.59806e-11,9.88309e-01,9.99999e-01
1.840241790e+00,1.46516e-09,1.48214e-09,9.88539e-01,9.99999e-01
1.849442999e+00,8.87528e-07,8.97612e-07,9.88764e-01,9.99999e-01
1.858690214e+00,4.10191e-06,4.14760e-06,9.88985e-01,9.99999e-01
1.867983665e+00,6.63865e-07,6.71112e-07,9.89201e-01,9.99999e-01
1.877323583e+00,5.39767e-29,5.45542e-29,9.89413e-01,9.99999e-01
