#,Wave/freq,Total,CO2,Rayleigh,CIA
4.000000000e-01,2.91854e-03,9.99999e-01,2.91854e-03,9.99999e-01
4.020000000e-01,3.27557e-03,9.99999e-01,3.27557e-03,9.99999e-01
4.040100000e-01,3.66747e-03,9.99999e-01,3.66747e-03,9.99999e-01
4.060300500e-01,4.09710e-03,9.99999e-01,4.09710e-03,9.99999e-01
4.080602003e-01,4.56705e-03,9.99999e-01,4.56705e-03,9.99999e-01
4.101005013e-01,5.08000e-03,9.99999e-01,5.08000e-03,9.99999e-01
4.121510038e-01,5.63870e-03,9.99999e-01,5.63870e-03,9.99999e-01
4.142117588e-01,6.24595e-03,9.99999e-01,6.24595e-03,9.99999e-01
4.162828176e-01,6.90464e-03,9.99999e-01,6.90464e-03,9.99999e-01
4.183642317e-01,7.61769e-03,9.99999e-01,7.61769e-03,9.99999e-01
4.204560528e-01,8.38808e-03,9.99999e-01,8.38808e-03,9.99999e-01
4.225583331e-01,9.21882e-03,9.99999e-01,9.21882e-03,9.99999e-01
4.246711247e-01,1.01130e-02,9.99999e-01,1.01130e-02,9.99999e-01
4.267944804e-01,1.10735e-02,9.99999e-01,1.10735e-02,9.99999e-01
4.289284528e-01,1.21037e-02,9.99999e-01,1.21037e-02,9.99999e-01
4.310730950e-01,1.32064e-02,9.99999e-01,1.32064e-02,9.99999e-01
4.332284605e-01,1.43848e-02,9.99999e-01,1.43848e-02,9.99999e-01
4.353946028e-01,1.56419e-02,9.99999e-01,1.56419e-02,9.99999e-01
4.375715758e-01,1.69807e-02,9.99999e-01,1.69807e-02,9.99999e-01
4.397594337e-01,1.84043e-02,9.99999e-01,1.84043e-02,9.99999e-01
4.419582309e-01,1.99155e-02,9.99999e-01,1.99155e-02,9.99999e-01
4.441680220e-01,2.15172e-02,9.99999e-01,2.15172e-02,9.99999e-01
4.463888621e-01,2.32123e-02,9.99999e-01,2.32123e-02,9.99999e-01
4.486208064e-01,2.50034e-02,9.99999e-01,2.50034e-02,9.99999e-01
4.508639105e-01,2.68932e-02,9.99999e-01,2.68932e-02,9.99999e-01
4.531182300e-01,2.88842e-02,9.99999e-01,2.88842e-02,9.99999e-01
4.553838212e-01,3.09789e-02,9.99999e-01,3.09789e-02,9.99999e-01
4.576607403e-01,3.31797e-02,9.99999e-01,3.31797e-02,9.99999e-01
4.599490440e-01,3.54885e-02,9.99999e-01,3.54885e-02,9.99999e-01
4.622487892e-01,3.79077e-02,9.99999e-01,3.79077e-02,9.99999e-01
4.645600332e-01,4.04391e-02,9.99999e-01,4.04391e-02,9.99999e-01
4.668828333e-01,4.30844e-02,9.99999e-01,4.30844e-02,9.99999e-01
4.692172475e-01,4.58454e-02,9.99999e-01,4.58454e-02,9.99999e-01
4.715633337e-01,4.87235e-02,9.99999e-01,4.87235e-02,9.99999e-01
4.739211504e-01,5.17201e-02,9.99999e-01,5.17201e-02,9.99999e-01
4.762907561e-01,5.48362e-02,9.99999e-01,5.48362e-02,9.99999e-01
4.786722099e-01,5.80730e-02,9.99999e-01,5.80730e-02,9.99999e-01
4.810655710e-01,6.14311e-02,9.99999e-01,6.14311e-02,9.99999e-01
4.834708988e-01,6.49114e-02,9.99999e-01,6.49114e-02,9.99999e-01
4.858882533e-01,6.85142e-02,9.99999e-01,6.85142e-02,9.99999e-01
4.883176946e-01,7.22398e-02,9.99999e-01,7.22398e-02,9.99999e-01
4.907592831e-01,7.60884e-02,9.99999e-01,7.60884e-02,9.99999e-01
4.932130795e-01,8.00600e-02,9.99999e-01,8.00600e-02,9.99999e-01
4.956791449e-01,8.41542e-02,9.99999e-01,8.41542e-02,9.99999e-01
4.981575406e-01,8.83706e-02,9.99999e-01,8.83706e-02,9.99999e-01
5.006483283e-01,9.27088e-02,9.99999e-01,9.27088e-02,9.99999e-01
5.031515699e-01,9.71679e-02,9.99999e-01,9.71679e-02,9.99999e-01
5.056673278e-01,1.01747e-01,9.99999e-01,1.01747e-01,9.99999e-01
5.081956644e-01,1.06445e-01,9.99999e-01,1.06445e-01,9.99999e-01
5.107366428e-01,1.11261e-01,9.99999e-01,1.11261e-01,9.99999e-01
5.132903260e-01,1.16193e-01,9.99999e-01,1.16193e-01,9.99999e-01
5.158567776e-01,1.21240e-01,9.99999e-01,1.21240e-01,9.99999e-01
5.184360615e-01,1.26399e-01,9.99999e-01,1.26399e-01,9.99999e-01
5.210282418e-01,1.31670e-01,9.99999e-01,1.31670e-01,9.99999e-01
5.236333830e-01,1.37050e-01,9.99999e-01,1.37050e-01,9.99999e-01
5.262515499e-01,1.42537e-01,9.99999e-01,1.42537e-01,9.99999e-01
5.288828077e-01,1.48129e-01,9.99999e-01,1.48129e-01,9.99999e-01
5.315272217e-01,1.53823e-01,9.99999e-01,1.53823e-01,9.99999e-01
5.341848578e-01,1.59618e-01,9.99999e-01,1.59618e-01,9.99999e-01
5.368557821e-01,1.65509e-01,9.99999e-01,1.65509e-01,9.99999e-01
5.395400610e-01,1.71495e-01,9.99999e-01,1.71495e-01,9.99999e-01
5.422377613e-01,1.77573e-01,9.99999e-01,1.77573e-01,9.99999e-01
5.449489501e-01,1.83740e-01,9.99999e-01,1.83740e-01,9.99999e-01
5.476736949e-01,1.89993e-01,9.99999e-01,1.89993e-01,9.99999e-01
5.504120634e-01,1.96329e-01,9.99999e-01,1.96329e-01,9.99999e-01
5.531641237e-01,2.02745e-01,9.99999e-01,2.02745e-01,9.99999e-01
5.559299443e-01,2.09237e-01,9.99999e-01,2.09237e-01,9.99999e-01
5.587095940e-01,2.15804e-01,9.99999e-01,2.15804e-01,9.99999e-01
5.615031420e-01,2.22440e-01,9.99999e-01,2.22440e-01,9.99999e-01
5.643106577e-01,2.29143e-01,9.99999e-01,2.29143e-01,9.99999e-01
5.671322110e-01,2.35910e-01,9.99999e-01,2.35910e-01,9.99999e-01
5.699678720e-01,2.42737e-01,9.99999e-01,2.42737e-01,9.99999e-01
5.728177114e-01,2.49621e-01,9.99999e-01,2.49621e-01,9.99999e-01
5.756818000e-01,2.56558e-01,9.99999e-01,2.56558e-01,9.99999e-01
5.785602090e-01,2.63546e-01,9.99999e-01,2.63546e-01,9.99999e-01
5.814530100e-01,2.70580e-01,9.99999e-01,2.70580e-01,9.99999e-01
5.843602750e-01,2.77657e-01,9.99999e-01,2.77657e-01,9.99999e-01
5.872820764e-01,2.84775e-01,9.99999e-01,2.84775e-01,9.99999e-01
5.902184868e-01,2.91928e-01,9.99999e-01,2.91928e-01,9.99999e-01
5.931695792e-01,2.99115e-01,9.99999e-01,2.99115e-01,9.99999e-01
5.961354271e-01,3.06332e-01,9.99999e-01,3.06332e-01,9.99999e-01
5.991161043e-01,3.13575e-01,9.99999e-01,3.13575e-01,9.99999e-01
6.021116848e-01,3.20841e-01,9.99999e-01,3.20841e-01,9.99999e-01
6.051222432e-01,3.28127e-01,9.99999e-01,3.28127e-01,9.99999e-01
6.081478544e-01,3.35429e-01,9.99999e-01,3.35429e-01,9.99999e-01
6.111885937e-01,3.42745e-01,9.99999e-01,3.42745e-01,9.99999e-01
6.142445367e-01,3.50071e-01,9.99999e-01,3.50071e-01,9.99999e-01
6.173157594e-01,3.57405e-01,9.99999e-01,3.57405e-01,9.99999e-01
6.204023382e-01,3.64743e-01,9.99999e-01,3.64743e-01,9.99999e-01
6.235043498e-01,3.72082e-01,9.99999e-01,3.72082e-01,9.99999e-01
6.266218716e-01,3.79420e-01,9.99999e-01,3.79420e-01,9.99999e-01
6.297549810e-01,3.86753e-01,9.99999e-01,3.86753e-01,9.99999e-01
6.329037559e-01,3.94078e-01,9.99999e-01,3.94078e-01,9.99999e-01
6.360682746e-01,4.01394e-01,9.99999e-01,4.01394e-01,9.99999e-01
6.392486160e-01,4.08697e-01,9.99999e-01,4.08697e-01,9.99999e-01
6.424448591e-01,4.15984e-01,9.99999e-01,4.15984e-01,9.99999e-01
6.456570834e-01,4.23254e-01,9.99999e-01,4.23254e-01,9.99999e-01
6.488853688e-01,4.30503e-01,9.99999e-01,4.30503e-01,9.99999e-01
6.521297956e-01,4.37730e-01,9.99999e-01,4.37730e-01,9.99999e-01
6.553904446e-01,4.44932e-01,9.99999e-01,4.44932e-01,9.99999e-01
6.586673968e-01,4.52106e-01,9.99999e-01,4.52106e-01,9.99999e-01
6.619607338e-01,4.59251e-01,9.99999e-01,4.59251e-01,9.99999e-01
6.652705375e-01,4.66365e-01,9.99999e-01,4.66365e-01,9.99999e-01
6.685968902e-01,4.73445e-01,9.99999e-01,4.73445e-01,9.99999e-01
6.719398746e-01,4.80489e-01,9.99999e-01,4.80489e-01,9.99999e-01
6.752995740e-01,4.87496e-01,9.99999e-01,4.87496e-01,9.99999e-01
6.786760719e-01,4.94464e-01,9.99999e-01,4.94464e-01,9.99999e-01
6.820694522e-01,5.01390e-01,9.99999e-01,5.01390e-01,9.99999e-01
6.854797995e-01,5.08274e-01,9.99999e-01,5.08274e-01,9.99999e-01
6.889071985e-01,5.15114e-01,9.99999e-01,5.15114e-01,9.99999e-01
6.923517345e-01,5.21908e-01,9.99999e-01,5.21908e-01,9.99999e-01
6.958134932e-01,5.28655e-01,9.99999e-01,5.28655e-01,9.99999e-01
6.992925606e-01,5.35353e-01,9.99999e-01,5.35353e-01,9.99999e-01
7.027890234e-01,5.42001e-01,9.99999e-01,5.42001e-01,9.99999e-01
7.063029686e-01,5.48598e-01,9.99999e-01,5.48598e-01,9.99999e-01
7.098344834e-01,5.55143e-01,9.99999e-01,5.55143e-01,9.99999e-01
7.133836558e-01,5.61634e-01,9.99999e-01,5.61634e-01,9.99999e-01
7.169505741e-01,5.68071e-01,9.99999e-01,5.68071e-01,9.99999e-01
7.205353270e-01,5.74452e-01,9.99999e-01,5.74452e-01,9.99999e-01
7.241380036e-01,5.80776e-01,9.99999e-01,5.80776e-01,9.99999e-01
7.277586936e-01,5.87043e-01,9.99999e-01,5.87043e-01,9.99999e-01
7.313974871e-01,5.93252e-01,9.99999e-01,5.93252e-01,9.99999e-01
7.350544745e-01,5.99403e-01,9.99999e-01,5.99403e-01,9.99999e-01
7.387297469e-01,6.05493e-01,9.99999e-01,6.05493e-01,9.99999e-01
7.424233956e-01,6.11523e-01,9.99999e-01,6.11523e-01,9.99999e-01
7.461355126e-01,6.17493e-01,9.99999e-01,6.17493e-01,9.99999e-01
7.498661902e-01,6.23401e-01,9.99999e-01,6.23401e-01,9.99999e-01
7.536155211e-01,6.29247e-01,9.99999e-01,6.29247e-01,9.99999e-01
7.573835987e-01,6.35031e-01,9.99999e-01,6.35031e-01,9.99999e-01
7.611705167e-01,6.40753e-01,9.99999e-01,6.40753e-01,9.99999e-01
7.649763693e-01,6.46411e-01,9.99999e-01,6.46411e-01,9.99999e-01
7.688012511e-01,6.52006e-01,9.99999e-01,6.52006e-01,9.99999e-01
7.726452574e-01,6.57538e-01,9.99999e-01,6.57538e-01,9.99999e-01
7.765084837e-01,6.63005e-01,9.99999e-01,6.63005e-01,9.99999e-01
7.803910261e-01,6.55670e-01,9.80940e-01,6.68409e-01,9.99999e-01
7.842929812e-01,6.17714e-01,9.16830e-01,6.73749e-01,9.99999e-01
7.882144461e-01,6.18961e-01,9.11542e-01,6.79025e-01,9.99999e-01
7.921555184e-01,6.48746e-01,9.48129e-01,6.84237e-01,9.99999e-01
7.961162960e-01,6.65108e-01,9.64783e-01,6.89385e-01,9.99999e-01
8.000968774e-01,6.81134e-01,9.80798e-01,6.94468e-01,9.99999e-01
8.040973618e-01,6.92472e-01,9.89969e-01,6.99488e-01,9.99999e-01
8.081178486e-01,7.01207e-01,9.95405e-01,7.04444e-01,9.99999e-01
8.121584379e-01,7.08319e-01,9.98566e-01,7.09335e-01,9.99999e-01
8.162192301e-01,7.13937e-01,9.99682e-01,7.14164e-01,9.99999e-01
8.203003262e-01,7.18924e-01,9.99994e-01,7.18928e-01,9.99999e-01
8.244018279e-01,7.23630e-01,9.99999e-01,7.23630e-01,9.99999e-01
8.285238370e-01,7.28268e-01,9.99999e-01,7.28268e-01,9.99999e-01
8.326664562e-01,7.32844e-01,9.99999e-01,7.32844e-01,9.99999e-01
8.368297885e-01,7.37357e-01,9.99999e-01,7.37357e-01,9.99999e-01
8.410139374e-01,7.41808e-01,9.99999e-01,7.41808e-01,9.99999e-01
8.452190071e-01,7.46197e-01,9.99999e-01,7.46197e-01,9.99999e-01
8.494451021e-01,7.50524e-01,9.99999e-01,7.50524e-01,9.99999e-01
8.536923276e-01,7.54791e-01,9.99999e-01,7.54791e-01,9.99999e-01
8.579607893e-01,7.58997e-01,9.99999e-01,7.58997e-01,9.99999e-01
8.622505932e-01,7.63142e-01,9.99999e-01,7.63142e-01,9.99999e-01
8.665618462e-01,7.29423e-01,9.50724e-01,7.67228e-01,9.99999e-01
8.708946554e-01,6.17566e-01,8.00730e-01,7.71254e-01,9.99999e-01
8.752491287e-01,6.48942e-01,8.37106e-01,7.75221e-01,9.99999e-01
8.796253743e-01,7.07169e-01,9.07639e-01,7.79129e-01,9.99999e-01
8.840235012e-01,7.44797e-01,9.51234e-01,7.82980e-01,9.99999e-01
8.884436187e-01,7.71378e-01,9.80432e-01,7.86773e-01,9.99999e-01
8.928858368e-01,7.84231e-01,9.92058e-01,7.90508e-01,9.99999e-01
8.973502660e-01,7.92641e-01,9.98052e-01,7.94187e-01,9.99999e-01
9.018370173e-01,7.97639e-01,9.99784e-01,7.97811e-01,9.99999e-01
9.063462024e-01,7.97099e-01,9.94660e-01,8.01378e-01,9.99999e-01
9.108779334e-01,7.94842e-01,9.87514e-01,8.04891e-01,9.99999e-01
9.154323231e-01,8.05946e-01,9.97026e-01,8.08349e-01,9.99999e-01
9.200094847e-01,7.77262e-01,9.57510e-01,8.11753e-01,9.99999e-01
9.246095321e-01,7.66467e-01,9.40330e-01,8.15104e-01,9.99999e-01
9.292325798e-01,7.80137e-01,9.53243e-01,8.18402e-01,9.99999e-01
9.338787427e-01,7.84197e-01,9.54418e-01,8.21648e-01,9.99999e-01
9.385481364e-01,7.97110e-01,9.66378e-01,8.24843e-01,9.99999e-01
9.432408771e-01,8.10791e-01,9.79232e-01,8.27986e-01,9.99999e-01
9.479570815e-01,8.22211e-01,9.89329e-01,8.31079e-01,9.99999e-01
9.526968669e-01,8.29810e-01,9.94830e-01,8.34122e-01,9.99999e-01
9.574603512e-01,8.35262e-01,9.97785e-01,8.37115e-01,9.99999e-01
9.622476530e-01,8.39480e-01,9.99308e-01,8.40060e-01,9.99999e-01
9.670588912e-01,8.42782e-01,9.99791e-01,8.42957e-01,9.99999e-01
9.718941857e-01,8.45794e-01,9.99984e-01,8.45807e-01,9.99999e-01
9.767536566e-01,8.48609e-01,9.99999e-01,8.48609e-01,9.99999e-01
9.816374249e-01,8.51365e-01,9.99999e-01,8.51365e-01,9.99999e-01
9.865456120e-01,8.54075e-01,9.99999e-01,8.54075e-01,9.99999e-01
9.914783401e-01,8.56741e-01,9.99999e-01,8.56741e-01,9.99999e-01
9.964357318e-01,8.59361e-01,9.99999e-01,8.59361e-01,9.99999e-01
1.001417910e+00,8.61938e-01,9.99999e-01,8.61938e-01,9.99999e-01
1.006425000e+00,8.64471e-01,9.99999e-01,8.64471e-01,9.99999e-01
1.011457125e+00,8.66961e-01,9.99999e-01,8.66961e-01,9.99999e-01
1.016514411e+00,8.69410e-01,9.99999e-01,8.69410e-01,9.99999e-01
1.021596983e+00,8.71794e-01,9.99974e-01,8.71816e-01,9.99999e-01
1.026704968e+00,8.72371e-01,9.97928e-01,8.74181e-01,9.99999e-01
1.031838492e+00,8.52656e-01,9.72788e-01,8.76506e-01,9.99999e-01
1.036997685e+00,2.24293e-01,2.55229e-01,8.78791e-01,9.99999e-01
1.042182673e+00,2.53182e-01,2.87368e-01,8.81037e-01,9.99999e-01
1.047393587e+00,2.47207e-01,2.79885e-01,8.83244e-01,9.99999e-01
1.052630555e+00,2.78899e-02,3.14993e-02,8.85413e-01,9.99999e-01
1.057893707e+00,5.49276e-02,6.18872e-02,8.87544e-01,9.99999e-01
1.063183176e+00,1.17954e-01,1.32586e-01,8.89638e-01,9.99999e-01
1.068499092e+00,2.29959e-01,2.57889e-01,8.91695e-01,9.99999e-01
1.073841587e+00,3.79058e-01,4.24137e-01,8.93716e-01,9.99999e-01
1.079210795e+00,5.21409e-01,5.82122e-01,8.95702e-01,9.99999e-01
1.084606849e+00,6.67540e-01,7.43650e-01,8.97653e-01,9.99999e-01
1.090029883e+00,7.71788e-01,8.57952e-01,8.99569e-01,9.99999e-01
1.095480033e+00,8.35868e-01,9.27245e-01,9.01452e-01,9.99999e-01
1.100957433e+00,8.71067e-01,9.64315e-01,9.03301e-01,9.99999e-01
1.106462220e+00,8.91608e-01,9.85074e-01,9.05117e-01,9.99999e-01
1.111994531e+00,9.01863e-01,9.94444e-01,9.06901e-01,9.99999e-01
1.117554504e+00,9.07413e-01,9.98634e-01,9.08654e-01,9.99999e-01
1.123142276e+00,9.10292e-01,9.99909e-01,9.10375e-01,9.99999e-01
1.128757988e+00,9.12065e-01,9.99999e-01,9.12065e-01,9.99999e-01
1.134401778e+00,9.13724e-01,9.99999e-01,9.13724e-01,9.99999e-01
1.140073787e+00,9.15354e-01,9.99999e-01,9.15354e-01,9.99999e-01
1.145774156e+00,9.16955e-01,9.99999e-01,9.16955e-01,9.99999e-01
1.151503026e+00,9.18526e-01,9.99999e-01,9.18526e-01,9.99999e-01
1.157260541e+00,9.20069e-01,9.99999e-01,9.20069e-01,9.99999e-01
1.163046844e+00,9.21585e-01,9.99999e-01,9.21585e-01,9.99999e-01
1.168862078e+00,9.23072e-01,9.99999e-01,9.23072e-01,9.99999e-01
1.174706389e+00,9.24533e-01,9.99999e-01,9.24533e-01,9.99999e-01
1.180579921e+00,9.25967e-01,9.99999e-01,9.25967e-01,9.99999e-01
1.186482820e+00,9.27373e-01,9.99996e-01,9.27375e-01,9.99999e-01
1.192415234e+00,9.21902e-01,9.92618e-01,9.28757e-01,9.99999e-01
1.198377311e+00,5.39990e-01,5.80562e-01,9.30114e-01,9.99999e-01
1.204369197e+00,2.61393e-07,2.80631e-07,9.31446e-01,9.99999e-01
1.210391043e+00,5.45378e-24,5.84697e-24,9.32753e-01,9.99999e-01
1.216442998e+00,5.25896e-21,5.63035e-21,9.34037e-01,9.99999e-01
1.222525213e+00,1.04368e-20,1.11588e-20,9.35297e-01,9.99999e-01
1.228637839e+00,5.77506e-16,6.16642e-16,9.36533e-01,9.99999e-01
1.234781029e+00,6.85078e-11,7.30557e-11,9.37747e-01,9.99999e-01
1.240954934e+00,2.01777e-07,2.14899e-07,9.38938e-01,9.99999e-01
1.247159708e+00,1.83603e-04,1.95299e-04,9.40107e-01,9.99999e-01
1.253395507e+00,7.94451e-03,8.44033e-03,9.41255e-01,9.99999e-01
1.259662485e+00,4.98660e-02,5.29148e-02,9.42381e-01,9.99999e-01
1.265960797e+00,1.94058e-01,2.05681e-01,9.43487e-01,9.99999e-01
1.272290601e+00,4.67828e-01,4.95280e-01,9.44571e-01,9.99999e-01
1.278652054e+00,4.37452e-01,4.62600e-01,9.45636e-01,9.99999e-01
1.285045314e+00,2.95338e-02,3.11972e-02,9.46680e-01,9.99999e-01
1.291470541e+00,1.63412e-03,1.72429e-03,9.47706e-01,9.99999e-01
1.297927893e+00,2.85705e-02,3.01150e-02,9.48712e-01,9.99999e-01
1.304417533e+00,2.91899e-01,3.07359e-01,9.49699e-01,9.99999e-01
1.310939621e+00,8.24497e-02,8.67282e-02,9.50667e-01,9.99999e-01
1.317494319e+00,1.06218e-08,1.11619e-08,9.51618e-01,9.99999e-01
1.324081790e+00,2.36622e-06,2.48408e-06,9.52550e-01,9.99999e-01
1.330702199e+00,9.45953e-04,9.92120e-04,9.53465e-01,9.99999e-01
1.337355710e+00,7.15829e-04,7.50059e-04,9.54363e-01,9.99999e-01
1.344042489e+00,2.37888e-04,2.49033e-04,9.55244e-01,9.99999e-01
1.350762701e+00,6.88812e-04,7.20432e-04,9.56109e-01,9.99999e-01
1.357516515e+00,8.23635e-03,8.60680e-03,9.56957e-01,9.99999e-01
1.364304097e+00,4.88464e-02,5.09991e-02,9.57789e-01,9.99999e-01
1.371125618e+00,1.98679e-01,2.07259e-01,9.58605e-01,9.99999e-01
1.377981246e+00,2.72714e-01,2.84253e-01,9.59406e-01,9.99999e-01
1.384871152e+00,4.61321e-01,4.80446e-01,9.60191e-01,9.99999e-01
1.391795508e+00,4.88270e-01,5.08105e-01,9.60962e-01,9.99999e-01
1.398754485e+00,6.34269e-01,6.59516e-01,9.61718e-01,9.99999e-01
1.405748258e+00,7.07681e-01,7.35283e-01,9.62460e-01,9.99999e-01
1.412776999e+00,7.93338e-01,8.23658e-01,9.63188e-01,9.99999e-01
1.419840884e+00,7.34493e-01,7.61999e-01,9.63901e-01,9.99999e-01
1.426940089e+00,9.35775e-02,9.70115e-02,9.64602e-01,9.99999e-01
1.434074789e+00,0.00000e+00,0.00000e+00,9.65289e-01,9.99999e-01
1.441245163e+00,0.00000e+00,0.00000e+00,9.65962e-01,9.99999e-01
1.448451389e+00,0.00000e+00,0.00000e+00,9.66623e-01,9.99999e-01
1.455693646e+00,1.00552e-185,1.03954e-185,9.67272e-01,9.99999e-01
1.462972114e+00,1.70568e-90,1.76223e-90,9.67908e-01,9.99999e-01
1.470286975e+00,1.46696e-38,1.51462e-38,9.68531e-01,9.99999e-01
1.477638409e+00,7.36156e-25,7.59593e-25,9.69143e-01,9.99999e-01
1.485026601e+00,1.73607e-14,1.79024e-14,9.69743e-01,9.99999e-01
1.492451734e+00,2.47978e-12,2.55560e-12,9.70332e-01,9.99999e-01
1.499913993e+00,2.75368e-06,2.83619e-06,9.70910e-01,9.99999e-01
1.507413563e+00,3.83855e-05,3.95125e-05,9.71476e-01,9.99999e-01
1.514950631e+00,1.60930e-06,1.65561e-06,9.72031e-01,9.99999e-01
1.522525384e+00,3.58515e-18,3.68624e-18,9.72576e-01,9.99999e-01
1.530138011e+00,6.13547e-41,6.30500e-41,9.73110e-01,9.99999e-01
1.537788701e+00,1.02096e-30,1.04861e-30,9.73634e-01,9.99999e-01
1.545477645e+00,7.54883e-08,7.74915e-08,9.74148e-01,9.99999e-01
1.553205033e+00,2.99530e-05,3.07320e-05,9.74653e-01,9.99999e-01
1.560971058e+00,8.26991e-06,8.48067e-06,9.75147e-01,9.99999e-01
1.568775913e+00,2.19256e-101,2.24732e-101,9.75632e-01,9.99999e-01
1.576619793e+00,4.19276e-236,4.29538e-236,9.76107e-01,9.99999e-01
1.584502892e+00,2.87801e-129,2.94705e-129,9.76574e-01,9.99999e-01
1.592425406e+00,2.06217e-90,2.11065e-90,9.77031e-01,9.99999e-01
1.600387533e+00,5.12733e-145,5.24546e-145,9.77480e-01,9.99999e-01
1.608389471e+00,6.00891e-243,6.14458e-243,9.77919e-01,9.99999e-01
1.616431418e+00,1.79052e-244,1.83014e-244,9.78351e-01,9.99999e-01
1.624513575e+00,1.32987e-114,1.35871e-114,9.78774e-01,9.99999e-01
1.632636143e+00,1.76592e-85,1.80345e-85,9.79189e-01,9.99999e-01
1.640799324e+00,7.53685e-36,7.69383e-36,9.79595e-01,9.99999e-01
1.649003321e+00,8.57729e-36,8.75238e-36,9.79994e-01,9.99999e-01
1.657248337e+00,5.58263e-28,5.69431e-28,9.80386e-01,9.99999e-01
1.665534579e+00,3.72007e-28,3.79301e-28,9.80769e-01,9.99999e-01
1.673862252e+00,1.68713e-18,1.71955e-18,9.81146e-01,9.99999e-01
1.682231563e+00,3.02499e-13,3.08195e-13,9.81515e-01,9.99999e-01
1.690642721e+00,4.33636e-08,4.41639e-08,9.81876e-01,9.99999e-01
1.699095934e+00,2.77791e-05,2.82816e-05,9.82231e-01,9.99999e-01
1.707591414e+00,3.54723e-03,3.61012e-03,9.82579e-01,9.99999e-01
1.716129371e+00,4.56789e-02,4.64726e-02,9.82920e-01,9.99999e-01
1.724710018e+00,1.89983e-01,1.93218e-01,9.83255e-01,9.99999e-01
1.733333568e+00,3.43629e-01,3.49364e-01,9.83583e-01,9.99999e-01
1.742000236e+00,5.15221e-01,5.23649e-01,9.83904e-01,9.99999e-01
1.750710237e+00,3.16408e-02,3.21481e-02,9.84220e-01,9.99999e-01
1.759463788e+00,1.40769e-17,1.42981e-17,9.84529e-01,9.99999e-01
1.768261107e+00,1.26079e-18,1.28021e-18,9.84832e-01,9.99999e-01
1.777102413e+00,1.51807e-17,1.54099e-17,9.85129e-01,9.99999e-01
1.785987925e+00,5.31987e-17,5.39857e-17,9.85421e-01,9.99999e-01
1.794917864e+00,5.20896e-16,5.28449e-16,9.85707e-01,9.99999e-01
1.803892454e+00,7.42122e-16,7.52668e-16,9.85987e-01,9.99999e-01
1.812911916e+00,5.03383e-15,5.10394e-15,9.86262e-01,9.99999e-01
1.821976476e+00,2.94421e-15,2.98441e-15,9.86532e-01,9.99999e-01
1.831086358e+00,1.47296e-12,1.49267e-12,9.86796e-01,9.99999e-01
1.840241790e+00,1.25834e-10,1.27484e-10,9.87055e-01,9.99999e-01
1.849442999e+00,1.63846e-07,1.65952e-07,9.87309e-01,9.99999e-01
1.858690214e+00,8.27142e-07,8.37562e-07,9.87558e-01,9.99999e-01
1.867983665e+00,1.38325e-07,1.40033e-07,9.87802e-01,9.99999e-01
1.877323583e+00,1.59865e-32,1.61800e-32,9.88042e-01,9.99999e-01
