#,Wave/freq,Total,CO2,Rayleigh,CIA
4.000000000e-01,5.74573e-06,9.99999e-01,5.74573e-06,9.99999e-01
4.020000000e-01,7.29407e-06,9.99999e-01,7.29407e-06,9.99999e-01
4.040100000e-01,9.21380e-06,9.99999e-01,9.21380e-06,9.99999e-01
4.060300500e-01,1.15852e-05,9.99999e-01,1.15852e-05,9.99999e-01
4.080602003e-01,1.45012e-05,9.99999e-01,1.45012e-05,9.99999e-01
4.101005013e-01,1.80708e-05,9.99999e-01,1.80708e-05,9.99999e-01
4.121510038e-01,2.24215e-05,9.99999e-01,2.24215e-05,9.99999e-01
4.142117588e-01,2.77013e-05,9.99999e-01,2.77013e-05,9.99999e-01
4.162828176e-01,3.40818e-05,9.99999e-01,3.40818e-05,9.99999e-01
4.183642317e-01,4.17605e-05,9.99999e-01,4.17605e-05,9.99999e-01
4.204560528e-01,5.09644e-05,9.99999e-01,5.09644e-05,9.99999e-01
4.225583331e-01,6.19525e-05,9.99999e-01,6.19525e-05,9.99999e-01
4.246711247e-01,7.50198e-05,9.99999e-01,7.50198e-05,9.99999e-01
4.267944804e-01,9.05006e-05,9.99999e-01,9.05006e-05,9.99999e-01
4.289284528e-01,1.08772e-04,9.99999e-01,1.08772e-04,9.99999e-01
4.310730950e-01,1.30259e-04,9.99999e-01,1.30259e-04,9.99999e-01
4.332284605e-01,1.55435e-04,9.99999e-01,1.55435e-04,9.99999e-01
4.353946028e-01,1.84831e-04,9.99999e-01,1.84831e-04,9.99999e-01
4.375715758e-01,2.19036e-04,9.99999e-01,2.19036e-04,9.99999e-01
4.397594337e-01,2.58702e-04,9.99999e-01,2.58702e-04,9.99999e-01
4.419582309e-01,3.04548e-04,9.99999e-01,3.04548e-04,9.99999e-01
4.441680220e-01,3.57365e-04,9.99999e-01,3.57365e-04,9.99999e-01
4.463888621e-01,4.18019e-04,9.99999e-01,4.18019e-04,9.99999e-01
4.486208064e-01,4.87457e-04,9.99999e-01,4.87457e-04,9.99999e-01
4.508639105e-01,5.66706e-04,9.99999e-01,5.66706e-04,9.99999e-01
4.531182300e-01,6.56881e-04,9.99999e-01,6.56881e-04,9.99999e-01
4.553838212e-01,7.59188e-04,9.99999e-01,7.59188e-04,9.99999e-01
4.576607403e-01,8.74924e-04,9.99999e-01,8.74924e-04,9.99999e-01
4.599490440e-01,1.00548e-03,9.99999e-01,1.00548e-03,9.99999e-01
4.622487892e-01,1.15235e-03,9.99999e-01,1.15235e-03,9.99999e-01
4.645600332e-01,1.31712e-03,9.99999e-01,1.31712e-03,9.99999e-01
4.668828333e-01,1.50148e-03,9.99999e-01,1.50148e-03,9.99999e-01
4.692172475e-01,1.70722e-03,9.99999e-01,1.70722e-03,9.99999e-01
4.715633337e-01,1.93624e-03,9.99999e-01,1.93624e-03,9.99999e-01
4.739211504e-01,2.19053e-03,9.99999e-01,2.19053e-03,9.99999e-01
4.762907561e-01,2.47218e-03,9.99999e-01,2.47218e-03,9.99999e-01
4.786722099e-01,2.78338e-03,9.99999e-01,2.78338e-03,9.99999e-01
4.810655710e-01,3.12643e-03,9.99999e-01,3.12643e-03,9.99999e-01
4.834708988e-01,3.50371e-03,9.99999e-01,3.50371e-03,9.99999e-01
4.858882533e-01,3.91768e-03,9.99999e-01,3.91768e-03,9.99999e-01
4.883176946e-01,4.37092e-03,9.99999e-01,4.37092e-03,9.99999e-01
4.907592831e-01,4.86606e-03,9.99999e-01,4.86606e-03,9.99999e-01
4.932130795e-01,5.40582e-03,9.99999e-01,5.40582e-03,9.99999e-01
4.956791449e-01,5.99298e-03,9.99999e-01,5.99298e-03,9.99999e-01
4.981575406e-01,6.63041e-03,9.99999e-01,6.63041e-03,9.99999e-01
5.006483283e-01,7.32100e-03,9.99999e-01,7.32100e-03,9.99999e-01
5.031515699e-01,8.06771e-03,9.99999e-01,8.06771e-03,9.99999e-01
5.056673278e-01,8.87354e-03,9.99999e-01,8.87354e-03,9.99999e-01
5.081956644e-01,9.74153e-03,9.99999e-01,9.74153e-03,9.99999e-01
5.107366428e-01,1.06747e-02,9.99999e-01,1.06747e-02,9.99999e-01
5.132903260e-01,1.16762e-02,9.99999e-01,1.16762e-02,9.99999e-01
5.158567776e-01,1.27490e-02,9.99999e-01,1.27490e-02,9.99999e-01
5.184360615e-01,1.38963e-02,9.99999e-01,1.38963e-02,9.99999e-01
5.210282418e-01,1.51210e-02,9.99999e-01,1.51210e-02,9.99999e-01
5.236333830e-01,1.64263e-02,9.99999e-01,1.64263e-02,9.99999e-01
5.262515499e-01,1.78150e-02,9.99999e-01,1.78150e-02,9.99999e-01
5.288828077e-01,1.92902e-02,9.99999e-01,1.92902e-02,9.99999e-01
5.315272217e-01,2.08548e-02,9.99999e-01,2.08548e-02,9.99999e-01
5.341848578e-01,2.25116e-02,9.99999e-01,2.25116e-02,9.99999e-01
5.368557821e-01,2.42633e-02,9.99999e-01,2.42633e-02,9.99999e-01
5.395400610e-01,2.61127e-02,9.99999e-01,2.61127e-02,9.99999e-01
5.422377613e-01,2.80623e-02,9.99999e-01,2.80623e-02,9.99999e-01
5.449489501e-01,3.01145e-02,9.99999e-01,3.01145e-02,9.99999e-01
5.476736949e-01,3.22719e-02,9.99999e-01,3.22719e-02,9.99999e-01
5.504120634e-01,3.45365e-02,9.99999e-01,3.45365e-02,9.99999e-01
5.531641237e-01,3.69106e-02,9.99999e-01,3.69106e-02,9.99999e-01
5.559299443e-01,3.93961e-02,9.99999e-01,3.93961e-02,9.99999e-01
5.587095940e-01,4.19949e-02,9.99999e-01,4.19949e-02,9.99999e-01
5.615031420e-01,4.47087e-02,9.99999e-01,4.47087e-02,9.99999e-01
5.643106577e-01,4.75390e-02,9.99999e-01,4.75390e-02,9.99999e-01
5.671322110e-01,5.04872e-02,9.99999e-01,5.04872e-02,9.99999e-01
5.699678720e-01,5.35546e-02,9.99999e-01,5.35546e-02,9.99999e-01
5.728177114e-01,5.67422e-02,9.99999e-01,5.67422e-02,9.99999e-01
5.756818000e-01,6.00509e-02,9.99999e-01,6.00509e-02,9.99999e-01
5.785602090e-01,6.34815e-02,9.99999e-01,6.34815e-02,9.99999e-01
5.814530100e-01,6.70344e-02,9.99999e-01,6.70344e-02,9.99999e-01
5.843602750e-01,7.07101e-02,9.99999e-01,7.07101e-02,9.99999e-01
5.872820764e-01,7.45087e-02,9.99999e-01,7.45087e-02,9.99999e-01
5.902184868e-01,7.84302e-02,9.99999e-01,7.84302e-02,9.99999e-01
5.931695792e-01,8.24746e-02,9.99999e-01,8.24746e-02,9.99999e-01
5.961354271e-01,8.66414e-02,9.99999e-01,8.66414e-02,9.99999e-01
5.991161043e-01,9.09302e-02,9.99999e-01,9.09302e-02,9.99999e-01
6.021116848e-01,9.53402e-02,9.99999e-01,9.53402e-02,9.99999e-01
6.051222432e-01,9.98707e-02,9.99999e-01,9.98707e-02,9.99999e-01
6.081478544e-01,1.04521e-01,9.99999e-01,1.04521e-01,9.99999e-01
6.111885937e-01,1.09289e-01,9.99999e-01,1.09289e-01,9.99999e-01
6.142445367e-01,1.14173e-01,9.99999e-01,1.14173e-01,9.99999e-01
6.173157594e-01,1.19174e-01,9.99999e-01,1.19174e-01,9.99999e-01
6.204023382e-01,1.24288e-01,9.99999e-01,1.24288e-01,9.99999e-01
6.235043498e-01,1.29514e-01,9.99999e-01,1.29514e-01,9.99999e-01
6.266218716e-01,1.34850e-01,9.99999e-01,1.34850e-01,9.99999e-01
6.297549810e-01,1.40293e-01,9.99999e-01,1.40293e-01,9.99999e-01
6.329037559e-01,1.45843e-01,9.99999e-01,1.45843e-01,9.99999e-01
6.360682746e-01,1.51496e-01,9.99999e-01,1.51496e-01,9.99999e-01
6.392486160e-01,1.57250e-01,9.99999e-01,1.57250e-01,9.99999e-01
6.424448591e-01,1.63102e-01,9.99999e-01,1.63102e-01,9.99999e-01
6.456570834e-01,1.69050e-01,9.99999e-01,1.69050e-01,9.99999e-01
6.488853688e-01,1.75091e-01,9.99999e-01,1.75091e-01,9.99999e-01
6.521297956e-01,1.81222e-01,9.99999e-01,1.81222e-01,9.99999e-01
6.553904446e-01,1.87440e-01,9.99999e-01,1.87440e-01,9.99999e-01
6.586673968e-01,1.93743e-01,9.99999e-01,1.93743e-01,9.99999e-01
6.619607338e-01,2.00127e-01,9.99999e-01,2.00127e-01,9.99999e-01
6.652705375e-01,2.06588e-01,9.99999e-01,2.06588e-01,9.99999e-01
6.685968902e-01,2.13125e-01,9.99999e-01,2.13125e-01,9.99999e-01
6.719398746e-01,2.19733e-01,9.99999e-01,2.19733e-01,9.99999e-01
6.752995740e-01,2.26409e-01,9.99999e-01,2.26409e-01,9.99999e-01
6.786760719e-01,2.33151e-01,9.99999e-01,2.33151e-01,9.99999e-01
6.820694522e-01,2.39954e-01,9.99999e-01,2.39954e-01,9.99999e-01
6.854797995e-01,2.46815e-01,9.99999e-01,2.46815e-01,9.99999e-01
6.889071985e-01,2.53731e-01,9.99999e-01,2.53731e-01,9.99999e-01
6.923517345e-01,2.60699e-01,9.99999e-01,2.60699e-01,9.99999e-01
6.958134932e-01,2.67714e-01,9.99999e-01,2.67714e-01,9.99999e-01
6.992925606e-01,2.74775e-01,9.99999e-01,2.74775e-01,9.99999e-01
7.027890234e-01,2.81876e-01,9.99999e-01,2.81876e-01,9.99999e-01
7.063029686e-01,2.89015e-01,9.99999e-01,2.89015e-01,9.99999e-01
7.098344834e-01,2.96189e-01,9.99999e-01,2.96189e-01,9.99999e-01
7.133836558e-01,3.03394e-01,9.99999e-01,3.03394e-01,9.99999e-01
7.169505741e-01,3.10626e-01,9.99999e-01,3.10626e-01,9.99999e-01
7.205353270e-01,3.17884e-01,9.99999e-01,3.17884e-01,9.99999e-01
7.241380036e-01,3.25162e-01,9.99999e-01,3.25162e-01,9.99999e-01
7.277586936e-01,3.32458e-01,9.99999e-01,3.32458e-01,9.99999e-01
7.313974871e-01,3.39769e-01,9.99999e-01,3.39769e-01,9.99999e-01
7.350544745e-01,3.47091e-01,9.99999e-01,3.47091e-01,9.99999e-01
7.387297469e-01,3.54422e-01,9.99999e-01,3.54422e-01,9.99999e-01
7.424233956e-01,3.61759e-01,9.99999e-01,3.61759e-01,9.99999e-01
7.461355126e-01,3.69098e-01,9.99999e-01,3.69098e-01,9.99999e-01
7.498661902e-01,3.76436e-01,9.99999e-01,3.76436e-01,9.99999e-01
7.536155211e-01,3.83771e-01,9.99999e-01,3.83771e-01,9.99999e-01
7.573835987e-01,3.91100e-01,9.99999e-01,3.91100e-01,9.99999e-01
7.611705167e-01,3.98420e-01,9.99999e-01,3.98420e-01,9.99999e-01
7.649763693e-01,4.05729e-01,9.99999e-01,4.05729e-01,9.99999e-01
7.688012511e-01,4.13023e-01,9.99999e-01,4.13023e-01,9.99999e-01
7.726452574e-01,4.20300e-01,9.99999e-01,4.20300e-01,9.99999e-01
7.765084837e-01,4.27558e-01,9.99999e-01,4.27558e-01,9.99999e-01
7.803910261e-01,4.18555e-01,9.62649e-01,4.34794e-01,9.99999e-01
7.842929812e-01,3.70728e-01,8.38738e-01,4.42007e-01,9.99999e-01
7.882144461e-01,3.72527e-01,8.29325e-01,4.49192e-01,9.99999e-01
7.921555184e-01,4.08978e-01,8.96193e-01,4.56350e-01,9.99999e-01
7.961162960e-01,4.30472e-01,9.28789e-01,4.63476e-01,9.99999e-01
8.000968774e-01,4.52123e-01,9.60797e-01,4.70570e-01,9.99999e-01
8.040973618e-01,4.67804e-01,9.79429e-01,4.77629e-01,9.99999e-01
8.081178486e-01,4.80065e-01,9.90537e-01,4.84651e-01,9.99999e-01
8.121584379e-01,4.90184e-01,9.97048e-01,4.91635e-01,9.99999e-01
8.162192301e-01,4.98254e-01,9.99347e-01,4.98579e-01,9.99999e-01
8.203003262e-01,5.05475e-01,9.99988e-01,5.05480e-01,9.99999e-01
8.244018279e-01,5.12338e-01,9.99999e-01,5.12338e-01,9.99999e-01
8.285238370e-01,5.19151e-01,9.99999e-01,5.19151e-01,9.99999e-01
8.326664562e-01,5.25917e-01,9.99999e-01,5.25917e-01,9.99999e-01
8.368297885e-01,5.32635e-01,9.99999e-01,5.32635e-01,9.99999e-01
8.410139374e-01,5.39304e-01,9.99999e-01,5.39304e-01,9.99999e-01
8.452190071e-01,5.45922e-01,9.99999e-01,5.45922e-01,9.99999e-01
8.494451021e-01,5.52488e-01,9.99999e-01,5.52488e-01,9.99999e-01
8.536923276e-01,5.59001e-01,9.99999e-01,5.59001e-01,9.99999e-01
8.579607893e-01,5.65460e-01,9.99999e-01,5.65460e-01,9.99999e-01
8.622505932e-01,5.71864e-01,9.99999e-01,5.71864e-01,9.99999e-01
8.665618462e-01,5.32367e-01,9.20712e-01,5.78211e-01,9.99999e-01
8.708946554e-01,3.75248e-01,6.41995e-01,5.84502e-01,9.99999e-01
8.752491287e-01,4.12383e-01,6.98084e-01,5.90735e-01,9.99999e-01
8.796253743e-01,4.89585e-01,8.20199e-01,5.96909e-01,9.99999e-01
8.840235012e-01,5.44061e-01,9.02221e-01,6.03024e-01,9.99999e-01
8.884436187e-01,5.84789e-01,9.60119e-01,6.09079e-01,9.99999e-01
8.928858368e-01,6.05038e-01,9.83685e-01,6.15073e-01,9.99999e-01
8.973502660e-01,6.18518e-01,9.95993e-01,6.21006e-01,9.99999e-01
9.018370173e-01,6.26600e-01,9.99556e-01,6.26878e-01,9.99999e-01
9.063462024e-01,6.25725e-01,9.88996e-01,6.32687e-01,9.99999e-01
9.108779334e-01,6.22102e-01,9.74418e-01,6.38434e-01,9.99999e-01
9.154323231e-01,6.40184e-01,9.93891e-01,6.44118e-01,9.99999e-01
9.200094847e-01,5.96001e-01,9.17293e-01,6.49739e-01,9.99999e-01
9.246095321e-01,5.77327e-01,8.81016e-01,6.55296e-01,9.99999e-01
9.292325798e-01,5.98912e-01,9.06357e-01,6.60790e-01,9.99999e-01
9.338787427e-01,6.05309e-01,9.08572e-01,6.66220e-01,9.99999e-01
9.385481364e-01,6.25877e-01,9.31938e-01,6.71586e-01,9.99999e-01
9.432408771e-01,6.48217e-01,9.57642e-01,6.76888e-01,9.99999e-01
9.479570815e-01,6.67181e-01,9.78090e-01,6.82126e-01,9.99999e-01
9.526968669e-01,6.79988e-01,9.89362e-01,6.87299e-01,9.99999e-01
9.574603512e-01,6.89249e-01,9.95435e-01,6.92409e-01,9.99999e-01
9.622476530e-01,6.96460e-01,9.98573e-01,6.97455e-01,9.99999e-01
9.670588912e-01,7.02135e-01,9.99571e-01,7.02436e-01,9.99999e-01
9.718941857e-01,7.07332e-01,9.99968e-01,7.07354e-01,9.99999e-01
9.767536566e-01,7.12208e-01,9.99999e-01,7.12208e-01,9.99999e-01
9.816374249e-01,7.16998e-01,9.99999e-01,7.16998e-01,9.99999e-01
9.865456120e-01,7.21726e-01,9.99999e-01,7.21726e-01,9.99999e-01
9.914783401e-01,7.26389e-01,9.99999e-01,7.26389e-01,9.99999e-01
9.964357318e-01,7.30991e-01,9.99999e-01,7.30991e-01,9.99999e-01
1.001417910e+00,7.35529e-01,9.99999e-01,7.35529e-01,9.99999e-01
1.006425000e+00,7.40005e-01,9.99999e-01,7.40005e-01,9.99999e-01
1.011457125e+00,7.44420e-01,9.99999e-01,7.44420e-01,9.99999e-01
1.016514411e+00,7.48772e-01,9.99999e-01,7.48772e-01,9.99999e-01
1.021596983e+00,7.53023e-01,9.99945e-01,7.53063e-01,9.99999e-01
1.026704968e+00,7.54042e-01,9.95705e-01,7.57294e-01,9.99999e-01
1.031838492e+00,7.26120e-01,9.53583e-01,7.61464e-01,9.99999e-01
1.036997685e+00,1.02813e-01,1.34295e-01,7.65574e-01,9.99999e-01
1.042182673e+00,6.68789e-02,8.68981e-02,7.69624e-01,9.99999e-01
1.047393587e+00,8.73290e-02,1.12884e-01,7.73615e-01,9.99999e-01
1.052630555e+00,1.48195e-03,1.90593e-03,7.77547e-01,9.99999e-01
1.057893707e+00,4.00846e-03,5.12971e-03,7.81421e-01,9.99999e-01
1.063183176e+00,1.58816e-02,2.02252e-02,7.85237e-01,9.99999e-01
1.068499092e+00,5.12339e-02,6.49355e-02,7.88996e-01,9.99999e-01
1.073841587e+00,1.39944e-01,1.76541e-01,7.92698e-01,9.99999e-01
1.079210795e+00,2.65535e-01,3.33443e-01,7.96344e-01,9.99999e-01
1.084606849e+00,4.35911e-01,5.44933e-01,7.99934e-01,9.99999e-01
1.090029883e+00,5.86238e-01,7.29632e-01,8.03469e-01,9.99999e-01
1.095480033e+00,6.90712e-01,8.55954e-01,8.06949e-01,9.99999e-01
1.100957433e+00,7.51858e-01,9.27788e-01,8.10375e-01,9.99999e-01
1.106462220e+00,7.88889e-01,9.69450e-01,8.13748e-01,9.99999e-01
1.111994531e+00,8.07726e-01,9.88566e-01,8.17068e-01,9.99999e-01
1.117554504e+00,8.18027e-01,9.97186e-01,8.20335e-01,9.99999e-01
1.123142276e+00,8.23397e-01,9.99813e-01,8.23550e-01,9.99999e-01
1.128757988e+00,8.26714e-01,9.99999e-01,8.26714e-01,9.99999e-01
1.134401778e+00,8.29827e-01,9.99999e-01,8.29827e-01,9.99999e-01
1.140073787e+00,8.32890e-01,9.99999e-01,8.32890e-01,9.99999e-01
1.145774156e+00,8.35904e-01,9.99999e-01,8.35904e-01,9.99999e-01
1.151503026e+00,8.38869e-01,9.99999e-01,8.38869e-01,9.99999e-01
1.157260541e+00,8.41785e-01,9.99999e-01,8.41785e-01,9.99999e-01
1.163046844e+00,8.44654e-01,9.99999e-01,8.44654e-01,9.99999e-01
1.168862078e+00,8.47475e-01,9.99999e-01,8.47475e-01,9.99999e-01
1.174706389e+00,8.50250e-01,9.99999e-01,8.50250e-01,9.99999e-01
1.180579921e+00,8.52979e-01,9.99999e-01,8.52979e-01,9.99999e-01
1.186482820e+00,8.55657e-01,9.99993e-01,8.55662e-01,9.99999e-01
1.192415234e+00,8.45305e-01,9.84857e-01,8.58301e-01,9.99999e-01
1.198377311e+00,4.80467e-01,5.58101e-01,8.60895e-01,9.99999e-01
1.204369197e+00,1.03356e-12,1.19701e-12,8.63446e-01,9.99999e-01
1.210391043e+00,3.37446e-47,3.89681e-47,8.65954e-01,9.99999e-01
1.216442998e+00,4.94923e-41,5.69912e-41,8.68419e-01,9.99999e-01
1.222525213e+00,1.94888e-40,2.23793e-40,8.70842e-01,9.99999e-01
1.228637839e+00,2.53723e-31,2.90558e-31,8.73225e-01,9.99999e-01
1.234781029e+00,3.90494e-20,4.45990e-20,8.75566e-01,9.99999e-01
1.240954934e+00,1.38469e-13,1.57734e-13,8.77867e-01,9.99999e-01
1.247159708e+00,2.25778e-07,2.56528e-07,8.80129e-01,9.99999e-01
1.253395507e+00,8.11417e-05,9.19607e-05,8.82351e-01,9.99999e-01
1.259662485e+00,2.90085e-03,3.27951e-03,8.84535e-01,9.99999e-01
1.265960797e+00,4.04635e-02,4.56347e-02,8.86682e-01,9.99999e-01
1.272290601e+00,2.14790e-01,2.41665e-01,8.88791e-01,9.99999e-01
1.278652054e+00,2.05361e-01,2.30519e-01,8.90863e-01,9.99999e-01
1.285045314e+00,4.25412e-03,4.76438e-03,8.92899e-01,9.99999e-01
1.291470541e+00,3.35826e-06,3.75267e-06,8.94899e-01,9.99999e-01
1.297927893e+00,2.25928e-03,2.51909e-03,8.96864e-01,9.99999e-01
1.304417533e+00,8.14557e-02,9.06277e-02,8.98794e-01,9.99999e-01
1.310939621e+00,2.00138e-02,2.22205e-02,9.00690e-01,9.99999e-01
1.317494319e+00,1.15731e-16,1.28226e-16,9.02553e-01,9.99999e-01
1.324081790e+00,1.95951e-11,2.16668e-11,9.04383e-01,9.99999e-01
1.330702199e+00,9.17467e-07,1.01245e-06,9.06180e-01,9.99999e-01
1.337355710e+00,1.47027e-06,1.61934e-06,9.07945e-01,9.99999e-01
1.344042489e+00,4.77798e-07,5.25238e-07,9.09679e-01,9.99999e-01
1.350762701e+00,5.40361e-07,5.92903e-07,9.11381e-01,9.99999e-01
1.357516515e+00,1.00757e-04,1.10352e-04,9.13053e-01,9.99999e-01
1.364304097e+00,2.24067e-03,2.44964e-03,9.14695e-01,9.99999e-01
1.371125618e+00,4.02234e-02,4.38972e-02,9.16307e-01,9.99999e-01
1.377981246e+00,6.94944e-02,7.57109e-02,9.17891e-01,9.99999e-01
1.384871152e+00,2.04704e-01,2.22638e-01,9.19445e-01,9.99999e-01
1.391795508e+00,2.29566e-01,2.49265e-01,9.20972e-01,9.99999e-01
1.398754485e+00,3.90848e-01,4.23696e-01,9.22471e-01,9.99999e-01
1.405748258e+00,4.91070e-01,5.31494e-01,9.23942e-01,9.99999e-01
1.412776999e+00,6.20415e-01,6.70437e-01,9.25387e-01,9.99999e-01
1.419840884e+00,5.60675e-01,6.04954e-01,9.26806e-01,9.99999e-01
1.426940089e+00,4.68038e-02,5.04243e-02,9.28198e-01,9.99999e-01
1.434074789e+00,0.00000e+00,0.00000e+00,9.29565e-01,9.99999e-01
1.441245163e+00,0.00000e+00,0.00000e+00,9.30907e-01,9.99999e-01
1.448451389e+00,0.00000e+00,0.00000e+00,9.32225e-01,9.99999e-01
1.455693646e+00,0.00000e+00,0.00000e+00,9.33518e-01,9.99999e-01
1.462972114e+00,1.06891e-184,1.14347e-184,9.34787e-01,9.99999e-01
1.470286975e+00,2.53316e-77,2.70627e-77,9.36033e-01,9.99999e-01
1.477638409e+00,5.09108e-49,5.43189e-49,9.37256e-01,9.99999e-01
1.485026601e+00,8.74038e-28,9.31356e-28,9.38457e-01,9.99999e-01
1.492451734e+00,1.11708e-23,1.18885e-23,9.39635e-01,9.99999e-01
1.499913993e+00,5.91002e-11,6.28196e-11,9.40791e-01,9.99999e-01
1.507413563e+00,9.95145e-10,1.05650e-09,9.41926e-01,9.99999e-01
1.514950631e+00,3.93440e-11,4.17203e-11,9.43040e-01,9.99999e-01
1.522525384e+00,3.56522e-35,3.77619e-35,9.44133e-01,9.99999e-01
1.530138011e+00,1.99575e-82,2.11144e-82,9.45205e-01,9.99999e-01
1.537788701e+00,2.87846e-61,3.04194e-61,9.46258e-01,9.99999e-01
1.545477645e+00,7.90465e-14,8.34447e-14,9.47291e-01,9.99999e-01
1.553205033e+00,8.05577e-10,8.49491e-10,9.48305e-01,9.99999e-01
1.560971058e+00,2.60392e-10,2.74298e-10,9.49300e-01,9.99999e-01
1.568775913e+00,3.24475e-207,3.41453e-207,9.50276e-01,9.99999e-01
1.576619793e+00,0.00000e+00,0.00000e+00,9.51234e-01,9.99999e-01
1.584502892e+00,7.31622e-265,7.68370e-265,9.52173e-01,9.99999e-01
1.592425406e+00,9.22817e-185,9.68230e-185,9.53095e-01,9.99999e-01
1.600387533e+00,2.00603e-297,2.10275e-297,9.54000e-01,9.99999e-01
1.608389471e+00,0.00000e+00,0.00000e+00,9.54888e-01,9.99999e-01
1.616431418e+00,0.00000e+00,0.00000e+00,9.55759e-01,9.99999e-01
1.624513575e+00,1.52878e-234,1.59812e-234,9.56614e-01,9.99999e-01
1.632636143e+00,2.34989e-174,2.45431e-174,9.57452e-01,9.99999e-01
1.640799324e+00,1.02012e-71,1.06454e-71,9.58275e-01,9.99999e-01
1.649003321e+00,1.02761e-71,1.07145e-71,9.59082e-01,9.99999e-01
1.657248337e+00,1.15951e-55,1.20798e-55,9.59874e-01,9.99999e-01
1.665534579e+00,5.01279e-56,5.21812e-56,9.60650e-01,9.99999e-01
1.673862252e+00,4.11459e-36,4.27973e-36,9.61412e-01,9.99999e-01
1.682231563e+00,2.47042e-25,2.56757e-25,9.62160e-01,9.99999e-01
1.690642721e+00,1.40171e-14,1.45572e-14,9.62893e-01,9.99999e-01
1.699095934e+00,1.83397e-09,1.90322e-09,9.63613e-01,9.99999e-01
1.707591414e+00,2.42656e-05,2.51634e-05,9.64319e-01,9.99999e-01
1.716129371e+00,2.46610e-03,2.55551e-03,9.65011e-01,9.99999e-01
1.724710018e+00,3.52973e-02,3.65513e-02,9.65690e-01,9.99999e-01
1.733333568e+00,1.12617e-01,1.16538e-01,9.66356e-01,9.99999e-01
1.742000236e+00,2.69412e-01,2.78603e-01,9.67010e-01,9.99999e-01
1.750710237e+00,5.71052e-03,5.90142e-03,9.67651e-01,9.99999e-01
1.759463788e+00,1.84943e-34,1.91001e-34,9.68279e-01,9.99999e-01
1.768261107e+00,4.09006e-36,4.22136e-36,9.68896e-01,9.99999e-01
1.777102413e+00,6.80071e-35,7.01465e-35,9.69501e-01,9.99999e-01
1.785987925e+00,5.05583e-33,5.21169e-33,9.70094e-01,9.99999e-01
1.794917864e+00,1.66298e-31,1.71322e-31,9.70676e-01,9.99999e-01
1.803892454e+00,2.00476e-30,2.06410e-30,9.71247e-01,9.99999e-01
1.812911916e+00,3.53432e-29,3.63685e-29,9.71807e-01,9.99999e-01
1.821976476e+00,2.65406e-29,2.72951e-29,9.72356e-01,9.99999e-01
1.831086358e+00,9.54583e-24,9.81178e-24,9.72894e-01,9.99999e-01
1.840241790e+00,3.12505e-20,3.21037e-20,9.73423e-01,9.99999e-01
1.849442999e+00,3.75507e-14,3.85554e-14,9.73941e-01,9.99999e-01
1.858690214e+00,3.69545e-13,3.79234e-13,9.74449e-01,9.99999e-01
1.867983665e+00,6.86650e-14,7.04294e-14,9.74947e-01,9.99999e-01
1.877323583e+00,4.91388e-65,5.03762e-65,9.75436e-01,9.99999e-01
