#,Wave/freq,Total,CO2,Rayleigh,CIA
4.000000000e-01,4.19354e-03,9.99999e-01,4.19354e-03,9.99999e-01
4.020000000e-01,4.67293e-03,9.99999e-01,4.67293e-03,9.99999e-01
4.040100000e-01,5.19542e-03,9.99999e-01,5.19542e-03,9.99999e-01
4.060300500e-01,5.76425e-03,9.99999e-01,5.76425e-03,9.99999e-01
4.080602003e-01,6.38225e-03,9.99999e-01,6.38225e-03,9.99999e-01
4.101005013e-01,7.05230e-03,9.99999e-01,7.05230e-03,9.99999e-01
4.121510038e-01,7.77735e-03,9.99999e-01,7.77735e-03,9.99999e-01
4.142117588e-01,8.56038e-03,9.99999e-01,8.56038e-03,9.99999e-01
4.162828176e-01,9.40441e-03,9.99999e-01,9.40441e-03,9.99999e-01
4.183642317e-01,1.03125e-02,9.99999e-01,1.03125e-02,9.99999e-01
4.204560528e-01,1.12877e-02,9.99999e-01,1.12877e-02,9.99999e-01
4.225583331e-01,1.23330e-02,9.99999e-01,1.23330e-02,9.99999e-01
4.246711247e-01,1.34517e-02,9.99999e-01,1.34517e-02,9.99999e-01
4.267944804e-01,1.46466e-02,9.99999e-01,1.46466e-02,9.99999e-01
4.289284528e-01,1.59209e-02,9.99999e-01,1.59209e-02,9.99999e-01
4.310730950e-01,1.72776e-02,9.99999e-01,1.72776e-02,9.99999e-01
4.332284605e-01,1.87197e-02,9.99999e-01,1.87197e-02,9.99999e-01
4.353946028e-01,2.02500e-02,9.99999e-01,2.02500e-02,9.99999e-01
4.375715758e-01,2.18714e-02,9.99999e-01,2.18714e-02,9.99999e-01
4.397594337e-01,2.35868e-02,9.99999e-01,2.35868e-02,9.99999e-01
4.419582309e-01,2.53987e-02,9.99999e-01,2.53987e-02,9.99999e-01
4.441680220e-01,2.73100e-02,9.99999e-01,2.73100e-02,9.99999e-01
4.463888621e-01,2.93229e-02,9.99999e-01,2.93229e-02,9.99999e-01
4.486208064e-01,3.14401e-02,9.99999e-01,3.14401e-02,9.99999e-01
4.508639105e-01,3.36638e-02,9.99999e-01,3.36638e-02,9.99999e-01
4.531182300e-01,3.59960e-02,9.99999e-01,3.59960e-02,9.99999e-01
4.553838212e-01,3.84390e-02,9.99999e-01,3.84390e-02,9.99999e-01
4.576607403e-01,4.09946e-02,9.99999e-01,4.09946e-02,9.99999e-01
4.599490440e-01,4.36645e-02,9.99999e-01,4.36645e-02,9.99999e-01
4.622487892e-01,4.64504e-02,9.99999e-01,4.64504e-02,9.99999e-01
4.645600332e-01,4.93537e-02,9.99999e-01,4.93537e-02,9.99999e-01
4.668828333e-01,5.23757e-02,9.99999e-01,5.23757e-02,9.99999e-01
4.692172475e-01,5.55175e-02,9.99999e-01,5.55175e-02,9.99999e-01
4.715633337e-01,5.87802e-02,9.99999e-01,5.87802e-02,9.99999e-01
4.739211504e-01,6.21644e-02,9.99999e-01,6.21644e-02,9.99999e-01
4.762907561e-01,6.56708e-02,9.99999e-01,6.56708e-02,9.99999e-01
4.786722099e-01,6.92998e-02,9.99999e-01,6.92998e-02,9.99999e-01
4.810655710e-01,7.30517e-02,9.99999e-01,7.30517e-02,9.99999e-01
4.834708988e-01,7.69266e-02,9.99999e-01,7.69266e-02,9.99999e-01
4.858882533e-01,8.09243e-02,9.99999e-01,8.09243e-02,9.99999e-01
4.883176946e-01,8.50447e-02,9.99999e-01,8.50447e-02,9.99999e-01
4.907592831e-01,8.92872e-02,9.99999e-01,8.92872e-02,9.99999e-01
4.932130795e-01,9.36513e-02,9.99999e-01,9.36513e-02,9.99999e-01
4.956791449e-01,9.81361e-02,9.99999e-01,9.81361e-02,9.99999e-01
4.981575406e-01,1.02741e-01,9.99999e-01,1.02741e-01,9.99999e-01
5.006483283e-01,1.07464e-01,9.99999e-01,1.07464e-01,9.99999e-01
5.031515699e-01,1.12305e-01,9.99999e-01,1.12305e-01,9.99999e-01
5.056673278e-01,1.17261e-01,9.99999e-01,1.17261e-01,9.99999e-01
5.081956644e-01,1.22332e-01,9.99999e-01,1.22332e-01,9.99999e-01
5.107366428e-01,1.27516e-01,9.99999e-01,1.27516e-01,9.99999e-01
5.132903260e-01,1.32810e-01,9.99999e-01,1.32810e-01,9.99999e-01
5.158567776e-01,1.38214e-01,9.99999e-01,1.38214e-01,9.99999e-01
5.184360615e-01,1.43723e-01,9.99999e-01,1.43723e-01,9.99999e-01
5.210282418e-01,1.49337e-01,9.99999e-01,1.49337e-01,9.99999e-01
5.236333830e-01,1.55053e-01,9.99999e-01,1.55053e-01,9.99999e-01
5.262515499e-01,1.60868e-01,9.99999e-01,1.60868e-01,9.99999e-01
5.288828077e-01,1.66780e-01,9.99999e-01,1.66780e-01,9.99999e-01
5.315272217e-01,1.72786e-01,9.99999e-01,1.72786e-01,9.99999e-01
5.341848578e-01,1.78883e-01,9.99999e-01,1.78883e-01,9.99999e-01
5.368557821e-01,1.85069e-01,9.99999e-01,1.85069e-01,9.99999e-01
5.395400610e-01,1.91340e-01,9.99999e-01,1.91340e-01,9.99999e-01
5.422377613e-01,1.97693e-01,9.99999e-01,1.97693e-01,9.99999e-01
5.449489501e-01,2.04126e-01,9.99999e-01,2.04126e-01,9.99999e-01
5.476736949e-01,2.10634e-01,9.99999e-01,2.10634e-01,9.99999e-01
5.504120634e-01,2.17215e-01,9.99999e-01,2.17215e-01,9.99999e-01
5.531641237e-01,2.23866e-01,9.99999e-01,2.23866e-01,9.99999e-01
5.559299443e-01,2.30583e-01,9.99999e-01,2.30583e-01,9.99999e-01
5.587095940e-01,2.37363e-01,9.99999e-01,2.37363e-01,9.99999e-01
5.615031420e-01,2.44203e-01,9.99999e-01,2.44203e-01,9.99999e-01
5.643106577e-01,2.51099e-01,9.99999e-01,2.51099e-01,9.99999e-01
5.671322110e-01,2.58047e-01,9.99999e-01,2.58047e-01,9.99999e-01
5.699678720e-01,2.65045e-01,9.99999e-01,2.65045e-01,9.99999e-01
5.728177114e-01,2.72088e-01,9.99999e-01,2.72088e-01,9.99999e-01
5.756818000e-01,2.79175e-01,9.99999e-01,2.79175e-01,9.99999e-01
5.785602090e-01,2.86300e-01,9.99999e-01,2.86300e-01,9.99999e-01
5.814530100e-01,2.93461e-01,9.99999e-01,2.93461e-01,9.99999e-01
5.843602750e-01,3.00654e-01,9.99999e-01,3.00654e-01,9.99999e-01
5.872820764e-01,3.07877e-01,9.99999e-01,3.07877e-01,9.99999e-01
5.902184868e-01,3.15125e-01,9.99999e-01,3.15125e-01,9.99999e-01
5.931695792e-01,3.22396e-01,9.99999e-01,3.22396e-01,9.99999e-01
5.961354271e-01,3.29685e-01,9.99999e-01,3.29685e-01,9.99999e-01
5.991161043e-01,3.36991e-01,9.99999e-01,3.36991e-01,9.99999e-01
6.021116848e-01,3.44310e-01,9.99999e-01,3.44310e-01,9.99999e-01
6.051222432e-01,3.51638e-01,9.99999e-01,3.51638e-01,9.99999e-01
6.081478544e-01,3.58972e-01,9.99999e-01,3.58972e-01,9.99999e-01
6.111885937e-01,3.66311e-01,9.99999e-01,3.66311e-01,9.99999e-01
6.142445367e-01,3.73650e-01,9.99999e-01,3.73650e-01,9.99999e-01
6.173157594e-01,3.80987e-01,9.99999e-01,3.80987e-01,9.99999e-01
6.204023382e-01,3.88318e-01,9.99999e-01,3.88318e-01,9.99999e-01
6.235043498e-01,3.95642e-01,9.99999e-01,3.95642e-01,9.99999e-01
6.266218716e-01,4.02955e-01,9.99999e-01,4.02955e-01,9.99999e-01
6.297549810e-01,4.10255e-01,9.99999e-01,4.10255e-01,9.99999e-01
6.329037559e-01,4.17539e-01,9.99999e-01,4.17539e-01,9.99999e-01
6.360682746e-01,4.24804e-01,9.99999e-01,4.24804e-01,9.99999e-01
6.392486160e-01,4.32049e-01,9.99999e-01,4.32049e-01,9.99999e-01
6.424448591e-01,4.39271e-01,9.99999e-01,4.39271e-01,9.99999e-01
6.456570834e-01,4.46467e-01,9.99999e-01,4.46467e-01,9.99999e-01
6.488853688e-01,4.53635e-01,9.99999e-01,4.53635e-01,9.99999e-01
6.521297956e-01,4.60774e-01,9.99999e-01,4.60774e-01,9.99999e-01
6.553904446e-01,4.67880e-01,9.99999e-01,4.67880e-01,9.99999e-01
6.586673968e-01,4.74953e-01,9.99999e-01,4.74953e-01,9.99999e-01
6.619607338e-01,4.81989e-01,9.99999e-01,4.81989e-01,9.99999e-01
6.652705375e-01,4.88988e-01,9.99999e-01,4.88988e-01,9.99999e-01
6.685968902e-01,4.95947e-01,9.99999e-01,4.95947e-01,9.99999e-01
6.719398746e-01,5.02865e-01,9.99999e-01,5.02865e-01,9.99999e-01
6.752995740e-01,5.09739e-01,9.99999e-01,5.09739e-01,9.99999e-01
6.786760719e-01,5.16569e-01,9.99999e-01,5.16569e-01,9.99999e-01
6.820694522e-01,5.23353e-01,9.99999e-01,5.23353e-01,9.99999e-01
6.854797995e-01,5.30090e-01,9.99999e-01,5.30090e-01,9.99999e-01
6.889071985e-01,5.36778e-01,9.99999e-01,5.36778e-01,9.99999e-01
6.923517345e-01,5.43415e-01,9.99999e-01,5.43415e-01,9.99999e-01
6.958134932e-01,5.50001e-01,9.99999e-01,5.50001e-01,9.99999e-01
6.992925606e-01,5.56534e-01,9.99999e-01,5.56534e-01,9.99999e-01
7.027890234e-01,5.63014e-01,9.99999e-01,5.63014e-01,9.99999e-01
7.063029686e-01,5.69439e-01,9.99999e-01,5.69439e-01,9.99999e-01
7.098344834e-01,5.75808e-01,9.99999e-01,5.75808e-01,9.99999e-01
7.133836558e-01,5.82120e-01,9.99999e-01,5.82120e-01,9.99999e-01
7.169505741e-01,5.88375e-01,9.99999e-01,5.88375e-01,9.99999e-01
7.205353270e-01,5.94571e-01,9.99999e-01,5.94571e-01,9.99999e-01
7.241380036e-01,6.00709e-01,9.99999e-01,6.00709e-01,9.99999e-01
7.277586936e-01,6.06786e-01,9.99999e-01,6.06786e-01,9.99999e-01
7.313974871e-01,6.12804e-01,9.99999e-01,6.12804e-01,9.99999e-01
7.350544745e-01,6.18760e-01,9.99999e-01,6.18760e-01,9.99999e-01
7.387297469e-01,6.24655e-01,9.99999e-01,6.24655e-01,9.99999e-01
7.424233956e-01,6.30488e-01,9.99999e-01,6.30488e-01,9.99999e-01
7.461355126e-01,6.36259e-01,9.99999e-01,6.36259e-01,9.99999e-01
7.498661902e-01,6.41967e-01,9.99999e-01,6.41967e-01,9.99999e-01
7.536155211e-01,6.47612e-01,9.99999e-01,6.47612e-01,9.99999e-01
7.573835987e-01,6.53193e-01,9.99999e-01,6.53193e-01,9.99999e-01
7.611705167e-01,6.58711e-01,9.99999e-01,6.58711e-01,9.99999e-01
7.649763693e-01,6.64165e-01,9.99999e-01,6.64165e-01,9.99999e-01
7.688012511e-01,6.69556e-01,9.99999e-01,6.69556e-01,9.99999e-01
7.726452574e-01,6.74882e-01,9.99999e-01,6.74882e-01,9.99999e-01
7.765084837e-01,6.80144e-01,9.99999e-01,6.80144e-01,9.99999e-01
7.803910261e-01,6.72669e-01,9.81508e-01,6.85342e-01,9.99999e-01
7.842929812e-01,6.36612e-01,9.21989e-01,6.90476e-01,9.99999e-01
7.882144461e-01,6.37548e-01,9.16615e-01,6.95546e-01,9.99999e-01
7.921555184e-01,6.66358e-01,9.51189e-01,7.00552e-01,9.99999e-01
7.961162960e-01,6.82256e-01,9.67060e-01,7.05494e-01,9.99999e-01
8.000968774e-01,6.97607e-01,9.82030e-01,7.10372e-01,9.99999e-01
8.040973618e-01,7.08496e-01,9.90643e-01,7.15187e-01,9.99999e-01
8.081178486e-01,7.16844e-01,9.95702e-01,7.19938e-01,9.99999e-01
8.121584379e-01,7.23660e-01,9.98667e-01,7.24626e-01,9.99999e-01
8.162192301e-01,7.29036e-01,9.99705e-01,7.29251e-01,9.99999e-01
8.203003262e-01,7.33810e-01,9.99994e-01,7.33813e-01,9.99999e-01
8.244018279e-01,7.38313e-01,9.99999e-01,7.38313e-01,9.99999e-01
8.285238370e-01,7.42751e-01,9.99999e-01,7.42751e-01,9.99999e-01
8.326664562e-01,7.47126e-01,9.99999e-01,7.47126e-01,9.99999e-01
8.368297885e-01,7.51441e-01,9.99999e-01,7.51441e-01,9.99999e-01
8.410139374e-01,7.55695e-01,9.99999e-01,7.55695e-01,9.99999e-01
8.452190071e-01,7.59887e-01,9.99999e-01,7.59887e-01,9.99999e-01
8.494451021e-01,7.64020e-01,9.99999e-01,7.64020e-01,9.99999e-01
8.536923276e-01,7.68093e-01,9.99999e-01,7.68093e-01,9.99999e-01
8.579607893e-01,7.72106e-01,9.99999e-01,7.72106e-01,9.99999e-01
8.622505932e-01,7.76061e-01,9.99999e-01,7.76061e-01,9.99999e-01
8.665618462e-01,7.42347e-01,9.51779e-01,7.79957e-01,9.99999e-01
8.708946554e-01,6.36057e-01,8.11508e-01,7.83795e-01,9.99999e-01
8.752491287e-01,6.66786e-01,8.46630e-01,7.87575e-01,9.99999e-01
8.796253743e-01,7.22760e-01,9.13383e-01,7.91299e-01,9.99999e-01
8.840235012e-01,7.58660e-01,9.54329e-01,7.94966e-01,9.99999e-01
8.884436187e-01,7.84008e-01,9.81755e-01,7.98577e-01,9.99999e-01
8.928858368e-01,7.96183e-01,9.92582e-01,8.02133e-01,9.99999e-01
8.973502660e-01,8.04176e-01,9.98190e-01,8.05634e-01,9.99999e-01
9.018370173e-01,8.08919e-01,9.99800e-01,8.09081e-01,9.99999e-01
9.063462024e-01,8.08345e-01,9.94918e-01,8.12474e-01,9.99999e-01
9.108779334e-01,8.06286e-01,9.88322e-01,8.15813e-01,9.99999e-01
9.154323231e-01,8.16839e-01,9.97239e-01,8.19100e-01,9.99999e-01
9.200094847e-01,7.89177e-01,9.59677e-01,8.22335e-01,9.99999e-01
9.246095321e-01,7.79336e-01,9.44056e-01,8.25518e-01,9.99999e-01
9.292325798e-01,7.92060e-01,9.55842e-01,8.28651e-01,9.99999e-01
9.338787427e-01,7.96189e-01,9.57264e-01,8.31733e-01,9.99999e-01
9.385481364e-01,8.08462e-01,9.68489e-01,8.34765e-01,9.99999e-01
9.432408771e-01,8.21496e-01,9.80598e-01,8.37749e-01,9.99999e-01
9.479570815e-01,8.32286e-01,9.90011e-01,8.40683e-01,9.99999e-01
9.526968669e-01,8.39494e-01,9.95167e-01,8.43570e-01,9.99999e-01
9.574603512e-01,8.44659e-01,9.97931e-01,8.46409e-01,9.99999e-01
9.622476530e-01,8.48654e-01,9.99354e-01,8.49202e-01,9.99999e-01
9.670588912e-01,8.51783e-01,9.99806e-01,8.51948e-01,9.99999e-01
9.718941857e-01,8.54637e-01,9.99985e-01,8.54649e-01,9.99999e-01
9.767536566e-01,8.57304e-01,9.99999e-01,8.57304e-01,9.99999e-01
9.816374249e-01,8.59915e-01,9.99999e-01,8.59915e-01,9.99999e-01
9.865456120e-01,8.62483e-01,9.99999e-01,8.62483e-01,9.99999e-01
9.914783401e-01,8.65007e-01,9.99999e-01,8.65007e-01,9.99999e-01
9.964357318e-01,8.67488e-01,9.99999e-01,8.67488e-01,9.99999e-01
1.001417910e+00,8.69927e-01,9.99999e-01,8.69927e-01,9.99999e-01
1.006425000e+00,8.72325e-01,9.99999e-01,8.72325e-01,9.99999e-01
1.011457125e+00,8.74682e-01,9.99999e-01,8.74682e-01,9.99999e-01
1.016514411e+00,8.76998e-01,9.99999e-01,8.76998e-01,9.99999e-01
1.021596983e+00,8.79252e-01,9.99973e-01,8.79275e-01,9.99999e-01
1.026704968e+00,8.79772e-01,9.98025e-01,8.81512e-01,9.99999e-01
1.031838492e+00,8.59261e-01,9.72332e-01,8.83711e-01,9.99999e-01
1.036997685e+00,2.37311e-01,2.67884e-01,8.85871e-01,9.99999e-01
1.042182673e+00,2.75418e-01,3.10157e-01,8.87994e-01,9.99999e-01
1.047393587e+00,2.62288e-01,2.94679e-01,8.90080e-01,9.99999e-01
1.052630555e+00,3.35745e-02,3.76340e-02,8.92130e-01,9.99999e-01
1.057893707e+00,6.50841e-02,7.27893e-02,8.94143e-01,9.99999e-01
1.063183176e+00,1.33847e-01,1.49362e-01,8.96122e-01,9.99999e-01
1.068499092e+00,2.51294e-01,2.79817e-01,8.98065e-01,9.99999e-01
1.073841587e+00,4.02774e-01,4.47539e-01,8.99974e-01,9.99999e-01
1.079210795e+00,5.43060e-01,6.02162e-01,9.01850e-01,9.99999e-01
1.084606849e+00,6.84932e-01,7.57926e-01,9.03692e-01,9.99999e-01
1.090029883e+00,7.84488e-01,8.66357e-01,9.05501e-01,9.99999e-01
1.095480033e+00,8.45389e-01,9.31785e-01,9.07278e-01,9.99999e-01
1.100957433e+00,8.78648e-01,9.66583e-01,9.09024e-01,9.99999e-01
1.106462220e+00,8.98028e-01,9.86043e-01,9.10738e-01,9.99999e-01
1.111994531e+00,9.07683e-01,9.94806e-01,9.12422e-01,9.99999e-01
1.117554504e+00,9.12913e-01,9.98727e-01,9.14075e-01,9.99999e-01
1.123142276e+00,9.15622e-01,9.99915e-01,9.15699e-01,9.99999e-01
1.128757988e+00,9.17293e-01,9.99999e-01,9.17293e-01,9.99999e-01
1.134401778e+00,9.18858e-01,9.99999e-01,9.18858e-01,9.99999e-01
1.140073787e+00,9.20396e-01,9.99999e-01,9.20396e-01,9.99999e-01
1.145774156e+00,9.21905e-01,9.99999e-01,9.21905e-01,9.99999e-01
1.151503026e+00,9.23387e-01,9.99999e-01,9.23387e-01,9.99999e-01
1.157260541e+00,9.24842e-01,9.99999e-01,9.24842e-01,9.99999e-01
1.163046844e+00,9.26270e-01,9.99999e-01,9.26270e-01,9.99999e-01
1.168862078e+00,9.27672e-01,9.99999e-01,9.27672e-01,9.99999e-01
1.174706389e+00,9.29049e-01,9.99999e-01,9.29049e-01,9.99999e-01
1.180579921e+00,9.30401e-01,9.99999e-01,9.30401e-01,9.99999e-01
1.186482820e+00,9.31724e-01,9.99996e-01,9.31727e-01,9.99999e-01
1.192415234e+00,9.26428e-01,9.92924e-01,9.33030e-01,9.99999e-01
1.198377311e+00,5.43949e-01,5.82194e-01,9.34308e-01,9.99999e-01
1.204369197e+00,5.38532e-07,5.75623e-07,9.35563e-01,9.99999e-01
1.210391043e+00,1.21371e-22,1.29560e-22,9.36794e-01,9.99999e-01
1.216442998e+00,7.66471e-20,8.17129e-20,9.38003e-01,9.99999e-01
1.222525213e+00,1.46981e-19,1.56498e-19,9.39190e-01,9.99999e-01
1.228637839e+00,4.57412e-15,4.86425e-15,9.40354e-01,9.99999e-01
1.234781029e+00,2.37775e-10,2.52549e-10,9.41497e-01,9.99999e-01
1.240954934e+00,4.87390e-07,5.17058e-07,9.42619e-01,9.99999e-01
1.247159708e+00,2.89973e-04,3.07265e-04,9.43720e-01,9.99999e-01
1.253395507e+00,1.05888e-02,1.12074e-02,9.44800e-01,9.99999e-01
1.259662485e+00,7.36590e-02,7.78751e-02,9.45861e-01,9.99999e-01
1.265960797e+00,2.15137e-01,2.27201e-01,9.46901e-01,9.99999e-01
1.272290601e+00,5.15672e-01,5.44002e-01,9.47922e-01,9.99999e-01
1.278652054e+00,4.55785e-01,4.80317e-01,9.48924e-01,9.99999e-01
1.285045314e+00,3.33038e-02,3.50600e-02,9.49907e-01,9.99999e-01
1.291470541e+00,2.38021e-03,2.50319e-03,9.50872e-01,9.99999e-01
1.297927893e+00,3.44900e-02,3.62358e-02,9.51819e-01,9.99999e-01
1.304417533e+00,3.16006e-01,3.31678e-01,9.52747e-01,9.99999e-01
1.310939621e+00,8.86204e-02,9.29266e-02,9.53659e-01,9.99999e-01
1.317494319e+00,3.13905e-08,3.28850e-08,9.54553e-01,9.99999e-01
1.324081790e+00,4.85579e-06,5.08230e-06,9.55430e-01,9.99999e-01
1.330702199e+00,1.42966e-03,1.49501e-03,9.56291e-01,9.99999e-01
1.337355710e+00,1.05816e-03,1.10555e-03,9.57136e-01,9.99999e-01
1.344042489e+00,3.53086e-04,3.68579e-04,9.57964e-01,9.99999e-01
1.350762701e+00,1.07079e-03,1.11683e-03,9.58777e-01,9.99999e-01
1.357516515e+00,1.09800e-02,1.14426e-02,9.59575e-01,9.99999e-01
1.364304097e+00,5.89363e-02,6.13691e-02,9.60357e-01,9.99999e-01
1.371125618e+00,2.19839e-01,2.28731e-01,9.61125e-01,9.99999e-01
1.377981246e+00,2.95807e-01,3.07531e-01,9.61878e-01,9.99999e-01
1.384871152e+00,4.84434e-01,5.03247e-01,9.62617e-01,9.99999e-01
1.391795508e+00,5.10953e-01,5.30396e-01,9.63341e-01,9.99999e-01
1.398754485e+00,6.52850e-01,6.77193e-01,9.64052e-01,9.99999e-01
1.405748258e+00,7.23456e-01,7.49889e-01,9.64750e-01,9.99999e-01
1.412776999e+00,8.05200e-01,8.34029e-01,9.65434e-01,9.99999e-01
1.419840884e+00,7.44888e-01,7.71022e-01,9.66105e-01,9.99999e-01
1.426940089e+00,9.69481e-02,1.00281e-01,9.66763e-01,9.99999e-01
1.434074789e+00,2.42092e-321,2.49997e-321,9.67409e-01,9.99999e-01
1.441245163e+00,0.00000e+00,0.00000e+00,9.68042e-01,9.99999e-01
1.448451389e+00,0.00000e+00,0.00000e+00,9.68663e-01,9.99999e-01
1.455693646e+00,2.36425e-174,2.43919e-174,9.69273e-01,9.99999e-01
1.462972114e+00,5.02513e-85,5.18123e-85,9.69870e-01,9.99999e-01
1.470286975e+00,2.61497e-36,2.69458e-36,9.70456e-01,9.99999e-01
1.477638409e+00,1.87936e-23,1.93542e-23,9.71031e-01,9.99999e-01
1.485026601e+00,1.08804e-13,1.11985e-13,9.71595e-01,9.99999e-01
1.492451734e+00,1.16613e-11,1.19953e-11,9.72149e-01,9.99999e-01
1.499913993e+00,5.45322e-06,5.60632e-06,9.72691e-01,9.99999e-01
1.507413563e+00,7.10530e-05,7.30079e-05,9.73223e-01,9.99999e-01
1.514950631e+00,3.01206e-06,3.09327e-06,9.73745e-01,9.99999e-01
1.522525384e+00,3.48505e-17,3.57713e-17,9.74257e-01,9.99999e-01
1.530138011e+00,1.59758e-38,1.63895e-38,9.74759e-01,9.99999e-01
1.537788701e+00,6.17361e-29,6.33027e-29,9.75251e-01,9.99999e-01
1.545477645e+00,1.68567e-07,1.72759e-07,9.75734e-01,9.99999e-01
1.553205033e+00,5.61056e-05,5.74730e-05,9.76208e-01,9.99999e-01
1.560971058e+00,1.47995e-05,1.51530e-05,9.76672e-01,9.99999e-01
1.568775913e+00,3.05605e-95,3.12758e-95,9.77128e-01,9.99999e-01
1.576619793e+00,1.30656e-221,1.33653e-221,9.77574e-01,9.99999e-01
1.584502892e+00,2.14454e-121,2.19275e-121,9.78012e-01,9.99999e-01
1.592425406e+00,6.33244e-85,6.47196e-85,9.78442e-01,9.99999e-01
1.600387533e+00,3.61597e-136,3.69404e-136,9.78863e-01,9.99999e-01
1.608389471e+00,4.97276e-228,5.07799e-228,9.79276e-01,9.99999e-01
1.616431418e+00,1.84231e-229,1.88052e-229,9.79681e-01,9.99999e-01
1.624513575e+00,1.22230e-107,1.24714e-107,9.80079e-01,9.99999e-01
1.632636143e+00,2.57824e-80,2.62960e-80,9.80468e-01,9.99999e-01
1.640799324e+00,9.11305e-34,9.29096e-34,9.80850e-01,9.99999e-01
1.649003321e+00,1.05323e-33,1.07338e-33,9.81225e-01,9.99999e-01
1.657248337e+00,2.32669e-26,2.37032e-26,9.81592e-01,9.99999e-01
1.665534579e+00,1.55541e-26,1.58400e-26,9.81953e-01,9.99999e-01
1.673862252e+00,1.93852e-17,1.97344e-17,9.82306e-01,9.99999e-01
1.682231563e+00,1.58711e-12,1.61513e-12,9.82652e-01,9.99999e-01
1.690642721e+00,1.11733e-07,1.13666e-07,9.82992e-01,9.99999e-01
1.699095934e+00,5.07419e-05,5.16023e-05,9.83325e-01,9.99999e-01
1.707591414e+00,4.97234e-03,5.05497e-03,9.83652e-01,9.99999e-01
1.716129371e+00,5.51026e-02,5.60001e-02,9.83972e-01,9.99999e-01
1.724710018e+00,2.11119e-01,2.14489e-01,9.84286e-01,9.99999e-01
1.733333568e+00,3.67114e-01,3.72858e-01,9.84594e-01,9.99999e-01
1.742000236e+00,5.34217e-01,5.42409e-01,9.84896e-01,9.99999e-01
1.750710237e+00,3.50845e-02,3.56118e-02,9.85192e-01,9.99999e-01
1.759463788e+00,1.36794e-16,1.38809e-16,9.85483e-01,9.99999e-01
1.768261107e+00,1.30849e-17,1.32738e-17,9.85767e-01,9.99999e-01
1.777102413e+00,1.57535e-16,1.59764e-16,9.86046e-01,9.99999e-01
1.785987925e+00,4.67992e-16,4.74482e-16,9.86320e-01,9.99999e-01
1.794917864e+00,4.28545e-15,4.34370e-15,9.86588e-01,9.99999e-01
1.803892454e+00,5.27027e-15,5.34049e-15,9.86852e-01,9.99999e-01
1.812911916e+00,3.38773e-14,3.43197e-14,9.87110e-01,9.99999e-01
1.821976476e+00,1.99151e-14,2.01700e-14,9.87363e-01,9.99999e-01
1.831086358e+00,6.86924e-12,6.95541e-12,9.87611e-01,9.99999e-01
1.840241790e+00,4.73851e-10,4.79676e-10,9.87854e-01,9.99999e-01
1.849442999e+00,4.07725e-07,4.12639e-07,9.88092e-01,9.99999e-01
1.858690214e+00,1.96181e-06,1.98498e-06,9.88326e-01,9.99999e-01
1.867983665e+00,3.17219e-07,3.20891e-07,9.88555e-01,9.99999e-01
1.877323583e+00,1.26299e-30,1.27732e-30,9.88780e-01,9.99999e-01
