#,Wave/freq,Total,CO2,Rayleigh,CIA
4.000000000e-01,1.92275e-07,9.99999e-01,1.92275e-07,9.99999e-01
4.020000000e-01,2.61045e-07,9.99999e-01,2.61045e-07,9.99999e-01
4.040100000e-01,3.52170e-07,9.99999e-01,3.52170e-07,9.99999e-01
4.060300500e-01,4.72302e-07,9.99999e-01,4.72302e-07,9.99999e-01
4.080602003e-01,6.29752e-07,9.99999e-01,6.29752e-07,9.99999e-01
4.101005013e-01,8.34933e-07,9.99999e-01,8.34933e-07,9.99999e-01
4.121510038e-01,1.10081e-06,9.99999e-01,1.10081e-06,9.99999e-01
4.142117588e-01,1.44346e-06,9.99999e-01,1.44346e-06,9.99999e-01
4.162828176e-01,1.88266e-06,9.99999e-01,1.88266e-06,9.99999e-01
4.183642317e-01,2.44263e-06,9.99999e-01,2.44263e-06,9.99999e-01
4.204560528e-01,3.15291e-06,9.99999e-01,3.15291e-06,9.99999e-01
4.225583331e-01,4.04927e-06,9.99999e-01,4.04927e-06,9.99999e-01
4.246711247e-01,5.17480e-06,9.99999e-01,5.17480e-06,9.99999e-01
4.267944804e-01,6.58124e-06,9.99999e-01,6.58124e-06,9.99999e-01
4.289284528e-01,8.33027e-06,9.99999e-01,8.33027e-06,9.99999e-01
4.310730950e-01,1.04951e-05,9.99999e-01,1.04951e-05,9.99999e-01
4.332284605e-01,1.31624e-05,9.99999e-01,1.31624e-05,9.99999e-01
4.353946028e-01,1.64339e-05,9.99999e-01,1.64339e-05,9.99999e-01
4.375715758e-01,2.04288e-05,9.99999e-01,2.04288e-05,9.99999e-01
4.397594337e-01,2.52858e-05,9.99999e-01,2.52858e-05,9.99999e-01
4.419582309e-01,3.11660e-05,9.99999e-01,3.11660e-05,9.99999e-01
4.441680220e-01,3.82554e-05,9.99999e-01,3.82554e-05,9.99999e-01
4.463888621e-01,4.67676e-05,9.99999e-01,4.67676e-05,9.99999e-01
4.486208064e-01,5.69475e-05,9.99999e-01,5.69475e-05,9.99999e-01
4.508639105e-01,6.90739e-05,9.99999e-01,6.90739e-05,9.99999e-01
4.531182300e-01,8.34638e-05,9.99999e-01,8.34638e-05,9.99999e-01
4.553838212e-01,1.00475e-04,9.99999e-01,1.00475e-04,9.99999e-01
4.576607403e-01,1.20511e-04,9.99999e-01,1.20511e-04,9.99999e-01
4.599490440e-01,1.44025e-04,9.99999e-01,1.44025e-04,9.99999e-01
4.622487892e-01,1.71521e-04,9.99999e-01,1.71521e-04,9.99999e-01
4.645600332e-01,2.03563e-04,9.99999e-01,2.03563e-04,9.99999e-01
4.668828333e-01,2.40775e-04,9.99999e-01,2.40775e-04,9.99999e-01
4.692172475e-01,2.83847e-04,9.99999e-01,2.83847e-04,9.99999e-01
4.715633337e-01,3.33537e-04,9.99999e-01,3.33537e-04,9.99999e-01
4.739211504e-01,3.90679e-04,9.99999e-01,3.90679e-04,9.99999e-01
4.762907561e-01,4.56184e-04,9.99999e-01,4.56184e-04,9.99999e-01
4.786722099e-01,5.31044e-04,9.99999e-01,5.31044e-04,9.99999e-01
4.810655710e-01,6.16336e-04,9.99999e-01,6.16336e-04,9.99999e-01
4.834708988e-01,7.13225e-04,9.99999e-01,7.13225e-04,9.99999e-01
4.858882533e-01,8.22968e-04,9.99999e-01,8.22968e-04,9.99999e-01
4.883176946e-01,9.46917e-04,9.99999e-01,9.46917e-04,9.99999e-01
4.907592831e-01,1.08652e-03,9.99999e-01,1.08652e-03,9.99999e-01
4.932130795e-01,1.24332e-03,9.99999e-01,1.24332e-03,9.99999e-01
4.956791449e-01,1.41897e-03,9.99999e-01,1.41897e-03,9.99999e-01
4.981575406e-01,1.61521e-03,9.99999e-01,1.61521e-03,9.99999e-01
5.006483283e-01,1.83388e-03,9.99999e-01,1.83388e-03,9.99999e-01
5.031515699e-01,2.07696e-03,9.99999e-01,2.07696e-03,9.99999e-01
5.056673278e-01,2.34647e-03,9.99999e-01,2.34647e-03,9.99999e-01
5.081956644e-01,2.64457e-03,9.99999e-01,2.64457e-03,9.99999e-01
5.107366428e-01,2.97352e-03,9.99999e-01,2.97352e-03,9.99999e-01
5.132903260e-01,3.33564e-03,9.99999e-01,3.33564e-03,9.99999e-01
5.158567776e-01,3.73339e-03,9.99999e-01,3.73339e-03,9.99999e-01
5.184360615e-01,4.16927e-03,9.99999e-01,4.16927e-03,9.99999e-01
5.210282418e-01,4.64590e-03,9.99999e-01,4.64590e-03,9.99999e-01
5.236333830e-01,5.16596e-03,9.99999e-01,5.16596e-03,9.99999e-01
5.262515499e-01,5.73220e-03,9.99999e-01,5.73220e-03,9.99999e-01
5.288828077e-01,6.34747e-03,9.99999e-01,6.34747e-03,9.99999e-01
5.315272217e-01,7.01462e-03,9.99999e-01,7.01462e-03,9.99999e-01
5.341848578e-01,7.73662e-03,9.99999e-01,7.73662e-03,9.99999e-01
5.368557821e-01,8.51643e-03,9.99999e-01,8.51643e-03,9.99999e-01
5.395400610e-01,9.35707e-03,9.99999e-01,9.35707e-03,9.99999e-01
5.422377613e-01,1.02616e-02,9.99999e-01,1.02616e-02,9.99999e-01
5.449489501e-01,1.12331e-02,9.99999e-01,1.12331e-02,9.99999e-01
5.476736949e-01,1.22746e-02,9.99999e-01,1.22746e-02,9.99999e-01
5.504120634e-01,1.33891e-02,9.99999e-01,1.33891e-02,9.99999e-01
5.531641237e-01,1.45799e-02,9.99999e-01,1.45799e-02,9.99999e-01
5.559299443e-01,1.58498e-02,9.99999e-01,1.58498e-02,9.99999e-01
5.587095940e-01,1.72020e-02,9.99999e-01,1.72020e-02,9.99999e-01
5.615031420e-01,1.86393e-02,9.99999e-01,1.86393e-02,9.99999e-01
5.643106577e-01,2.01648e-02,9.99999e-01,2.01648e-02,9.99999e-01
5.671322110e-01,2.17812e-02,9.99999e-01,2.17812e-02,9.99999e-01
5.699678720e-01,2.34914e-02,9.99999e-01,2.34914e-02,9.99999e-01
5.728177114e-01,2.52981e-02,9.99999e-01,2.52981e-02,9.99999e-01
5.756818000e-01,2.72039e-02,9.99999e-01,2.72039e-02,9.99999e-01
5.785602090e-01,2.92113e-02,9.99999e-01,2.92113e-02,9.99999e-01
5.814530100e-01,3.13227e-02,9.99999e-01,3.13227e-02,9.99999e-01
5.843602750e-01,3.35405e-02,9.99999e-01,3.35405e-02,9.99999e-01
5.872820764e-01,3.58669e-02,9.99999e-01,3.58669e-02,9.99999e-01
5.902184868e-01,3.83038e-02,9.99999e-01,3.83038e-02,9.99999e-01
5.931695792e-01,4.08532e-02,9.99999e-01,4.08532e-02,9.99999e-01
5.961354271e-01,4.35169e-02,9.99999e-01,4.35169e-02,9.99999e-01
5.991161043e-01,4.62965e-02,9.99999e-01,4.62965e-02,9.99999e-01
6.021116848e-01,4.91934e-02,9.99999e-01,4.91934e-02,9.99999e-01
6.051222432e-01,5.22089e-02,9.99999e-01,5.22089e-02,9.99999e-01
6.081478544e-01,5.53443e-02,9.99999e-01,5.53443e-02,9.99999e-01
6.111885937e-01,5.86003e-02,9.99999e-01,5.86003e-02,9.99999e-01
6.142445367e-01,6.19779e-02,9.99999e-01,6.19779e-02,9.99999e-01
6.173157594e-01,6.54777e-02,9.99999e-01,6.54777e-02,9.99999e-01
6.204023382e-01,6.91001e-02,9.99999e-01,6.91001e-02,9.99999e-01
6.235043498e-01,7.28453e-02,9.99999e-01,7.28453e-02,9.99999e-01
6.266218716e-01,7.67135e-02,9.99999e-01,7.67135e-02,9.99999e-01
6.297549810e-01,8.07046e-02,9.99999e-01,8.07046e-02,9.99999e-01
6.329037559e-01,8.48184e-02,9.99999e-01,8.48184e-02,9.99999e-01
6.360682746e-01,8.90543e-02,9.99999e-01,8.90543e-02,9.99999e-01
6.392486160e-01,9.34118e-02,9.99999e-01,9.34118e-02,9.99999e-01
6.424448591e-01,9.78901e-02,9.99999e-01,9.78901e-02,9.99999e-01
6.456570834e-01,1.02488e-01,9.99999e-01,1.02488e-01,9.99999e-01
6.488853688e-01,1.07205e-01,9.99999e-01,1.07205e-01,9.99999e-01
6.521297956e-01,1.12040e-01,9.99999e-01,1.12040e-01,9.99999e-01
6.553904446e-01,1.16990e-01,9.99999e-01,1.16990e-01,9.99999e-01
6.586673968e-01,1.22055e-01,9.99999e-01,1.22055e-01,9.99999e-01
6.619607338e-01,1.27232e-01,9.99999e-01,1.27232e-01,9.99999e-01
6.652705375e-01,1.32521e-01,9.99999e-01,1.32521e-01,9.99999e-01
6.685968902e-01,1.37918e-01,9.99999e-01,1.37918e-01,9.99999e-01
6.719398746e-01,1.43422e-01,9.99999e-01,1.43422e-01,9.99999e-01
6.752995740e-01,1.49030e-01,9.99999e-01,1.49030e-01,9.99999e-01
6.786760719e-01,1.54741e-01,9.99999e-01,1.54741e-01,9.99999e-01
6.820694522e-01,1.60551e-01,9.99999e-01,1.60551e-01,9.99999e-01
6.854797995e-01,1.66457e-01,9.99999e-01,1.66457e-01,9.99999e-01
6.889071985e-01,1.72458e-01,9.99999e-01,1.72458e-01,9.99999e-01
6.923517345e-01,1.78551e-01,9.99999e-01,1.78551e-01,9.99999e-01
6.958134932e-01,1.84732e-01,9.99999e-01,1.84732e-01,9.99999e-01
6.992925606e-01,1.90998e-01,9.99999e-01,1.90998e-01,9.99999e-01
7.027890234e-01,1.97347e-01,9.99999e-01,1.97347e-01,9.99999e-01
7.063029686e-01,2.03775e-01,9.99999e-01,2.03775e-01,9.99999e-01
7.098344834e-01,2.10280e-01,9.99999e-01,2.10280e-01,9.99999e-01
7.133836558e-01,2.16857e-01,9.99999e-01,2.16857e-01,9.99999e-01
7.169505741e-01,2.23504e-01,9.99999e-01,2.23504e-01,9.99999e-01
7.205353270e-01,2.30218e-01,9.99999e-01,2.30218e-01,9.99999e-01
7.241380036e-01,2.36995e-01,9.99999e-01,2.36995e-01,9.99999e-01
7.277586936e-01,2.43831e-01,9.99999e-01,2.43831e-01,9.99999e-01
7.313974871e-01,2.50724e-01,9.99999e-01,2.50724e-01,9.99999e-01
7.350544745e-01,2.57669e-01,9.99999e-01,2.57669e-01,9.99999e-01
7.387297469e-01,2.64665e-01,9.99999e-01,2.64665e-01,9.99999e-01
7.424233956e-01,2.71706e-01,9.99999e-01,2.71706e-01,9.99999e-01
7.461355126e-01,2.78790e-01,9.99999e-01,2.78790e-01,9.99999e-01
7.498661902e-01,2.85913e-01,9.99999e-01,2.85913e-01,9.99999e-01
7.536155211e-01,2.93072e-01,9.99999e-01,2.93072e-01,9.99999e-01
7.573835987e-01,3.00264e-01,9.99999e-01,3.00264e-01,9.99999e-01
7.611705167e-01,3.07485e-01,9.99999e-01,3.07485e-01,9.99999e-01
7.649763693e-01,3.14732e-01,9.99999e-01,3.14732e-01,9.99999e-01
7.688012511e-01,3.22001e-01,9.99999e-01,3.22001e-01,9.99999e-01
7.726452574e-01,3.29290e-01,9.99999e-01,3.29290e-01,9.99999e-01
7.765084837e-01,3.36595e-01,9.99999e-01,3.36595e-01,9.99999e-01
7.803910261e-01,3.26972e-01,9.50740e-01,3.43913e-01,9.99999e-01
7.842929812e-01,2.81488e-01,8.01410e-01,3.51241e-01,9.99999e-01
7.882144461e-01,2.82779e-01,7.88617e-01,3.58575e-01,9.99999e-01
7.921555184e-01,3.17962e-01,8.68954e-01,3.65913e-01,9.99999e-01
7.961162960e-01,3.39850e-01,9.10510e-01,3.73252e-01,9.99999e-01
8.000968774e-01,3.61699e-01,9.50364e-01,3.80589e-01,9.99999e-01
8.040973618e-01,3.77853e-01,9.74044e-01,3.87921e-01,9.99999e-01
8.081178486e-01,3.90488e-01,9.87961e-01,3.95245e-01,9.99999e-01
8.121584379e-01,4.01068e-01,9.96295e-01,4.02559e-01,9.99999e-01
8.162192301e-01,4.09524e-01,9.99180e-01,4.09860e-01,9.99999e-01
8.203003262e-01,4.17140e-01,9.99988e-01,4.17145e-01,9.99999e-01
8.244018279e-01,4.24411e-01,9.99999e-01,4.24411e-01,9.99999e-01
8.285238370e-01,4.31657e-01,9.99999e-01,4.31657e-01,9.99999e-01
8.326664562e-01,4.38880e-01,9.99999e-01,4.38880e-01,9.99999e-01
8.368297885e-01,4.46078e-01,9.99999e-01,4.46078e-01,9.99999e-01
8.410139374e-01,4.53248e-01,9.99999e-01,4.53248e-01,9.99999e-01
8.452190071e-01,4.60388e-01,9.99999e-01,4.60388e-01,9.99999e-01
8.494451021e-01,4.67496e-01,9.99999e-01,4.67496e-01,9.99999e-01
8.536923276e-01,4.74570e-01,9.99999e-01,4.74570e-01,9.99999e-01
8.579607893e-01,4.81609e-01,9.99999e-01,4.81609e-01,9.99999e-01
8.622505932e-01,4.88610e-01,9.99999e-01,4.88610e-01,9.99999e-01
8.665618462e-01,4.48174e-01,9.04357e-01,4.95571e-01,9.99999e-01
8.708946554e-01,2.87318e-01,5.71787e-01,5.02491e-01,9.99999e-01
8.752491287e-01,3.23748e-01,6.35588e-01,5.09368e-01,9.99999e-01
8.796253743e-01,4.01736e-01,7.78256e-01,5.16201e-01,9.99999e-01
8.840235012e-01,4.58953e-01,8.77560e-01,5.22987e-01,9.99999e-01
8.884436187e-01,5.03203e-01,9.49930e-01,5.29726e-01,9.99999e-01
8.928858368e-01,5.25345e-01,9.79359e-01,5.36417e-01,9.99999e-01
8.973502660e-01,5.40326e-01,9.94970e-01,5.43057e-01,9.99999e-01
9.018370173e-01,5.49341e-01,9.99445e-01,5.49645e-01,9.99999e-01
9.063462024e-01,5.48145e-01,9.85549e-01,5.56182e-01,9.99999e-01
9.108779334e-01,5.44425e-01,9.67583e-01,5.62664e-01,9.99999e-01
9.154323231e-01,5.64742e-01,9.92356e-01,5.69092e-01,9.99999e-01
9.200094847e-01,5.15347e-01,8.95531e-01,5.75464e-01,9.99999e-01
9.246095321e-01,4.95161e-01,8.51114e-01,5.81779e-01,9.99999e-01
9.292325798e-01,5.18032e-01,8.80949e-01,5.88037e-01,9.99999e-01
9.338787427e-01,5.26003e-01,8.85173e-01,5.94237e-01,9.99999e-01
9.385481364e-01,5.48789e-01,9.14072e-01,6.00378e-01,9.99999e-01
9.432408771e-01,5.74027e-01,9.46522e-01,6.06459e-01,9.99999e-01
9.479570815e-01,5.95421e-01,9.72148e-01,6.12479e-01,9.99999e-01
9.526968669e-01,6.10090e-01,9.86499e-01,6.18439e-01,9.99999e-01
9.574603512e-01,6.20722e-01,9.94208e-01,6.24337e-01,9.99999e-01
9.622476530e-01,6.29034e-01,9.98191e-01,6.30174e-01,9.99999e-01
9.670588912e-01,6.35604e-01,9.99458e-01,6.35948e-01,9.99999e-01
9.718941857e-01,6.41635e-01,9.99962e-01,6.41659e-01,9.99999e-01
9.767536566e-01,6.47307e-01,9.99999e-01,6.47307e-01,9.99999e-01
9.816374249e-01,6.52892e-01,9.99999e-01,6.52892e-01,9.99999e-01
9.865456120e-01,6.58414e-01,9.99999e-01,6.58414e-01,9.99999e-01
9.914783401e-01,6.63872e-01,9.99999e-01,6.63872e-01,9.99999e-01
9.964357318e-01,6.69265e-01,9.99999e-01,6.69265e-01,9.99999e-01
1.001417910e+00,6.74595e-01,9.99999e-01,6.74595e-01,9.99999e-01
1.006425000e+00,6.79861e-01,9.99999e-01,6.79861e-01,9.99999e-01
1.011457125e+00,6.85062e-01,9.99999e-01,6.85062e-01,9.99999e-01
1.016514411e+00,6.90200e-01,9.99999e-01,6.90200e-01,9.99999e-01
1.021596983e+00,6.95214e-01,9.99914e-01,6.95273e-01,9.99999e-01
1.026704968e+00,6.96297e-01,9.94308e-01,7.00283e-01,9.99999e-01
1.031838492e+00,6.62249e-01,9.39056e-01,7.05228e-01,9.99999e-01
1.036997685e+00,7.40711e-02,1.04309e-01,7.10110e-01,9.99999e-01
1.042182673e+00,3.43019e-02,4.79795e-02,7.14928e-01,9.99999e-01
1.047393587e+00,5.06560e-02,7.03866e-02,7.19682e-01,9.99999e-01
1.052630555e+00,3.42814e-04,4.73255e-04,7.24373e-01,9.99999e-01
1.057893707e+00,1.07878e-03,1.47981e-03,7.29002e-01,9.99999e-01
1.063183176e+00,5.76426e-03,7.85783e-03,7.33567e-01,9.99999e-01
1.068499092e+00,2.30651e-02,3.12504e-02,7.38071e-01,9.99999e-01
1.073841587e+00,8.26468e-02,1.11307e-01,7.42512e-01,9.99999e-01
1.079210795e+00,1.86008e-01,2.49043e-01,7.46891e-01,9.99999e-01
1.084606849e+00,3.47621e-01,4.62749e-01,7.51209e-01,9.99999e-01
1.090029883e+00,5.05709e-01,6.69400e-01,7.55466e-01,9.99999e-01
1.095480033e+00,6.23367e-01,8.20584e-01,7.59662e-01,9.99999e-01
1.100957433e+00,6.94286e-01,9.08991e-01,7.63798e-01,9.99999e-01
1.106462220e+00,7.38189e-01,9.61340e-01,7.67874e-01,9.99999e-01
1.111994531e+00,7.60690e-01,9.85488e-01,7.71890e-01,9.99999e-01
1.117554504e+00,7.73096e-01,9.96452e-01,7.75848e-01,9.99999e-01
1.123142276e+00,7.79566e-01,9.99767e-01,7.79747e-01,9.99999e-01
1.128757988e+00,7.83588e-01,9.99999e-01,7.83588e-01,9.99999e-01
1.134401778e+00,7.87372e-01,9.99999e-01,7.87372e-01,9.99999e-01
1.140073787e+00,7.91099e-01,9.99999e-01,7.91099e-01,9.99999e-01
1.145774156e+00,7.94769e-01,9.99999e-01,7.94769e-01,9.99999e-01
1.151503026e+00,7.98383e-01,9.99999e-01,7.98383e-01,9.99999e-01
1.157260541e+00,8.01942e-01,9.99999e-01,8.01942e-01,9.99999e-01
1.163046844e+00,8.05446e-01,9.99999e-01,8.05446e-01,9.99999e-01
1.168862078e+00,8.08895e-01,9.99999e-01,8.08895e-01,9.99999e-01
1.174706389e+00,8.12291e-01,9.99999e-01,8.12291e-01,9.99999e-01
1.180579921e+00,8.15634e-01,9.99999e-01,8.15634e-01,9.99999e-01
1.186482820e+00,8.18913e-01,9.99987e-01,8.18923e-01,9.99999e-01
1.192415234e+00,8.05656e-01,9.79924e-01,8.22161e-01,9.99999e-01
1.198377311e+00,4.53199e-01,5.49101e-01,8.25347e-01,9.99999e-01
1.204369197e+00,1.16125e-15,1.40166e-15,8.28483e-01,9.99999e-01
1.210391043e+00,7.19709e-60,8.65484e-60,8.31567e-01,9.99999e-01
1.216442998e+00,5.77818e-52,6.92327e-52,8.34602e-01,9.99999e-01
1.222525213e+00,3.34765e-51,3.99677e-51,8.37588e-01,9.99999e-01
1.228637839e+00,1.21287e-39,1.44299e-39,8.40526e-01,9.99999e-01
1.234781029e+00,3.54567e-25,4.20394e-25,8.43415e-01,9.99999e-01
1.240954934e+00,6.85793e-17,8.10384e-17,8.46257e-01,9.99999e-01
1.247159708e+00,7.81032e-09,9.19886e-09,8.49052e-01,9.99999e-01
1.253395507e+00,7.55868e-06,8.87376e-06,8.51800e-01,9.99999e-01
1.259662485e+00,1.07907e-03,1.26280e-03,8.54503e-01,9.99999e-01
1.265960797e+00,1.89713e-02,2.21327e-02,8.57161e-01,9.99999e-01
1.272290601e+00,1.62735e-01,1.89276e-01,8.59775e-01,9.99999e-01
1.278652054e+00,1.37301e-01,1.59218e-01,8.62345e-01,9.99999e-01
1.285045314e+00,1.26895e-03,1.46721e-03,8.64871e-01,9.99999e-01
1.291470541e+00,1.27227e-07,1.46683e-07,8.67355e-01,9.99999e-01
1.297927893e+00,1.82451e-03,2.09763e-03,8.69796e-01,9.99999e-01
1.304417533e+00,4.14632e-02,4.75388e-02,8.72196e-01,9.99999e-01
1.310939621e+00,6.71136e-03,7.67403e-03,8.74555e-01,9.99999e-01
1.317494319e+00,4.10962e-21,4.68667e-21,8.76873e-01,9.99999e-01
1.324081790e+00,3.91034e-14,4.44784e-14,8.79152e-01,9.99999e-01
1.330702199e+00,2.21974e-08,2.51845e-08,8.81392e-01,9.99999e-01
1.337355710e+00,5.69740e-08,6.44798e-08,8.83592e-01,9.99999e-01
1.344042489e+00,1.99698e-08,2.25455e-08,8.85755e-01,9.99999e-01
1.350762701e+00,1.28420e-08,1.44637e-08,8.87880e-01,9.99999e-01
1.357516515e+00,1.14222e-05,1.28344e-05,8.89968e-01,9.99999e-01
1.364304097e+00,4.45265e-04,4.99164e-04,8.92020e-01,9.99999e-01
1.371125618e+00,1.77303e-02,1.98317e-02,8.94035e-01,9.99999e-01
1.377981246e+00,3.34783e-02,3.73635e-02,8.96015e-01,9.99999e-01
1.384871152e+00,1.32644e-01,1.47716e-01,8.97961e-01,9.99999e-01
1.391795508e+00,1.53890e-01,1.71013e-01,8.99872e-01,9.99999e-01
1.398754485e+00,3.01300e-01,3.34128e-01,9.01749e-01,9.99999e-01
1.405748258e+00,4.04477e-01,4.47631e-01,9.03593e-01,9.99999e-01
1.412776999e+00,5.44368e-01,6.01242e-01,9.05404e-01,9.99999e-01
1.419840884e+00,4.84832e-01,5.34436e-01,9.07183e-01,9.99999e-01
1.426940089e+00,3.25383e-02,3.57984e-02,9.08930e-01,9.99999e-01
1.434074789e+00,0.00000e+00,0.00000e+00,9.10646e-01,9.99999e-01
1.441245163e+00,0.00000e+00,0.00000e+00,9.12331e-01,9.99999e-01
1.448451389e+00,0.00000e+00,0.00000e+00,9.13986e-01,9.99999e-01
1.455693646e+00,0.00000e+00,0.00000e+00,9.15611e-01,9.99999e-01
1.462972114e+00,3.95787e-236,4.31513e-236,9.17207e-01,9.99999e-01
1.470286975e+00,1.74078e-98,1.89468e-98,9.18774e-01,9.99999e-01
1.477638409e+00,3.32867e-62,3.61689e-62,9.20313e-01,9.99999e-01
1.485026601e+00,5.40174e-35,5.85983e-35,9.21824e-01,9.99999e-01
1.492451734e+00,8.00072e-30,8.66527e-30,9.23307e-01,9.99999e-01
1.499913993e+00,1.94962e-13,2.10824e-13,9.24763e-01,9.99999e-01
1.507413563e+00,3.21487e-12,3.47105e-12,9.26193e-01,9.99999e-01
1.514950631e+00,1.23221e-13,1.32839e-13,9.27597e-01,9.99999e-01
1.522525384e+00,1.86458e-44,2.00714e-44,9.28975e-01,9.99999e-01
1.530138011e+00,4.88533e-105,5.25119e-105,9.30328e-01,9.99999e-01
1.537788701e+00,6.54296e-78,7.02293e-78,9.31656e-01,9.99999e-01
1.545477645e+00,4.30238e-17,4.61154e-17,9.32960e-01,9.99999e-01
1.553205033e+00,2.82259e-12,3.02127e-12,9.34239e-01,9.99999e-01
1.560971058e+00,9.44640e-13,1.00977e-12,9.35495e-01,9.99999e-01
1.568775913e+00,5.39207e-265,5.75627e-265,9.36728e-01,9.99999e-01
1.576619793e+00,0.00000e+00,0.00000e+00,9.37938e-01,9.99999e-01
1.584502892e+00,0.00000e+00,0.00000e+00,9.39126e-01,9.99999e-01
1.592425406e+00,3.17173e-236,3.37313e-236,9.40292e-01,9.99999e-01
1.600387533e+00,0.00000e+00,0.00000e+00,9.41436e-01,9.99999e-01
1.608389471e+00,0.00000e+00,0.00000e+00,9.42559e-01,9.99999e-01
1.616431418e+00,0.00000e+00,0.00000e+00,9.43661e-01,9.99999e-01
1.624513575e+00,5.02903e-300,5.32317e-300,9.44742e-01,9.99999e-01
1.632636143e+00,7.15342e-223,7.56332e-223,9.45804e-01,9.99999e-01
1.640799324e+00,2.66489e-91,2.81449e-91,9.46845e-01,9.99999e-01
1.649003321e+00,2.66949e-91,2.81631e-91,9.47867e-01,9.99999e-01
1.657248337e+00,9.89410e-71,1.04272e-70,9.48870e-01,9.99999e-01
1.665534579e+00,3.36168e-71,3.53915e-71,9.49854e-01,9.99999e-01
1.673862252e+00,1.14453e-45,1.20373e-45,9.50820e-01,9.99999e-01
1.682231563e+00,7.19954e-32,7.56438e-32,9.51768e-01,9.99999e-01
1.690642721e+00,4.61563e-18,4.84480e-18,9.52698e-01,9.99999e-01
1.699095934e+00,1.17266e-11,1.22970e-11,9.53610e-01,9.99999e-01
1.707591414e+00,2.23099e-06,2.33732e-06,9.54505e-01,9.99999e-01
1.716129371e+00,5.78641e-04,6.05664e-04,9.55383e-01,9.99999e-01
1.724710018e+00,1.49054e-02,1.55874e-02,9.56245e-01,9.99999e-01
1.733333568e+00,6.20840e-02,6.48674e-02,9.57090e-01,9.99999e-01
1.742000236e+00,1.89884e-01,1.98225e-01,9.57920e-01,9.99999e-01
1.750710237e+00,2.48947e-03,2.59662e-03,9.58734e-01,9.99999e-01
1.759463788e+00,1.28671e-43,1.34097e-43,9.59532e-01,9.99999e-01
1.768261107e+00,1.16189e-45,1.20990e-45,9.60315e-01,9.99999e-01
1.777102413e+00,2.68802e-44,2.79686e-44,9.61084e-01,9.99999e-01
1.785987925e+00,1.01711e-41,1.05746e-41,9.61837e-01,9.99999e-01
1.794917864e+00,7.64499e-40,7.94220e-40,9.62577e-01,9.99999e-01
1.803892454e+00,2.28749e-38,2.37463e-38,9.63302e-01,9.99999e-01
1.812911916e+00,7.56658e-37,7.84903e-37,9.64014e-01,9.99999e-01
1.821976476e+00,6.18996e-37,6.41638e-37,9.64712e-01,9.99999e-01
1.831086358e+00,8.21547e-30,8.50993e-30,9.65397e-01,9.99999e-01
1.840241790e+00,2.12385e-25,2.19844e-25,9.66069e-01,9.99999e-01
1.849442999e+00,9.96865e-18,1.03117e-17,9.66728e-01,9.99999e-01
1.858690214e+00,1.43653e-16,1.48498e-16,9.67374e-01,9.99999e-01
1.867983665e+00,2.66458e-17,2.75264e-17,9.68008e-01,9.99999e-01
1.877323583e+00,9.64485e-83,9.95720e-83,9.68630e-01,9.99999e-01
