#,Wave/freq,Total,CO2,Rayleigh,CIA
4.000000000e-01,3.93281e-05,9.99999e-01,3.93281e-05,9.99999e-01
4.020000000e-01,4.80627e-05,9.99999e-01,4.80627e-05,9.99999e-01
4.040100000e-01,5.84929e-05,9.99999e-01,5.84929e-05,9.99999e-01
4.060300500e-01,7.09110e-05,9.99999e-01,7.09110e-05,9.99999e-01
4.080602003e-01,8.56391e-05,9.99999e-01,8.56391e-05,9.99999e-01
4.101005013e-01,1.03041e-04,9.99999e-01,1.03041e-04,9.99999e-01
4.121510038e-01,1.23528e-04,9.99999e-01,1.23528e-04,9.99999e-01
4.142117588e-01,1.47558e-04,9.99999e-01,1.47558e-04,9.99999e-01
4.162828176e-01,1.75645e-04,9.99999e-01,1.75645e-04,9.99999e-01
4.183642317e-01,2.08359e-04,9.99999e-01,2.08359e-04,9.99999e-01
4.204560528e-01,2.46334e-04,9.99999e-01,2.46334e-04,9.99999e-01
4.225583331e-01,2.90269e-04,9.99999e-01,2.90269e-04,9.99999e-01
4.246711247e-01,3.40934e-04,9.99999e-01,3.40934e-04,9.99999e-01
4.267944804e-01,3.99170e-04,9.99999e-01,3.99170e-04,9.99999e-01
4.289284528e-01,4.65901e-04,9.99999e-01,4.65901e-04,9.99999e-01
4.310730950e-01,5.42130e-04,9.99999e-01,5.42130e-04,9.99999e-01
4.332284605e-01,6.28945e-04,9.99999e-01,6.28945e-04,9.99999e-01
4.353946028e-01,7.27525e-04,9.99999e-01,7.27525e-04,9.99999e-01
4.375715758e-01,8.39140e-04,9.99999e-01,8.39140e-04,9.99999e-01
4.397594337e-01,9.65153e-04,9.99999e-01,9.65153e-04,9.99999e-01
4.419582309e-01,1.10703e-03,9.99999e-01,1.10703e-03,9.99999e-01
4.441680220e-01,1.26632e-03,9.99999e-01,1.26632e-03,9.99999e-01
4.463888621e-01,1.44469e-03,9.99999e-01,1.44469e-03,9.99999e-01
4.486208064e-01,1.64390e-03,9.99999e-01,1.64390e-03,9.99999e-01
4.508639105e-01,1.86582e-03,9.99999e-01,1.86582e-03,9.99999e-01
4.531182300e-01,2.11240e-03,9.99999e-01,2.11240e-03,9.99999e-01
4.553838212e-01,2.38572e-03,9.99999e-01,2.38572e-03,9.99999e-01
4.576607403e-01,2.68793e-03,9.99999e-01,2.68793e-03,9.99999e-01
4.599490440e-01,3.02129e-03,9.99999e-01,3.02129e-03,9.99999e-01
4.622487892e-01,3.38817e-03,9.99999e-01,3.38817e-03,9.99999e-01
4.645600332e-01,3.79101e-03,9.99999e-01,3.79101e-03,9.99999e-01
4.668828333e-01,4.23234e-03,9.99999e-01,4.23234e-03,9.99999e-01
4.692172475e-01,4.71478e-03,9.99999e-01,4.71478e-03,9.99999e-01
4.715633337e-01,5.24102e-03,9.99999e-01,5.24102e-03,9.99999e-01
4.739211504e-01,5.81384e-03,9.99999e-01,5.81384e-03,9.99999e-01
4.762907561e-01,6.43607e-03,9.99999e-01,6.43607e-03,9.99999e-01
4.786722099e-01,7.11059e-03,9.99999e-01,7.11059e-03,9.99999e-01
4.810655710e-01,7.84036e-03,9.99999e-01,7.84036e-03,9.99999e-01
4.834708988e-01,8.62836e-03,9.99999e-01,8.62836e-03,9.99999e-01
4.858882533e-01,9.47761e-03,9.99999e-01,9.47761e-03,9.99999e-01
4.883176946e-01,1.03912e-02,9.99999e-01,1.03912e-02,9.99999e-01
4.907592831e-01,1.13721e-02,9.99999e-01,1.13721e-02,9.99999e-01
4.932130795e-01,1.24234e-02,9.99999e-01,1.24234e-02,9.99999e-01
4.956791449e-01,1.35483e-02,9.99999e-01,1.35483e-02,9.99999e-01
4.981575406e-01,1.47498e-02,9.99999e-01,1.47498e-02,9.99999e-01
5.006483283e-01,1.60308e-02,9.99999e-01,1.60308e-02,9.99999e-01
5.031515699e-01,1.73945e-02,9.99999e-01,1.73945e-02,9.99999e-01
5.056673278e-01,1.88438e-02,9.99999e-01,1.88438e-02,9.99999e-01
5.081956644e-01,2.03816e-02,9.99999e-01,2.03816e-02,9.99999e-01
5.107366428e-01,2.20108e-02,9.99999e-01,2.20108e-02,9.99999e-01
5.132903260e-01,2.37341e-02,9.99999e-01,2.37341e-02,9.99999e-01
5.158567776e-01,2.55542e-02,9.99999e-01,2.55542e-02,9.99999e-01
5.184360615e-01,2.74738e-02,9.99999e-01,2.74738e-02,9.99999e-01
5.210282418e-01,2.94954e-02,9.99999e-01,2.94954e-02,9.99999e-01
5.236333830e-01,3.16214e-02,9.99999e-01,3.16214e-02,9.99999e-01
5.262515499e-01,3.38540e-02,9.99999e-01,3.38540e-02,9.99999e-01
5.288828077e-01,3.61954e-02,9.99999e-01,3.61954e-02,9.99999e-01
5.315272217e-01,3.86477e-02,9.99999e-01,3.86477e-02,9.99999e-01
5.341848578e-01,4.12127e-02,9.99999e-01,4.12127e-02,9.99999e-01
5.368557821e-01,4.38923e-02,9.99999e-01,4.38923e-02,9.99999e-01
5.395400610e-01,4.66879e-02,9.99999e-01,4.66879e-02,9.99999e-01
5.422377613e-01,4.96010e-02,9.99999e-01,4.96010e-02,9.99999e-01
5.449489501e-01,5.26330e-02,9.99999e-01,5.26330e-02,9.99999e-01
5.476736949e-01,5.57848e-02,9.99999e-01,5.57848e-02,9.99999e-01
5.504120634e-01,5.90576e-02,9.99999e-01,5.90576e-02,9.99999e-01
5.531641237e-01,6.24520e-02,9.99999e-01,6.24520e-02,9.99999e-01
5.559299443e-01,6.59686e-02,9.99999e-01,6.59686e-02,9.99999e-01
5.587095940e-01,6.96078e-02,9.99999e-01,6.96078e-02,9.99999e-01
5.615031420e-01,7.33700e-02,9.99999e-01,7.33700e-02,9.99999e-01
5.643106577e-01,7.72551e-02,9.99999e-01,7.72551e-02,9.99999e-01
5.671322110e-01,8.12631e-02,9.99999e-01,8.12631e-02,9.99999e-01
5.699678720e-01,8.53937e-02,9.99999e-01,8.53937e-02,9.99999e-01
5.728177114e-01,8.96464e-02,9.99999e-01,8.96464e-02,9.99999e-01
5.756818000e-01,9.40205e-02,9.99999e-01,9.40205e-02,9.99999e-01
5.785602090e-01,9.85154e-02,9.99999e-01,9.85154e-02,9.99999e-01
5.814530100e-01,1.03130e-01,9.99999e-01,1.03130e-01,9.99999e-01
5.843602750e-01,1.07863e-01,9.99999e-01,1.07863e-01,9.99999e-01
5.872820764e-01,1.12714e-01,9.99999e-01,1.12714e-01,9.99999e-01
5.902184868e-01,1.17680e-01,9.99999e-01,1.17680e-01,9.99999e-01
5.931695792e-01,1.22760e-01,9.99999e-01,1.22760e-01,9.99999e-01
5.961354271e-01,1.27953e-01,9.99999e-01,1.27953e-01,9.99999e-01
5.991161043e-01,1.33257e-01,9.99999e-01,1.33257e-01,9.99999e-01
6.021116848e-01,1.38669e-01,9.99999e-01,1.38669e-01,9.99999e-01
6.051222432e-01,1.44187e-01,9.99999e-01,1.44187e-01,9.99999e-01
6.081478544e-01,1.49810e-01,9.99999e-01,1.49810e-01,9.99999e-01
6.111885937e-01,1.55534e-01,9.99999e-01,1.55534e-01,9.99999e-01
6.142445367e-01,1.61357e-01,9.99999e-01,1.61357e-01,9.99999e-01
6.173157594e-01,1.67277e-01,9.99999e-01,1.67277e-01,9.99999e-01
6.204023382e-01,1.73291e-01,9.99999e-01,1.73291e-01,9.99999e-01
6.235043498e-01,1.79396e-01,9.99999e-01,1.79396e-01,9.99999e-01
6.266218716e-01,1.85588e-01,9.99999e-01,1.85588e-01,9.99999e-01
6.297549810e-01,1.91866e-01,9.99999e-01,1.91866e-01,9.99999e-01
6.329037559e-01,1.98226e-01,9.99999e-01,1.98226e-01,9.99999e-01
6.360682746e-01,2.04665e-01,9.99999e-01,2.04665e-01,9.99999e-01
6.392486160e-01,2.11180e-01,9.99999e-01,2.11180e-01,9.99999e-01
6.424448591e-01,2.17767e-01,9.99999e-01,2.17767e-01,9.99999e-01
6.456570834e-01,2.24424e-01,9.99999e-01,2.24424e-01,9.99999e-01
6.488853688e-01,2.31146e-01,9.99999e-01,2.31146e-01,9.99999e-01
6.521297956e-01,2.37931e-01,9.99999e-01,2.37931e-01,9.99999e-01
6.553904446e-01,2.44776e-01,9.99999e-01,2.44776e-01,9.99999e-01
6.586673968e-01,2.51676e-01,9.99999e-01,2.51676e-01,9.99999e-01
6.619607338e-01,2.58628e-01,9.99999e-01,2.58628e-01,9.99999e-01
6.652705375e-01,2.65630e-01,9.99999e-01,2.65630e-01,9.99999e-01
6.685968902e-01,2.72678e-01,9.99999e-01,2.72678e-01,9.99999e-01
6.719398746e-01,2.79767e-01,9.99999e-01,2.79767e-01,9.99999e-01
6.752995740e-01,2.86896e-01,9.99999e-01,2.86896e-01,9.99999e-01
6.786760719e-01,2.94059e-01,9.99999e-01,2.94059e-01,9.99999e-01
6.820694522e-01,3.01255e-01,9.99999e-01,3.01255e-01,9.99999e-01
6.854797995e-01,3.08480e-01,9.99999e-01,3.08480e-01,9.99999e-01
6.889071985e-01,3.15730e-01,9.99999e-01,3.15730e-01,9.99999e-01
6.923517345e-01,3.23003e-01,9.99999e-01,3.23003e-01,9.99999e-01
6.958134932e-01,3.30294e-01,9.99999e-01,3.30294e-01,9.99999e-01
6.992925606e-01,3.37601e-01,9.99999e-01,3.37601e-01,9.99999e-01
7.027890234e-01,3.44920e-01,9.99999e-01,3.44920e-01,9.99999e-01
7.063029686e-01,3.52249e-01,9.99999e-01,3.52249e-01,9.99999e-01
7.098344834e-01,3.59584e-01,9.99999e-01,3.59584e-01,9.99999e-01
7.133836558e-01,3.66923e-01,9.99999e-01,3.66923e-01,9.99999e-01
7.169505741e-01,3.74262e-01,9.99999e-01,3.74262e-01,9.99999e-01
7.205353270e-01,3.81598e-01,9.99999e-01,3.81598e-01,9.99999e-01
7.241380036e-01,3.88929e-01,9.99999e-01,3.88929e-01,9.99999e-01
7.277586936e-01,3.96252e-01,9.99999e-01,3.96252e-01,9.99999e-01
7.313974871e-01,4.03564e-01,9.99999e-01,4.03564e-01,9.99999e-01
7.350544745e-01,4.10863e-01,9.99999e-01,4.10863e-01,9.99999e-01
7.387297469e-01,4.18145e-01,9.99999e-01,4.18145e-01,9.99999e-01
7.424233956e-01,4.25409e-01,9.99999e-01,4.25409e-01,9.99999e-01
7.461355126e-01,4.32652e-01,9.99999e-01,4.32652e-01,9.99999e-01
7.498661902e-01,4.39872e-01,9.99999e-01,4.39872e-01,9.99999e-01
7.536155211e-01,4.47065e-01,9.99999e-01,4.47065e-01,9.99999e-01
7.573835987e-01,4.54231e-01,9.99999e-01,4.54231e-01,9.99999e-01
7.611705167e-01,4.61367e-01,9.99999e-01,4.61367e-01,9.99999e-01
7.649763693e-01,4.68471e-01,9.99999e-01,4.68471e-01,9.99999e-01
7.688012511e-01,4.75540e-01,9.99999e-01,4.75540e-01,9.99999e-01
7.726452574e-01,4.82574e-01,9.99999e-01,4.82574e-01,9.99999e-01
7.765084837e-01,4.89569e-01,9.99999e-01,4.89569e-01,9.99999e-01
7.803910261e-01,4.80292e-01,9.67306e-01,4.96525e-01,9.99999e-01
7.842929812e-01,4.34066e-01,8.62200e-01,5.03439e-01,9.99999e-01
7.882144461e-01,4.35500e-01,8.53402e-01,5.10310e-01,9.99999e-01
7.921555184e-01,4.71510e-01,9.11769e-01,5.17137e-01,9.99999e-01
7.961162960e-01,4.92444e-01,9.39926e-01,5.23917e-01,9.99999e-01
8.000968774e-01,5.13137e-01,9.66997e-01,5.30649e-01,9.99999e-01
8.040973618e-01,5.28064e-01,9.82749e-01,5.37333e-01,9.99999e-01
8.081178486e-01,5.39644e-01,9.92054e-01,5.43966e-01,9.99999e-01
8.121584379e-01,5.49190e-01,9.97534e-01,5.50547e-01,9.99999e-01
8.162192301e-01,5.56773e-01,9.99454e-01,5.57076e-01,9.99999e-01
8.203003262e-01,5.63547e-01,9.99991e-01,5.63551e-01,9.99999e-01
8.244018279e-01,5.69972e-01,9.99999e-01,5.69972e-01,9.99999e-01
8.285238370e-01,5.76336e-01,9.99999e-01,5.76336e-01,9.99999e-01
8.326664562e-01,5.82644e-01,9.99999e-01,5.82644e-01,9.99999e-01
8.368297885e-01,5.88894e-01,9.99999e-01,5.88894e-01,9.99999e-01
8.410139374e-01,5.95085e-01,9.99999e-01,5.95085e-01,9.99999e-01
8.452190071e-01,6.01218e-01,9.99999e-01,6.01218e-01,9.99999e-01
8.494451021e-01,6.07290e-01,9.99999e-01,6.07290e-01,9.99999e-01
8.536923276e-01,6.13303e-01,9.99999e-01,6.13303e-01,9.99999e-01
8.579607893e-01,6.19254e-01,9.99999e-01,6.19254e-01,9.99999e-01
8.622505932e-01,6.25144e-01,9.99999e-01,6.25144e-01,9.99999e-01
8.665618462e-01,5.84974e-01,9.27100e-01,6.30972e-01,9.99999e-01
8.708946554e-01,4.37025e-01,6.86350e-01,6.36737e-01,9.99999e-01
8.752491287e-01,4.74321e-01,7.38311e-01,6.42440e-01,9.99999e-01
8.796253743e-01,5.48604e-01,8.46507e-01,6.48079e-01,9.99999e-01
8.840235012e-01,5.99568e-01,9.17253e-01,6.53655e-01,9.99999e-01
8.884436187e-01,6.37092e-01,9.66508e-01,6.59168e-01,9.99999e-01
8.928858368e-01,6.55519e-01,9.86309e-01,6.64617e-01,9.99999e-01
8.973502660e-01,6.67760e-01,9.96653e-01,6.70002e-01,9.99999e-01
9.018370173e-01,6.75074e-01,9.99630e-01,6.75323e-01,9.99999e-01
9.063462024e-01,6.74205e-01,9.90632e-01,6.80580e-01,9.99999e-01
9.108779334e-01,6.71025e-01,9.78494e-01,6.85773e-01,9.99999e-01
9.154323231e-01,6.87377e-01,9.94898e-01,6.90901e-01,9.99999e-01
9.200094847e-01,6.46349e-01,9.28708e-01,6.95966e-01,9.99999e-01
9.246095321e-01,6.30216e-01,8.99066e-01,7.00966e-01,9.99999e-01
9.292325798e-01,6.49571e-01,9.20198e-01,7.05903e-01,9.99999e-01
9.338787427e-01,6.55736e-01,9.22562e-01,7.10776e-01,9.99999e-01
9.385481364e-01,6.74445e-01,9.42507e-01,7.15585e-01,9.99999e-01
9.432408771e-01,6.94672e-01,9.64378e-01,7.20331e-01,9.99999e-01
9.479570815e-01,7.11658e-01,9.81578e-01,7.25014e-01,9.99999e-01
9.526968669e-01,7.23120e-01,9.91072e-01,7.29633e-01,9.99999e-01
9.574603512e-01,7.31381e-01,9.96172e-01,7.34190e-01,9.99999e-01
9.622476530e-01,7.37802e-01,9.98804e-01,7.38685e-01,9.99999e-01
9.670588912e-01,7.42851e-01,9.99641e-01,7.43118e-01,9.99999e-01
9.718941857e-01,7.47469e-01,9.99974e-01,7.47488e-01,9.99999e-01
9.767536566e-01,7.51798e-01,9.99999e-01,7.51798e-01,9.99999e-01
9.816374249e-01,7.56046e-01,9.99999e-01,7.56046e-01,9.99999e-01
9.865456120e-01,7.60234e-01,9.99999e-01,7.60234e-01,9.99999e-01
9.914783401e-01,7.64362e-01,9.99999e-01,7.64362e-01,9.99999e-01
9.964357318e-01,7.68430e-01,9.99999e-01,7.68430e-01,9.99999e-01
1.001417910e+00,7.72438e-01,9.99999e-01,7.72438e-01,9.99999e-01
1.006425000e+00,7.76388e-01,9.99999e-01,7.76388e-01,9.99999e-01
1.011457125e+00,7.80279e-01,9.99999e-01,7.80279e-01,9.99999e-01
1.016514411e+00,7.84112e-01,9.99999e-01,7.84112e-01,9.99999e-01
1.021596983e+00,7.87850e-01,9.99951e-01,7.87888e-01,9.99999e-01
1.026704968e+00,7.88714e-01,9.96344e-01,7.91607e-01,9.99999e-01
1.031838492e+00,7.61240e-01,9.57209e-01,7.95269e-01,9.99999e-01
1.036997685e+00,1.24782e-01,1.56196e-01,7.98876e-01,9.99999e-01
1.042182673e+00,1.00008e-01,1.24632e-01,8.02427e-01,9.99999e-01
1.047393587e+00,1.18055e-01,1.46484e-01,8.05923e-01,9.99999e-01
1.052630555e+00,3.50043e-03,4.32491e-03,8.09366e-01,9.99999e-01
1.057893707e+00,8.79654e-03,1.08231e-02,8.12754e-01,9.99999e-01
1.063183176e+00,2.90317e-02,3.55742e-02,8.16089e-01,9.99999e-01
1.068499092e+00,8.09071e-02,9.87427e-02,8.19372e-01,9.99999e-01
1.073841587e+00,1.90193e-01,2.31209e-01,8.22602e-01,9.99999e-01
1.079210795e+00,3.26733e-01,3.95665e-01,8.25781e-01,9.99999e-01
1.084606849e+00,4.97504e-01,6.00190e-01,8.28910e-01,9.99999e-01
1.090029883e+00,6.38343e-01,7.67249e-01,8.31988e-01,9.99999e-01
1.095480033e+00,7.32793e-01,8.77578e-01,8.35016e-01,9.99999e-01
1.100957433e+00,7.86909e-01,9.39036e-01,8.37995e-01,9.99999e-01
1.106462220e+00,8.19329e-01,9.74317e-01,8.40926e-01,9.99999e-01
1.111994531e+00,8.35711e-01,9.90403e-01,8.43808e-01,9.99999e-01
1.117554504e+00,8.44652e-01,9.97646e-01,8.46644e-01,9.99999e-01
1.123142276e+00,8.49301e-01,9.99844e-01,8.49432e-01,9.99999e-01
1.128757988e+00,8.52175e-01,9.99999e-01,8.52175e-01,9.99999e-01
1.134401778e+00,8.54872e-01,9.99999e-01,8.54872e-01,9.99999e-01
1.140073787e+00,8.57524e-01,9.99999e-01,8.57524e-01,9.99999e-01
1.145774156e+00,8.60131e-01,9.99999e-01,8.60131e-01,9.99999e-01
1.151503026e+00,8.62695e-01,9.99999e-01,8.62695e-01,9.99999e-01
1.157260541e+00,8.65215e-01,9.99999e-01,8.65215e-01,9.99999e-01
1.163046844e+00,8.67693e-01,9.99999e-01,8.67693e-01,9.99999e-01
1.168862078e+00,8.70129e-01,9.99999e-01,8.70129e-01,9.99999e-01
1.174706389e+00,8.72523e-01,9.99999e-01,8.72523e-01,9.99999e-01
1.180579921e+00,8.74876e-01,9.99999e-01,8.74876e-01,9.99999e-01
1.186482820e+00,8.77184e-01,9.99993e-01,8.77189e-01,9.99999e-01
1.192415234e+00,8.68048e-01,9.87020e-01,8.79462e-01,9.99999e-01
1.198377311e+00,4.95748e-01,5.62266e-01,8.81697e-01,9.99999e-01
1.204369197e+00,4.80118e-11,5.43186e-11,8.83892e-01,9.99999e-01
1.210391043e+00,4.89395e-40,5.52333e-40,8.86049e-01,9.99999e-01
1.216442998e+00,7.47439e-35,8.41549e-35,8.88169e-01,9.99999e-01
1.222525213e+00,2.36718e-34,2.65900e-34,8.90252e-01,9.99999e-01
1.228637839e+00,1.32049e-26,1.47987e-26,8.92299e-01,9.99999e-01
1.234781029e+00,2.76287e-17,3.08939e-17,8.94310e-01,9.99999e-01
1.240954934e+00,1.09979e-11,1.22705e-11,8.96285e-01,9.99999e-01
1.247159708e+00,1.57355e-06,1.75184e-06,8.98226e-01,9.99999e-01
1.253395507e+00,3.27104e-04,3.63395e-04,9.00132e-01,9.99999e-01
1.259662485e+00,9.61040e-03,1.06545e-02,9.02005e-01,9.99999e-01
1.265960797e+00,6.50753e-02,7.19983e-02,9.03844e-01,9.99999e-01
1.272290601e+00,2.98008e-01,3.29054e-01,9.05651e-01,9.99999e-01
1.278652054e+00,2.55843e-01,2.81943e-01,9.07425e-01,9.99999e-01
1.285045314e+00,7.17263e-03,7.88921e-03,9.09168e-01,9.99999e-01
1.291470541e+00,2.20183e-05,2.41726e-05,9.10880e-01,9.99999e-01
1.297927893e+00,4.72482e-03,5.17754e-03,9.12561e-01,9.99999e-01
1.304417533e+00,1.20910e-01,1.32256e-01,9.14212e-01,9.99999e-01
1.310939621e+00,2.97181e-02,3.24493e-02,9.15833e-01,9.99999e-01
1.317494319e+00,3.13334e-14,3.41536e-14,9.17424e-01,9.99999e-01
1.324081790e+00,6.98499e-10,7.60074e-10,9.18988e-01,9.99999e-01
1.330702199e+00,7.65685e-06,8.31793e-06,9.20522e-01,9.99999e-01
1.337355710e+00,9.69228e-06,1.05119e-05,9.22029e-01,9.99999e-01
1.344042489e+00,2.94937e-06,3.19365e-06,9.23509e-01,9.99999e-01
1.350762701e+00,4.77120e-06,5.15826e-06,9.24962e-01,9.99999e-01
1.357516515e+00,3.76820e-04,4.06762e-04,9.26388e-01,9.99999e-01
1.364304097e+00,5.76492e-03,6.21361e-03,9.27788e-01,9.99999e-01
1.371125618e+00,6.55823e-02,7.05821e-02,9.29163e-01,9.99999e-01
1.377981246e+00,1.05939e-01,1.13850e-01,9.30512e-01,9.99999e-01
1.384871152e+00,2.63120e-01,2.82366e-01,9.31837e-01,9.99999e-01
1.391795508e+00,2.89975e-01,3.10752e-01,9.33137e-01,9.99999e-01
1.398754485e+00,4.54217e-01,4.86098e-01,9.34413e-01,9.99999e-01
1.405748258e+00,5.50062e-01,5.87882e-01,9.35666e-01,9.99999e-01
1.412776999e+00,6.69760e-01,7.14870e-01,9.36896e-01,9.99999e-01
1.419840884e+00,6.04600e-01,6.44492e-01,9.38103e-01,9.99999e-01
1.426940089e+00,5.67212e-02,6.03873e-02,9.39288e-01,9.99999e-01
1.434074789e+00,0.00000e+00,0.00000e+00,9.40451e-01,9.99999e-01
1.441245163e+00,0.00000e+00,0.00000e+00,9.41592e-01,9.99999e-01
1.448451389e+00,0.00000e+00,0.00000e+00,9.42712e-01,9.99999e-01
1.455693646e+00,3.78454e-321,4.01181e-321,9.43811e-01,9.99999e-01
1.462972114e+00,1.25270e-155,1.32576e-155,9.44890e-01,9.99999e-01
1.470286975e+00,2.31690e-65,2.44929e-65,9.45948e-01,9.99999e-01
1.477638409e+00,1.44207e-41,1.52280e-41,9.46987e-01,9.99999e-01
1.485026601e+00,1.08815e-23,1.14782e-23,9.48006e-01,9.99999e-01
1.492451734e+00,3.47573e-20,3.66249e-20,9.49007e-01,9.99999e-01
1.499913993e+00,1.61403e-09,1.69900e-09,9.49988e-01,9.99999e-01
1.507413563e+00,2.55233e-08,2.68397e-08,9.50952e-01,9.99999e-01
1.514950631e+00,1.02521e-09,1.07702e-09,9.51897e-01,9.99999e-01
1.522525384e+00,6.27915e-30,6.59004e-30,9.52824e-01,9.99999e-01
1.530138011e+00,1.21583e-69,1.27481e-69,9.53734e-01,9.99999e-01
1.537788701e+00,7.41612e-52,7.76860e-52,9.54627e-01,9.99999e-01
1.545477645e+00,5.53056e-12,5.78811e-12,9.55503e-01,9.99999e-01
1.553205033e+00,2.04704e-08,2.14044e-08,9.56362e-01,9.99999e-01
1.560971058e+00,6.03582e-09,6.30566e-09,9.57205e-01,9.99999e-01
1.568775913e+00,1.47062e-174,1.53504e-174,9.58033e-01,9.99999e-01
1.576619793e+00,0.00000e+00,0.00000e+00,9.58844e-01,9.99999e-01
1.584502892e+00,5.06941e-223,5.28261e-223,9.59641e-01,9.99999e-01
1.592425406e+00,1.14813e-155,1.19545e-155,9.60422e-01,9.99999e-01
1.600387533e+00,2.14230e-250,2.22881e-250,9.61188e-01,9.99999e-01
1.608389471e+00,0.00000e+00,0.00000e+00,9.61940e-01,9.99999e-01
1.616431418e+00,0.00000e+00,0.00000e+00,9.62678e-01,9.99999e-01
1.624513575e+00,1.56482e-197,1.62427e-197,9.63401e-01,9.99999e-01
1.632636143e+00,6.19983e-147,6.43061e-147,9.64111e-01,9.99999e-01
1.640799324e+00,1.19341e-60,1.23694e-60,9.64807e-01,9.99999e-01
1.649003321e+00,1.21291e-60,1.25626e-60,9.65490e-01,9.99999e-01
1.657248337e+00,3.88904e-47,4.02525e-47,9.66160e-01,9.99999e-01
1.665534579e+00,1.91087e-47,1.97645e-47,9.66817e-01,9.99999e-01
1.673862252e+00,1.11422e-30,1.15169e-30,9.67462e-01,9.99999e-01
1.682231563e+00,1.26768e-21,1.30946e-21,9.68094e-01,9.99999e-01
1.690642721e+00,1.35613e-12,1.39993e-12,9.68714e-01,9.99999e-01
1.699095934e+00,3.42615e-08,3.53458e-08,9.69323e-01,9.99999e-01
1.707591414e+00,1.07520e-04,1.10855e-04,9.69920e-01,9.99999e-01
1.716129371e+00,5.94807e-03,6.12884e-03,9.70505e-01,9.99999e-01
1.724710018e+00,5.92605e-02,6.10253e-02,9.71079e-01,9.99999e-01
1.733333568e+00,1.58622e-01,1.63252e-01,9.71642e-01,9.99999e-01
1.742000236e+00,3.27462e-01,3.36827e-01,9.72194e-01,9.99999e-01
1.750710237e+00,9.19241e-03,9.45005e-03,9.72736e-01,9.99999e-01
1.759463788e+00,2.84891e-29,2.92716e-29,9.73267e-01,9.99999e-01
1.768261107e+00,1.01721e-30,1.04459e-30,9.73788e-01,9.99999e-01
1.777102413e+00,1.46436e-29,1.50299e-29,9.74299e-01,9.99999e-01
1.785987925e+00,4.30937e-28,4.42077e-28,9.74800e-01,9.99999e-01
1.794917864e+00,9.11390e-27,9.34478e-27,9.75292e-01,9.99999e-01
1.803892454e+00,6.19265e-26,6.34639e-26,9.75774e-01,9.99999e-01
1.812911916e+00,7.85102e-25,8.04203e-25,9.76247e-01,9.99999e-01
1.821976476e+00,5.55984e-25,5.69240e-25,9.76710e-01,9.99999e-01
1.831086358e+00,2.59766e-20,2.65836e-20,9.77165e-01,9.99999e-01
1.840241790e+00,2.78805e-17,2.85190e-17,9.77611e-01,9.99999e-01
1.849442999e+00,4.09575e-12,4.18767e-12,9.78048e-01,9.99999e-01
1.858690214e+00,3.30537e-11,3.37807e-11,9.78477e-01,9.99999e-01
1.867983665e+00,5.58468e-12,5.70506e-12,9.78898e-01,9.99999e-01
1.877323583e+00,5.06571e-55,5.17272e-55,9.79310e-01,9.99999e-01
