#,Wave/freq,Total,CO2,Rayleigh,CIA
4.000000000e-01,1.85121e-02,9.99999e-01,1.85121e-02,9.99999e-01
4.020000000e-01,2.00315e-02,9.99999e-01,2.00315e-02,9.99999e-01
4.040100000e-01,2.16401e-02,9.99999e-01,2.16401e-02,9.99999e-01
4.060300500e-01,2.33422e-02,9.99999e-01,2.33422e-02,9.99999e-01
4.080602003e-01,2.51405e-02,9.99999e-01,2.51405e-02,9.99999e-01
4.101005013e-01,2.70378e-02,9.99999e-01,2.70378e-02,9.99999e-01
4.121510038e-01,2.90364e-02,9.99999e-01,2.90364e-02,9.99999e-01
4.142117588e-01,3.11390e-02,9.99999e-01,3.11390e-02,9.99999e-01
4.162828176e-01,3.33476e-02,9.99999e-01,3.33476e-02,9.99999e-01
4.183642317e-01,3.56647e-02,9.99999e-01,3.56647e-02,9.99999e-01
4.204560528e-01,3.80921e-02,9.99999e-01,3.80921e-02,9.99999e-01
4.225583331e-01,4.06319e-02,9.99999e-01,4.06319e-02,9.99999e-01
4.246711247e-01,4.32858e-02,9.99999e-01,4.32858e-02,9.99999e-01
4.267944804e-01,4.60554e-02,9.99999e-01,4.60554e-02,9.99999e-01
4.289284528e-01,4.89423e-02,9.99999e-01,4.89423e-02,9.99999e-01
4.310730950e-01,5.19477e-02,9.99999e-01,5.19477e-02,9.99999e-01
4.332284605e-01,5.50728e-02,9.99999e-01,5.50728e-02,9.99999e-01
4.353946028e-01,5.83186e-02,9.99999e-01,5.83186e-02,9.99999e-01
4.375715758e-01,6.16858e-02,9.99999e-01,6.16858e-02,9.99999e-01
4.397594337e-01,6.51751e-02,9.99999e-01,6.51751e-02,9.99999e-01
4.419582309e-01,6.87871e-02,9.99999e-01,6.87871e-02,9.99999e-01
4.441680220e-01,7.25219e-02,9.99999e-01,7.25219e-02,9.99999e-01
4.463888621e-01,7.63796e-02,9.99999e-01,7.63796e-02,9.99999e-01
4.486208064e-01,8.03603e-02,9.99999e-01,8.03603e-02,9.99999e-01
4.508639105e-01,8.44636e-02,9.99999e-01,8.44636e-02,9.99999e-01
4.531182300e-01,8.86891e-02,9.99999e-01,8.86891e-02,9.99999e-01
4.553838212e-01,9.30363e-02,9.99999e-01,9.30363e-02,9.99999e-01
4.576607403e-01,9.75044e-02,9.99999e-01,9.75044e-02,9.99999e-01
4.599490440e-01,1.02092e-01,9.99999e-01,1.02092e-01,9.99999e-01
4.622487892e-01,1.06799e-01,9.99999e-01,1.06799e-01,9.99999e-01
4.645600332e-01,1.11624e-01,9.99999e-01,1.11624e-01,9.99999e-01
4.668828333e-01,1.16564e-01,9.99999e-01,1.16564e-01,9.99999e-01
4.692172475e-01,1.21620e-01,9.99999e-01,1.21620e-01,9.99999e-01
4.715633337e-01,1.26788e-01,9.99999e-01,1.26788e-01,9.99999e-01
4.739211504e-01,1.32067e-01,9.99999e-01,1.32067e-01,9.99999e-01
4.762907561e-01,1.37455e-01,9.99999e-01,1.37455e-01,9.99999e-01
4.786722099e-01,1.42950e-01,9.99999e-01,1.42950e-01,9.99999e-01
4.810655710e-01,1.48549e-01,9.99999e-01,1.48549e-01,9.99999e-01
4.834708988e-01,1.54251e-01,9.99999e-01,1.54251e-01,9.99999e-01
4.858882533e-01,1.60053e-01,9.99999e-01,1.60053e-01,9.99999e-01
4.883176946e-01,1.65951e-01,9.99999e-01,1.65951e-01,9.99999e-01
4.907592831e-01,1.71944e-01,9.99999e-01,1.71944e-01,9.99999e-01
4.932130795e-01,1.78029e-01,9.99999e-01,1.78029e-01,9.99999e-01
4.956791449e-01,1.84202e-01,9.99999e-01,1.84202e-01,9.99999e-01
4.981575406e-01,1.90462e-01,9.99999e-01,1.90462e-01,9.99999e-01
5.006483283e-01,1.96804e-01,9.99999e-01,1.96804e-01,9.99999e-01
5.031515699e-01,2.03225e-01,9.99999e-01,2.03225e-01,9.99999e-01
5.056673278e-01,2.09723e-01,9.99999e-01,2.09723e-01,9.99999e-01
5.081956644e-01,2.16295e-01,9.99999e-01,2.16295e-01,9.99999e-01
5.107366428e-01,2.22936e-01,9.99999e-01,2.22936e-01,9.99999e-01
5.132903260e-01,2.29644e-01,9.99999e-01,2.29644e-01,9.99999e-01
5.158567776e-01,2.36416e-01,9.99999e-01,2.36416e-01,9.99999e-01
5.184360615e-01,2.43247e-01,9.99999e-01,2.43247e-01,9.99999e-01
5.210282418e-01,2.50135e-01,9.99999e-01,2.50135e-01,9.99999e-01
5.236333830e-01,2.57076e-01,9.99999e-01,2.57076e-01,9.99999e-01
5.262515499e-01,2.64068e-01,9.99999e-01,2.64068e-01,9.99999e-01
5.288828077e-01,2.71105e-01,9.99999e-01,2.71105e-01,9.99999e-01
5.315272217e-01,2.78185e-01,9.99999e-01,2.78185e-01,9.99999e-01
5.341848578e-01,2.85306e-01,9.99999e-01,2.85306e-01,9.99999e-01
5.368557821e-01,2.92462e-01,9.99999e-01,2.92462e-01,9.99999e-01
5.395400610e-01,2.99651e-01,9.99999e-01,2.99651e-01,9.99999e-01
5.422377613e-01,3.06870e-01,9.99999e-01,3.06870e-01,9.99999e-01
5.449489501e-01,3.14114e-01,9.99999e-01,3.14114e-01,9.99999e-01
5.476736949e-01,3.21382e-01,9.99999e-01,3.21382e-01,9.99999e-01
5.504120634e-01,3.28669e-01,9.99999e-01,3.28669e-01,9.99999e-01
5.531641237e-01,3.35973e-01,9.99999e-01,3.35973e-01,9.99999e-01
5.559299443e-01,3.43290e-01,9.99999e-01,3.43290e-01,9.99999e-01
5.587095940e-01,3.50617e-01,9.99999e-01,3.50617e-01,9.99999e-01
5.615031420e-01,3.57951e-01,9.99999e-01,3.57951e-01,9.99999e-01
5.643106577e-01,3.65289e-01,9.99999e-01,3.65289e-01,9.99999e-01
5.671322110e-01,3.72628e-01,9.99999e-01,3.72628e-01,9.99999e-01
5.699678720e-01,3.79965e-01,9.99999e-01,3.79965e-01,9.99999e-01
5.728177114e-01,3.87298e-01,9.99999e-01,3.87298e-01,9.99999e-01
5.756818000e-01,3.94623e-01,9.99999e-01,3.94623e-01,9.99999e-01
5.785602090e-01,4.01937e-01,9.99999e-01,4.01937e-01,9.99999e-01
5.814530100e-01,4.09239e-01,9.99999e-01,4.09239e-01,9.99999e-01
5.843602750e-01,4.16526e-01,9.99999e-01,4.16526e-01,9.99999e-01
5.872820764e-01,4.23794e-01,9.99999e-01,4.23794e-01,9.99999e-01
5.902184868e-01,4.31042e-01,9.99999e-01,4.31042e-01,9.99999e-01
5.931695792e-01,4.38267e-01,9.99999e-01,4.38267e-01,9.99999e-01
5.961354271e-01,4.45466e-01,9.99999e-01,4.45466e-01,9.99999e-01
5.991161043e-01,4.52639e-01,9.99999e-01,4.52639e-01,9.99999e-01
6.021116848e-01,4.59781e-01,9.99999e-01,4.59781e-01,9.99999e-01
6.051222432e-01,4.66893e-01,9.99999e-01,4.66893e-01,9.99999e-01
6.081478544e-01,4.73970e-01,9.99999e-01,4.73970e-01,9.99999e-01
6.111885937e-01,4.81011e-01,9.99999e-01,4.81011e-01,9.99999e-01
6.142445367e-01,4.88016e-01,9.99999e-01,4.88016e-01,9.99999e-01
6.173157594e-01,4.94980e-01,9.99999e-01,4.94980e-01,9.99999e-01
6.204023382e-01,5.01904e-01,9.99999e-01,5.01904e-01,9.99999e-01
6.235043498e-01,5.08785e-01,9.99999e-01,5.08785e-01,9.99999e-01
6.266218716e-01,5.15621e-01,9.99999e-01,5.15621e-01,9.99999e-01
6.297549810e-01,5.22412e-01,9.99999e-01,5.22412e-01,9.99999e-01
6.329037559e-01,5.29155e-01,9.99999e-01,5.29155e-01,9.99999e-01
6.360682746e-01,5.35849e-01,9.99999e-01,5.35849e-01,9.99999e-01
6.392486160e-01,5.42494e-01,9.99999e-01,5.42494e-01,9.99999e-01
6.424448591e-01,5.49087e-01,9.99999e-01,5.49087e-01,9.99999e-01
6.456570834e-01,5.55628e-01,9.99999e-01,5.55628e-01,9.99999e-01
6.488853688e-01,5.62115e-01,9.99999e-01,5.62115e-01,9.99999e-01
6.521297956e-01,5.68547e-01,9.99999e-01,5.68547e-01,9.99999e-01
6.553904446e-01,5.74924e-01,9.99999e-01,5.74924e-01,9.99999e-01
6.586673968e-01,5.81244e-01,9.99999e-01,5.81244e-01,9.99999e-01
6.619607338e-01,5.87507e-01,9.99999e-01,5.87507e-01,9.99999e-01
6.652705375e-01,5.93712e-01,9.99999e-01,5.93712e-01,9.99999e-01
6.685968902e-01,5.99858e-01,9.99999e-01,5.99858e-01,9.99999e-01
6.719398746e-01,6.05944e-01,9.99999e-01,6.05944e-01,9.99999e-01
6.752995740e-01,6.11970e-01,9.99999e-01,6.11970e-01,9.99999e-01
6.786760719e-01,6.17934e-01,9.99999e-01,6.17934e-01,9.99999e-01
6.820694522e-01,6.23838e-01,9.99999e-01,6.23838e-01,9.99999e-01
6.854797995e-01,6.29680e-01,9.99999e-01,6.29680e-01,9.99999e-01
6.889071985e-01,6.35459e-01,9.99999e-01,6.35459e-01,9.99999e-01
6.923517345e-01,6.41176e-01,9.99999e-01,6.41176e-01,9.99999e-01
6.958134932e-01,6.46829e-01,9.99999e-01,6.46829e-01,9.99999e-01
6.992925606e-01,6.52420e-01,9.99999e-01,6.52420e-01,9.99999e-01
7.027890234e-01,6.57947e-01,9.99999e-01,6.57947e-01,9.99999e-01
7.063029686e-01,6.63410e-01,9.99999e-01,6.63410e-01,9.99999e-01
7.098344834e-01,6.68809e-01,9.99999e-01,6.68809e-01,9.99999e-01
7.133836558e-01,6.74144e-01,9.99999e-01,6.74144e-01,9.99999e-01
7.169505741e-01,6.79415e-01,9.99999e-01,6.79415e-01,9.99999e-01
7.205353270e-01,6.84622e-01,9.99999e-01,6.84622e-01,9.99999e-01
7.241380036e-01,6.89765e-01,9.99999e-01,6.89765e-01,9.99999e-01
7.277586936e-01,6.94844e-01,9.99999e-01,6.94844e-01,9.99999e-01
7.313974871e-01,6.99859e-01,9.99999e-01,6.99859e-01,9.99999e-01
7.350544745e-01,7.04810e-01,9.99999e-01,7.04810e-01,9.99999e-01
7.387297469e-01,7.09697e-01,9.99999e-01,7.09697e-01,9.99999e-01
7.424233956e-01,7.14520e-01,9.99999e-01,7.14520e-01,9.99999e-01
7.461355126e-01,7.19280e-01,9.99999e-01,7.19280e-01,9.99999e-01
7.498661902e-01,7.23977e-01,9.99999e-01,7.23977e-01,9.99999e-01
7.536155211e-01,7.28610e-01,9.99999e-01,7.28610e-01,9.99999e-01
7.573835987e-01,7.33181e-01,9.99999e-01,7.33181e-01,9.99999e-01
7.611705167e-01,7.37690e-01,9.99999e-01,7.37690e-01,9.99999e-01
7.649763693e-01,7.42136e-01,9.99999e-01,7.42136e-01,9.99999e-01
7.688012511e-01,7.46521e-01,9.99999e-01,7.46521e-01,9.99999e-01
7.726452574e-01,7.50844e-01,9.99999e-01,7.50844e-01,9.99999e-01
7.765084837e-01,7.55106e-01,9.99999e-01,7.55106e-01,9.99999e-01
7.803910261e-01,7.48677e-01,9.85999e-01,7.59307e-01,9.99999e-01
7.842929812e-01,7.19486e-01,9.42415e-01,7.63448e-01,9.99999e-01
7.882144461e-01,7.20044e-01,9.38131e-01,7.67529e-01,9.99999e-01
7.921555184e-01,7.43859e-01,9.64108e-01,7.71551e-01,9.99999e-01
7.961162960e-01,7.56862e-01,9.75949e-01,7.75514e-01,9.99999e-01
8.000968774e-01,7.69204e-01,9.86894e-01,7.79418e-01,9.99999e-01
8.040973618e-01,7.77938e-01,9.93200e-01,7.83264e-01,9.99999e-01
8.081178486e-01,7.84591e-01,9.96871e-01,7.87052e-01,9.99999e-01
8.121584379e-01,7.90021e-01,9.99034e-01,7.90784e-01,9.99999e-01
8.162192301e-01,7.94290e-01,9.99786e-01,7.94459e-01,9.99999e-01
8.203003262e-01,7.98075e-01,9.99996e-01,7.98078e-01,9.99999e-01
8.244018279e-01,8.01641e-01,9.99999e-01,8.01641e-01,9.99999e-01
8.285238370e-01,8.05150e-01,9.99999e-01,8.05150e-01,9.99999e-01
8.326664562e-01,8.08604e-01,9.99999e-01,8.08604e-01,9.99999e-01
8.368297885e-01,8.12004e-01,9.99999e-01,8.12004e-01,9.99999e-01
8.410139374e-01,8.15351e-01,9.99999e-01,8.15351e-01,9.99999e-01
8.452190071e-01,8.18646e-01,9.99999e-01,8.18646e-01,9.99999e-01
8.494451021e-01,8.21888e-01,9.99999e-01,8.21888e-01,9.99999e-01
8.536923276e-01,8.25078e-01,9.99999e-01,8.25078e-01,9.99999e-01
8.579607893e-01,8.28218e-01,9.99999e-01,8.28218e-01,9.99999e-01
8.622505932e-01,8.31307e-01,9.99999e-01,8.31307e-01,9.99999e-01
8.665618462e-01,8.02115e-01,9.61369e-01,8.34346e-01,9.99999e-01
8.708946554e-01,7.18059e-01,8.57551e-01,8.37336e-01,9.99999e-01
8.752491287e-01,7.43960e-01,8.85374e-01,8.40278e-01,9.99999e-01
8.796253743e-01,7.89326e-01,9.36139e-01,8.43171e-01,9.99999e-01
8.840235012e-01,8.17729e-01,9.66562e-01,8.46017e-01,9.99999e-01
8.884436187e-01,8.37549e-01,9.86726e-01,8.48816e-01,9.99999e-01
8.928858368e-01,8.46975e-01,9.94605e-01,8.51568e-01,9.99999e-01
8.973502660e-01,8.53156e-01,9.98689e-01,8.54275e-01,9.99999e-01
9.018370173e-01,8.56813e-01,9.99855e-01,8.56937e-01,9.99999e-01
9.063462024e-01,8.56334e-01,9.96252e-01,8.59554e-01,9.99999e-01
9.108779334e-01,8.54795e-01,9.91493e-01,8.62128e-01,9.99999e-01
9.154323231e-01,8.62930e-01,9.98001e-01,8.64658e-01,9.99999e-01
9.200094847e-01,8.41106e-01,9.69971e-01,8.67145e-01,9.99999e-01
9.246095321e-01,8.33900e-01,9.58957e-01,8.69590e-01,9.99999e-01
9.292325798e-01,8.43597e-01,9.67435e-01,8.71993e-01,9.99999e-01
9.338787427e-01,8.46977e-01,9.68686e-01,8.74356e-01,9.99999e-01
9.385481364e-01,8.56476e-01,9.76955e-01,8.76678e-01,9.99999e-01
9.432408771e-01,8.66533e-01,9.85861e-01,8.78960e-01,9.99999e-01
9.479570815e-01,8.74789e-01,9.92721e-01,8.81203e-01,9.99999e-01
9.526968669e-01,8.80302e-01,9.96485e-01,8.83407e-01,9.99999e-01
9.574603512e-01,8.84241e-01,9.98496e-01,8.85572e-01,9.99999e-01
9.622476530e-01,8.87285e-01,9.99530e-01,8.87701e-01,9.99999e-01
9.670588912e-01,8.89667e-01,9.99859e-01,8.89792e-01,9.99999e-01
9.718941857e-01,8.91838e-01,9.99989e-01,8.91846e-01,9.99999e-01
9.767536566e-01,8.93865e-01,9.99999e-01,8.93865e-01,9.99999e-01
9.816374249e-01,8.95848e-01,9.99999e-01,8.95848e-01,9.99999e-01
9.865456120e-01,8.97797e-01,9.99999e-01,8.97797e-01,9.99999e-01
9.914783401e-01,8.99710e-01,9.99999e-01,8.99710e-01,9.99999e-01
9.964357318e-01,9.01591e-01,9.99999e-01,9.01591e-01,9.99999e-01
1.001417910e+00,9.03437e-01,9.99999e-01,9.03437e-01,9.99999e-01
1.006425000e+00,9.05251e-01,9.99999e-01,9.05251e-01,9.99999e-01
1.011457125e+00,9.07033e-01,9.99999e-01,9.07033e-01,9.99999e-01
1.016514411e+00,9.08783e-01,9.99999e-01,9.08783e-01,9.99999e-01
1.021596983e+00,9.10483e-01,9.99979e-01,9.10501e-01,9.99999e-01
1.026704968e+00,9.10860e-01,9.98542e-01,9.12189e-01,9.99999e-01
1.031838492e+00,8.92703e-01,9.76862e-01,9.13847e-01,9.99999e-01
1.036997685e+00,3.12730e-01,3.41604e-01,9.15474e-01,9.99999e-01
1.042182673e+00,3.86656e-01,4.21619e-01,9.17073e-01,9.99999e-01
1.047393587e+00,3.45763e-01,3.76385e-01,9.18642e-01,9.99999e-01
1.052630555e+00,7.41927e-02,8.06281e-02,9.20183e-01,9.99999e-01
1.057893707e+00,1.29816e-01,1.40845e-01,9.21696e-01,9.99999e-01
1.063183176e+00,2.24539e-01,2.43222e-01,9.23182e-01,9.99999e-01
1.068499092e+00,3.63067e-01,3.92657e-01,9.24641e-01,9.99999e-01
1.073841587e+00,5.13934e-01,5.54960e-01,9.26073e-01,9.99999e-01
1.079210795e+00,6.40102e-01,6.90153e-01,9.27479e-01,9.99999e-01
1.084606849e+00,7.58995e-01,8.17125e-01,9.28859e-01,9.99999e-01
1.090029883e+00,8.37912e-01,9.00773e-01,9.30214e-01,9.99999e-01
1.095480033e+00,8.84862e-01,9.49886e-01,9.31544e-01,9.99999e-01
1.100957433e+00,9.10066e-01,9.75575e-01,9.32850e-01,9.99999e-01
1.106462220e+00,9.24637e-01,9.89835e-01,9.34131e-01,9.99999e-01
1.111994531e+00,9.31856e-01,9.96221e-01,9.35389e-01,9.99999e-01
1.117554504e+00,9.35760e-01,9.99077e-01,9.36624e-01,9.99999e-01
1.123142276e+00,9.37780e-01,9.99939e-01,9.37836e-01,9.99999e-01
1.128757988e+00,9.39026e-01,9.99999e-01,9.39026e-01,9.99999e-01
1.134401778e+00,9.40194e-01,9.99999e-01,9.40194e-01,9.99999e-01
1.140073787e+00,9.41340e-01,9.99999e-01,9.41340e-01,9.99999e-01
1.145774156e+00,9.42464e-01,9.99999e-01,9.42464e-01,9.99999e-01
1.151503026e+00,9.43568e-01,9.99999e-01,9.43568e-01,9.99999e-01
1.157260541e+00,9.44651e-01,9.99999e-01,9.44651e-01,9.99999e-01
1.163046844e+00,9.45714e-01,9.99999e-01,9.45714e-01,9.99999e-01
1.168862078e+00,9.46757e-01,9.99999e-01,9.46757e-01,9.99999e-01
1.174706389e+00,9.47781e-01,9.99999e-01,9.47781e-01,9.99999e-01
1.180579921e+00,9.48786e-01,9.99999e-01,9.48786e-01,9.99999e-01
1.186482820e+00,9.49769e-01,9.99996e-01,9.49771e-01,9.99999e-01
1.192415234e+00,9.45748e-01,9.94750e-01,9.50739e-01,9.99999e-01
1.198377311e+00,5.68882e-01,5.97761e-01,9.51688e-01,9.99999e-01
1.204369197e+00,1.05545e-05,1.10794e-05,9.52619e-01,9.99999e-01
1.210391043e+00,4.11366e-17,4.31412e-17,9.53533e-01,9.99999e-01
1.216442998e+00,4.68401e-15,4.90765e-15,9.54429e-01,9.99999e-01
1.222525213e+00,8.07440e-15,8.45212e-15,9.55309e-01,9.99999e-01
1.228637839e+00,2.34884e-11,2.45650e-11,9.56172e-01,9.99999e-01
1.234781029e+00,4.19850e-08,4.38705e-08,9.57019e-01,9.99999e-01
1.240954934e+00,1.65488e-05,1.72770e-05,9.57850e-01,9.99999e-01
1.247159708e+00,2.06888e-03,2.15808e-03,9.58665e-01,9.99999e-01
1.253395507e+00,3.40554e-02,3.54942e-02,9.59465e-01,9.99999e-01
1.259662485e+00,1.45549e-01,1.51574e-01,9.60249e-01,9.99999e-01
1.265960797e+00,3.22427e-01,3.35506e-01,9.61019e-01,9.99999e-01
1.272290601e+00,6.16278e-01,6.40772e-01,9.61774e-01,9.99999e-01
1.278652054e+00,5.53265e-01,5.74811e-01,9.62515e-01,9.99999e-01
1.285045314e+00,4.71348e-02,4.89335e-02,9.63241e-01,9.99999e-01
1.291470541e+00,1.12475e-02,1.16681e-02,9.63954e-01,9.99999e-01
1.297927893e+00,7.42464e-02,7.69668e-02,9.64653e-01,9.99999e-01
1.304417533e+00,4.31606e-01,4.47103e-01,9.65339e-01,9.99999e-01
1.310939621e+00,1.29671e-01,1.34233e-01,9.66012e-01,9.99999e-01
1.317494319e+00,2.77485e-06,2.87052e-06,9.66672e-01,9.99999e-01
1.324081790e+00,9.12281e-05,9.43101e-05,9.67319e-01,9.99999e-01
1.330702199e+00,7.87018e-03,8.13073e-03,9.67954e-01,9.99999e-01
1.337355710e+00,5.26192e-03,5.43262e-03,9.68577e-01,9.99999e-01
1.344042489e+00,2.10130e-03,2.16810e-03,9.69188e-01,9.99999e-01
1.350762701e+00,6.44808e-03,6.64896e-03,9.69788e-01,9.99999e-01
1.357516515e+00,3.50823e-02,3.61533e-02,9.70375e-01,9.99999e-01
1.364304097e+00,1.25744e-01,1.29506e-01,9.70952e-01,9.99999e-01
1.371125618e+00,3.28480e-01,3.38110e-01,9.71518e-01,9.99999e-01
1.377981246e+00,4.11251e-01,4.23065e-01,9.72072e-01,9.99999e-01
1.384871152e+00,5.89429e-01,6.06024e-01,9.72616e-01,9.99999e-01
1.391795508e+00,6.12947e-01,6.29859e-01,9.73150e-01,9.99999e-01
1.398754485e+00,7.33067e-01,7.52888e-01,9.73673e-01,9.99999e-01
1.405748258e+00,7.89942e-01,8.10873e-01,9.74186e-01,9.99999e-01
1.412776999e+00,8.54111e-01,8.76289e-01,9.74690e-01,9.99999e-01
1.419840884e+00,7.99988e-01,8.20345e-01,9.75183e-01,9.99999e-01
1.426940089e+00,1.15874e-01,1.18764e-01,9.75667e-01,9.99999e-01
1.434074789e+00,8.20629e-235,8.40685e-235,9.76142e-01,9.99999e-01
1.441245163e+00,0.00000e+00,0.00000e+00,9.76608e-01,9.99999e-01
1.448451389e+00,1.30162e-284,1.33217e-284,9.77065e-01,9.99999e-01
1.455693646e+00,1.10629e-127,1.13174e-127,9.77513e-01,9.99999e-01
1.462972114e+00,1.40774e-62,1.43947e-62,9.77952e-01,9.99999e-01
1.470286975e+00,4.57762e-27,4.67875e-27,9.78383e-01,9.99999e-01
1.477638409e+00,1.15301e-17,1.17797e-17,9.78805e-01,9.99999e-01
1.485026601e+00,1.82998e-10,1.86881e-10,9.79219e-01,9.99999e-01
1.492451734e+00,6.61918e-09,6.75684e-09,9.79625e-01,9.99999e-01
1.499913993e+00,8.15857e-05,8.32486e-05,9.80024e-01,9.99999e-01
1.507413563e+00,9.05395e-04,9.23480e-04,9.80414e-01,9.99999e-01
1.514950631e+00,4.30179e-05,4.38601e-05,9.80798e-01,9.99999e-01
1.522525384e+00,4.01309e-13,4.09009e-13,9.81173e-01,9.99999e-01
1.530138011e+00,1.39675e-28,1.42302e-28,9.81542e-01,9.99999e-01
1.537788701e+00,1.35200e-21,1.37692e-21,9.81903e-01,9.99999e-01
1.545477645e+00,4.63690e-06,4.72065e-06,9.82257e-01,9.99999e-01
1.553205033e+00,7.25758e-04,7.38605e-04,9.82605e-01,9.99999e-01
1.560971058e+00,1.83409e-04,1.86591e-04,9.82945e-01,9.99999e-01
1.568775913e+00,5.03839e-70,5.12406e-70,9.83279e-01,9.99999e-01
1.576619793e+00,3.99822e-162,4.06485e-162,9.83607e-01,9.99999e-01
1.584502892e+00,4.37333e-89,4.44476e-89,9.83928e-01,9.99999e-01
1.592425406e+00,2.21877e-62,2.25429e-62,9.84243e-01,9.99999e-01
1.600387533e+00,7.47870e-100,7.59604e-100,9.84552e-01,9.99999e-01
1.608389471e+00,8.37692e-167,8.50573e-167,9.84854e-01,9.99999e-01
1.616431418e+00,7.58372e-168,7.69801e-168,9.85151e-01,9.99999e-01
1.624513575e+00,4.63824e-79,4.70676e-79,9.85443e-01,9.99999e-01
1.632636143e+00,4.17691e-59,4.23738e-59,9.85728e-01,9.99999e-01
1.640799324e+00,3.21602e-25,3.26165e-25,9.86008e-01,9.99999e-01
1.649003321e+00,4.21416e-25,4.27277e-25,9.86282e-01,9.99999e-01
1.657248337e+00,1.06453e-19,1.07904e-19,9.86551e-01,9.99999e-01
1.665534579e+00,7.58414e-20,7.68546e-20,9.86815e-01,9.99999e-01
1.673862252e+00,3.61258e-13,3.65988e-13,9.87074e-01,9.99999e-01
1.682231563e+00,1.43757e-09,1.45602e-09,9.87328e-01,9.99999e-01
1.690642721e+00,5.27050e-06,5.33679e-06,9.87576e-01,9.99999e-01
1.699095934e+00,6.00047e-04,6.07445e-04,9.87820e-01,9.99999e-01
1.707591414e+00,1.90446e-02,1.92748e-02,9.88059e-01,9.99999e-01
1.716129371e+00,1.17285e-01,1.18674e-01,9.88294e-01,9.99999e-01
1.724710018e+00,3.20349e-01,3.24067e-01,9.88524e-01,9.99999e-01
1.733333568e+00,4.80933e-01,4.86405e-01,9.88749e-01,9.99999e-01
1.742000236e+00,6.26437e-01,6.33423e-01,9.88970e-01,9.99999e-01
1.750710237e+00,5.82645e-02,5.89014e-02,9.89187e-01,9.99999e-01
1.759463788e+00,1.62898e-12,1.64643e-12,9.89399e-01,9.99999e-01
1.768261107e+00,1.98632e-13,2.00717e-13,9.89607e-01,9.99999e-01
1.777102413e+00,2.39304e-12,2.41767e-12,9.89812e-01,9.99999e-01
1.785987925e+00,3.42744e-12,3.46202e-12,9.90012e-01,9.99999e-01
1.794917864e+00,2.62003e-11,2.64594e-11,9.90208e-01,9.99999e-01
1.803892454e+00,1.75121e-11,1.76818e-11,9.90401e-01,9.99999e-01
1.812911916e+00,8.95270e-11,9.03774e-11,9.90589e-01,9.99999e-01
1.821976476e+00,5.12252e-11,5.17021e-11,9.90774e-01,9.99999e-01
1.831086358e+00,4.04957e-09,4.08652e-09,9.90956e-01,9.99999e-01
1.840241790e+00,1.09208e-07,1.10185e-07,9.91134e-01,9.99999e-01
1.849442999e+00,1.72124e-05,1.73633e-05,9.91308e-01,9.99999e-01
1.858690214e+00,6.72078e-05,6.77853e-05,9.91479e-01,9.99999e-01
1.867983665e+00,1.13051e-05,1.14004e-05,9.91646e-01,9.99999e-01
1.877323583e+00,8.37801e-23,8.44718e-23,9.91811e-01,9.99999e-01
