#,Wave/freq,Total,CO2,Rayleigh,CIA
4.000000000e-01,4.06751e-09,9.99999e-01,4.06751e-09,9.99999e-01
4.020000000e-01,5.95986e-09,9.99999e-01,5.95986e-09,9.99999e-01
4.040100000e-01,8.66354e-09,9.99999e-01,8.66354e-09,9.99999e-01
4.060300500e-01,1.25010e-08,9.99999e-01,1.25010e-08,9.99999e-01
4.080602003e-01,1.79081e-08,9.99999e-01,1.79081e-08,9.99999e-01
4.101005013e-01,2.54725e-08,9.99999e-01,2.54725e-08,9.99999e-01
4.121510038e-01,3.59808e-08,9.99999e-01,3.59808e-08,9.99999e-01
4.142117588e-01,5.04786e-08,9.99999e-01,5.04786e-08,9.99999e-01
4.162828176e-01,7.03459e-08,9.99999e-01,7.03459e-08,9.99999e-01
4.183642317e-01,9.73920e-08,9.99999e-01,9.73920e-08,9.99999e-01
4.204560528e-01,1.33973e-07,9.99999e-01,1.33973e-07,9.99999e-01
4.225583331e-01,1.83137e-07,9.99999e-01,1.83137e-07,9.99999e-01
4.246711247e-01,2.48801e-07,9.99999e-01,2.48801e-07,9.99999e-01
4.267944804e-01,3.35970e-07,9.99999e-01,3.35970e-07,9.99999e-01
4.289284528e-01,4.50996e-07,9.99999e-01,4.50996e-07,9.99999e-01
4.310730950e-01,6.01892e-07,9.99999e-01,6.01892e-07,9.99999e-01
4.332284605e-01,7.98709e-07,9.99999e-01,7.98709e-07,9.99999e-01
4.353946028e-01,1.05398e-06,9.99999e-01,1.05398e-06,9.99999e-01
4.375715758e-01,1.38323e-06,9.99999e-01,1.38323e-06,9.99999e-01
4.397594337e-01,1.80562e-06,9.99999e-01,1.80562e-06,9.99999e-01
4.419582309e-01,2.34462e-06,9.99999e-01,2.34462e-06,9.99999e-01
4.441680220e-01,3.02885e-06,9.99999e-01,3.02885e-06,9.99999e-01
4.463888621e-01,3.89302e-06,9.99999e-01,3.89302e-06,9.99999e-01
4.486208064e-01,4.97899e-06,9.99999e-01,4.97899e-06,9.99999e-01
4.508639105e-01,6.33704e-06,9.99999e-01,6.33704e-06,9.99999e-01
4.531182300e-01,8.02716e-06,9.99999e-01,8.02716e-06,9.99999e-01
4.553838212e-01,1.01207e-05,9.99999e-01,1.01207e-05,9.99999e-01
4.576607403e-01,1.27019e-05,9.99999e-01,1.27019e-05,9.99999e-01
4.599490440e-01,1.58701e-05,9.99999e-01,1.58701e-05,9.99999e-01
4.622487892e-01,1.97415e-05,9.99999e-01,1.97415e-05,9.99999e-01
4.645600332e-01,2.44516e-05,9.99999e-01,2.44516e-05,9.99999e-01
4.668828333e-01,3.01578e-05,9.99999e-01,3.01578e-05,9.99999e-01
4.692172475e-01,3.70419e-05,9.99999e-01,3.70419e-05,9.99999e-01
4.715633337e-01,4.53130e-05,9.99999e-01,4.53130e-05,9.99999e-01
4.739211504e-01,5.52107e-05,9.99999e-01,5.52107e-05,9.99999e-01
4.762907561e-01,6.70083e-05,9.99999e-01,6.70083e-05,9.99999e-01
4.786722099e-01,8.10164e-05,9.99999e-01,8.10164e-05,9.99999e-01
4.810655710e-01,9.75862e-05,9.99999e-01,9.75862e-05,9.99999e-01
4.834708988e-01,1.17114e-04,9.99999e-01,1.17114e-04,9.99999e-01
4.858882533e-01,1.40043e-04,9.99999e-01,1.40043e-04,9.99999e-01
4.883176946e-01,1.66872e-04,9.99999e-01,1.66872e-04,9.99999e-01
4.907592831e-01,1.98153e-04,9.99999e-01,1.98153e-04,9.99999e-01
4.932130795e-01,2.34501e-04,9.99999e-01,2.34501e-04,9.99999e-01
4.956791449e-01,2.76594e-04,9.99999e-01,2.76594e-04,9.99999e-01
4.981575406e-01,3.25181e-04,9.99999e-01,3.25181e-04,9.99999e-01
5.006483283e-01,3.81083e-04,9.99999e-01,3.81083e-04,9.99999e-01
5.031515699e-01,4.45198e-04,9.99999e-01,4.45198e-04,9.99999e-01
5.056673278e-01,5.18504e-04,9.99999e-01,5.18504e-04,9.99999e-01
5.081956644e-01,6.02066e-04,9.99999e-01,6.02066e-04,9.99999e-01
5.107366428e-01,6.97034e-04,9.99999e-01,6.97034e-04,9.99999e-01
5.132903260e-01,8.04651e-04,9.99999e-01,8.04651e-04,9.99999e-01
5.158567776e-01,9.26253e-04,9.99999e-01,9.26253e-04,9.99999e-01
5.184360615e-01,1.06327e-03,9.99999e-01,1.06327e-03,9.99999e-01
5.210282418e-01,1.21724e-03,9.99999e-01,1.21724e-03,9.99999e-01
5.236333830e-01,1.38978e-03,9.99999e-01,1.38978e-03,9.99999e-01
5.262515499e-01,1.58263e-03,9.99999e-01,1.58263e-03,9.99999e-01
5.288828077e-01,1.79763e-03,9.99999e-01,1.79763e-03,9.99999e-01
5.315272217e-01,2.03669e-03,9.99999e-01,2.03669e-03,9.99999e-01
5.341848578e-01,2.30187e-03,9.99999e-01,2.30187e-03,9.99999e-01
5.368557821e-01,2.59529e-03,9.99999e-01,2.59529e-03,9.99999e-01
5.395400610e-01,2.91919e-03,9.99999e-01,2.91919e-03,9.99999e-01
5.422377613e-01,3.27590e-03,9.99999e-01,3.27590e-03,9.99999e-01
5.449489501e-01,3.66782e-03,9.99999e-01,3.66782e-03,9.99999e-01
5.476736949e-01,4.09749e-03,9.99999e-01,4.09749e-03,9.99999e-01
5.504120634e-01,4.56748e-03,9.99999e-01,4.56748e-03,9.99999e-01
5.531641237e-01,5.08046e-03,9.99999e-01,5.08046e-03,9.99999e-01
5.559299443e-01,5.63920e-03,9.99999e-01,5.63920e-03,9.99999e-01
5.587095940e-01,6.24650e-03,9.99999e-01,6.24650e-03,9.99999e-01
5.615031420e-01,6.90523e-03,9.99999e-01,6.90523e-03,9.99999e-01
5.643106577e-01,7.61833e-03,9.99999e-01,7.61833e-03,9.99999e-01
5.671322110e-01,8.38877e-03,9.99999e-01,8.38877e-03,9.99999e-01
5.699678720e-01,9.21956e-03,9.99999e-01,9.21956e-03,9.99999e-01
5.728177114e-01,1.01138e-02,9.99999e-01,1.01138e-02,9.99999e-01
5.756818000e-01,1.10744e-02,9.99999e-01,1.10744e-02,9.99999e-01
5.785602090e-01,1.21046e-02,9.99999e-01,1.21046e-02,9.99999e-01
5.814530100e-01,1.32074e-02,9.99999e-01,1.32074e-02,9.99999e-01
5.843602750e-01,1.43858e-02,9.99999e-01,1.43858e-02,9.99999e-01
5.872820764e-01,1.56430e-02,9.99999e-01,1.56430e-02,9.99999e-01
5.902184868e-01,1.69819e-02,9.99999e-01,1.69819e-02,9.99999e-01
5.931695792e-01,1.84056e-02,9.99999e-01,1.84056e-02,9.99999e-01
5.961354271e-01,1.99168e-02,9.99999e-01,1.99168e-02,9.99999e-01
5.991161043e-01,2.15187e-02,9.99999e-01,2.15187e-02,9.99999e-01
6.021116848e-01,2.32138e-02,9.99999e-01,2.32138e-02,9.99999e-01
6.051222432e-01,2.50050e-02,9.99999e-01,2.50050e-02,9.99999e-01
6.081478544e-01,2.68949e-02,9.99999e-01,2.68949e-02,9.99999e-01
6.111885937e-01,2.88860e-02,9.99999e-01,2.88860e-02,9.99999e-01
6.142445367e-01,3.09808e-02,9.99999e-01,3.09808e-02,9.99999e-01
6.173157594e-01,3.31816e-02,9.99999e-01,3.31816e-02,9.99999e-01
6.204023382e-01,3.54906e-02,9.99999e-01,3.54906e-02,9.99999e-01
6.235043498e-01,3.79099e-02,9.99999e-01,3.79099e-02,9.99999e-01
6.266218716e-01,4.04413e-02,9.99999e-01,4.04413e-02,9.99999e-01
6.297549810e-01,4.30868e-02,9.99999e-01,4.30868e-02,9.99999e-01
6.329037559e-01,4.58479e-02,9.99999e-01,4.58479e-02,9.99999e-01
6.360682746e-01,4.87261e-02,9.99999e-01,4.87261e-02,9.99999e-01
6.392486160e-01,5.17227e-02,9.99999e-01,5.17227e-02,9.99999e-01
6.424448591e-01,5.48390e-02,9.99999e-01,5.48390e-02,9.99999e-01
6.456570834e-01,5.80758e-02,9.99999e-01,5.80758e-02,9.99999e-01
6.488853688e-01,6.14341e-02,9.99999e-01,6.14341e-02,9.99999e-01
6.521297956e-01,6.49144e-02,9.99999e-01,6.49144e-02,9.99999e-01
6.553904446e-01,6.85174e-02,9.99999e-01,6.85174e-02,9.99999e-01
6.586673968e-01,7.22431e-02,9.99999e-01,7.22431e-02,9.99999e-01
6.619607338e-01,7.60918e-02,9.99999e-01,7.60918e-02,9.99999e-01
6.652705375e-01,8.00635e-02,9.99999e-01,8.00635e-02,9.99999e-01
6.685968902e-01,8.41578e-02,9.99999e-01,8.41578e-02,9.99999e-01
6.719398746e-01,8.83744e-02,9.99999e-01,8.83744e-02,9.99999e-01
6.752995740e-01,9.27126e-02,9.99999e-01,9.27126e-02,9.99999e-01
6.786760719e-01,9.71718e-02,9.99999e-01,9.71718e-02,9.99999e-01
6.820694522e-01,1.01751e-01,9.99999e-01,1.01751e-01,9.99999e-01
6.854797995e-01,1.06449e-01,9.99999e-01,1.06449e-01,9.99999e-01
6.889071985e-01,1.11265e-01,9.99999e-01,1.11265e-01,9.99999e-01
6.923517345e-01,1.16197e-01,9.99999e-01,1.16197e-01,9.99999e-01
6.958134932e-01,1.21244e-01,9.99999e-01,1.21244e-01,9.99999e-01
6.992925606e-01,1.26404e-01,9.99999e-01,1.26404e-01,9.99999e-01
7.027890234e-01,1.31675e-01,9.99999e-01,1.31675e-01,9.99999e-01
7.063029686e-01,1.37055e-01,9.99999e-01,1.37055e-01,9.99999e-01
7.098344834e-01,1.42542e-01,9.99999e-01,1.42542e-01,9.99999e-01
7.133836558e-01,1.48134e-01,9.99999e-01,1.48134e-01,9.99999e-01
7.169505741e-01,1.53828e-01,9.99999e-01,1.53828e-01,9.99999e-01
7.205353270e-01,1.59623e-01,9.99999e-01,1.59623e-01,9.99999e-01
7.241380036e-01,1.65514e-01,9.99999e-01,1.65514e-01,9.99999e-01
7.277586936e-01,1.71500e-01,9.99999e-01,1.71500e-01,9.99999e-01
7.313974871e-01,1.77579e-01,9.99999e-01,1.77579e-01,9.99999e-01
7.350544745e-01,1.83746e-01,9.99999e-01,1.83746e-01,9.99999e-01
7.387297469e-01,1.89999e-01,9.99999e-01,1.89999e-01,9.99999e-01
7.424233956e-01,1.96335e-01,9.99999e-01,1.96335e-01,9.99999e-01
7.461355126e-01,2.02751e-01,9.99999e-01,2.02751e-01,9.99999e-01
7.498661902e-01,2.09243e-01,9.99999e-01,2.09243e-01,9.99999e-01
7.536155211e-01,2.15809e-01,9.99999e-01,2.15809e-01,9.99999e-01
7.573835987e-01,2.22446e-01,9.99999e-01,2.22446e-01,9.99999e-01
7.611705167e-01,2.29149e-01,9.99999e-01,2.29149e-01,9.99999e-01
7.649763693e-01,2.35916e-01,9.99999e-01,2.35916e-01,9.99999e-01
7.688012511e-01,2.42743e-01,9.99999e-01,2.42743e-01,9.99999e-01
7.726452574e-01,2.49627e-01,9.99999e-01,2.49627e-01,9.99999e-01
7.765084837e-01,2.56564e-01,9.99999e-01,2.56564e-01,9.99999e-01
7.803910261e-01,2.48297e-01,9.42116e-01,2.63552e-01,9.99999e-01
7.842929812e-01,2.05601e-01,7.59834e-01,2.70586e-01,9.99999e-01
7.882144461e-01,2.07226e-01,7.46321e-01,2.77664e-01,9.99999e-01
7.921555184e-01,2.39127e-01,8.39688e-01,2.84781e-01,9.99999e-01
7.961162960e-01,2.59590e-01,8.89204e-01,2.91935e-01,9.99999e-01
8.000968774e-01,2.80660e-01,9.38280e-01,2.99121e-01,9.99999e-01
8.040973618e-01,2.96392e-01,9.67532e-01,3.06338e-01,9.99999e-01
8.081178486e-01,3.08862e-01,9.84950e-01,3.13581e-01,9.99999e-01
8.121584379e-01,3.19350e-01,9.95334e-01,3.20847e-01,9.99999e-01
8.162192301e-01,3.27794e-01,9.98967e-01,3.28133e-01,9.99999e-01
8.203003262e-01,3.35430e-01,9.99984e-01,3.35435e-01,9.99999e-01
8.244018279e-01,3.42751e-01,9.99999e-01,3.42751e-01,9.99999e-01
8.285238370e-01,3.50078e-01,9.99999e-01,3.50078e-01,9.99999e-01
8.326664562e-01,3.57411e-01,9.99999e-01,3.57411e-01,9.99999e-01
8.368297885e-01,3.64749e-01,9.99999e-01,3.64749e-01,9.99999e-01
8.410139374e-01,3.72088e-01,9.99999e-01,3.72088e-01,9.99999e-01
8.452190071e-01,3.79426e-01,9.99999e-01,3.79426e-01,9.99999e-01
8.494451021e-01,3.86759e-01,9.99999e-01,3.86759e-01,9.99999e-01
8.536923276e-01,3.94084e-01,9.99999e-01,3.94084e-01,9.99999e-01
8.579607893e-01,4.01400e-01,9.99999e-01,4.01400e-01,9.99999e-01
8.622505932e-01,4.08703e-01,9.99999e-01,4.08703e-01,9.99999e-01
8.665618462e-01,3.72483e-01,8.95412e-01,4.15990e-01,9.99999e-01
8.708946554e-01,2.13028e-01,5.03301e-01,4.23260e-01,9.99999e-01
8.752491287e-01,2.45499e-01,5.70251e-01,4.30510e-01,9.99999e-01
8.796253743e-01,3.20240e-01,7.31580e-01,4.37736e-01,9.99999e-01
8.840235012e-01,3.77872e-01,8.49269e-01,4.44938e-01,9.99999e-01
8.884436187e-01,4.23858e-01,9.37505e-01,4.52112e-01,9.99999e-01
8.928858368e-01,4.47394e-01,9.74168e-01,4.59257e-01,9.99999e-01
8.973502660e-01,4.63419e-01,9.93670e-01,4.66371e-01,9.99999e-01
9.018370173e-01,4.73120e-01,9.99300e-01,4.73451e-01,9.99999e-01
9.063462024e-01,4.71969e-01,9.82256e-01,4.80495e-01,9.99999e-01
9.108779334e-01,4.67795e-01,9.59576e-01,4.87502e-01,9.99999e-01
9.154323231e-01,4.89709e-01,9.90371e-01,4.94470e-01,9.99999e-01
9.200094847e-01,4.38792e-01,8.75139e-01,5.01396e-01,9.99999e-01
9.246095321e-01,4.15529e-01,8.17520e-01,5.08280e-01,9.99999e-01
9.292325798e-01,4.40339e-01,8.54828e-01,5.15120e-01,9.99999e-01
9.338787427e-01,4.48211e-01,8.58783e-01,5.21914e-01,9.99999e-01
9.385481364e-01,4.72516e-01,8.93798e-01,5.28661e-01,9.99999e-01
9.432408771e-01,4.99733e-01,9.33453e-01,5.35359e-01,9.99999e-01
9.479570815e-01,5.23181e-01,9.65266e-01,5.42007e-01,9.99999e-01
9.526968669e-01,5.39339e-01,9.83112e-01,5.48604e-01,9.99999e-01
9.574603512e-01,5.51120e-01,9.92742e-01,5.55149e-01,9.99999e-01
9.622476530e-01,5.60366e-01,9.97731e-01,5.61640e-01,9.99999e-01
9.670588912e-01,5.67690e-01,9.99319e-01,5.68076e-01,9.99999e-01
9.718941857e-01,5.74430e-01,9.99951e-01,5.74457e-01,9.99999e-01
9.767536566e-01,5.80782e-01,9.99999e-01,5.80782e-01,9.99999e-01
9.816374249e-01,5.87049e-01,9.99999e-01,5.87049e-01,9.99999e-01
9.865456120e-01,5.93258e-01,9.99999e-01,5.93258e-01,9.99999e-01
9.914783401e-01,5.99408e-01,9.99999e-01,5.99408e-01,9.99999e-01
9.964357318e-01,6.05498e-01,9.99999e-01,6.05498e-01,9.99999e-01
1.001417910e+00,6.11529e-01,9.99999e-01,6.11529e-01,9.99999e-01
1.006425000e+00,6.17498e-01,9.99999e-01,6.17498e-01,9.99999e-01
1.011457125e+00,6.23406e-01,9.99999e-01,6.23406e-01,9.99999e-01
1.016514411e+00,6.29252e-01,9.99999e-01,6.29252e-01,9.99999e-01
1.021596983e+00,6.34975e-01,9.99903e-01,6.35036e-01,9.99999e-01
1.026704968e+00,6.36278e-01,9.93008e-01,6.40758e-01,9.99999e-01
1.031838492e+00,6.02511e-01,9.32078e-01,6.46416e-01,9.99999e-01
1.036997685e+00,5.59529e-02,8.58158e-02,6.52011e-01,9.99999e-01
1.042182673e+00,1.63278e-02,2.48316e-02,6.57542e-01,9.99999e-01
1.047393587e+00,2.87032e-02,4.32922e-02,6.63010e-01,9.99999e-01
1.052630555e+00,7.20841e-05,1.07843e-04,6.68414e-01,9.99999e-01
1.057893707e+00,2.45380e-04,3.64198e-04,6.73754e-01,9.99999e-01
1.063183176e+00,1.86119e-03,2.74096e-03,6.79030e-01,9.99999e-01
1.068499092e+00,9.49870e-03,1.38821e-02,6.84242e-01,9.99999e-01
1.073841587e+00,4.52854e-02,6.56891e-02,6.89389e-01,9.99999e-01
1.079210795e+00,1.24132e-01,1.78743e-01,6.94473e-01,9.99999e-01
1.084606849e+00,2.67597e-01,3.82558e-01,6.99492e-01,9.99999e-01
1.090029883e+00,4.26824e-01,6.05899e-01,7.04448e-01,9.99999e-01
1.095480033e+00,5.53951e-01,7.80939e-01,7.09340e-01,9.99999e-01
1.100957433e+00,6.33792e-01,8.87455e-01,7.14168e-01,9.99999e-01
1.106462220e+00,6.84281e-01,9.51801e-01,7.18932e-01,9.99999e-01
1.111994531e+00,7.10499e-01,9.81848e-01,7.23634e-01,9.99999e-01
1.117554504e+00,7.25025e-01,9.95541e-01,7.28272e-01,9.99999e-01
1.123142276e+00,7.32633e-01,9.99706e-01,7.32848e-01,9.99999e-01
1.128757988e+00,7.37361e-01,9.99999e-01,7.37361e-01,9.99999e-01
1.134401778e+00,7.41812e-01,9.99999e-01,7.41812e-01,9.99999e-01
1.140073787e+00,7.46201e-01,9.99999e-01,7.46201e-01,9.99999e-01
1.145774156e+00,7.50528e-01,9.99999e-01,7.50528e-01,9.99999e-01
1.151503026e+00,7.54795e-01,9.99999e-01,7.54795e-01,9.99999e-01
1.157260541e+00,7.59000e-01,9.99999e-01,7.59000e-01,9.99999e-01
1.163046844e+00,7.63146e-01,9.99999e-01,7.63146e-01,9.99999e-01
1.168862078e+00,7.67231e-01,9.99999e-01,7.67231e-01,9.99999e-01
1.174706389e+00,7.71257e-01,9.99999e-01,7.71257e-01,9.99999e-01
1.180579921e+00,7.75224e-01,9.99999e-01,7.75224e-01,9.99999e-01
1.186482820e+00,7.79122e-01,9.99986e-01,7.79133e-01,9.99999e-01
1.192415234e+00,7.63868e-01,9.75585e-01,7.82983e-01,9.99999e-01
1.198377311e+00,4.26470e-01,5.42047e-01,7.86776e-01,9.99999e-01
1.204369197e+00,5.29764e-19,6.70153e-19,7.90511e-01,9.99999e-01
1.210391043e+00,3.18294e-74,4.00778e-74,7.94191e-01,9.99999e-01
1.216442998e+00,2.38206e-64,2.98573e-64,7.97814e-01,9.99999e-01
1.222525213e+00,2.13692e-63,2.66655e-63,8.01381e-01,9.99999e-01
1.228637839e+00,4.88072e-49,6.06380e-49,8.04894e-01,9.99999e-01
1.234781029e+00,6.88934e-31,8.52269e-31,8.08352e-01,9.99999e-01
1.240954934e+00,1.17279e-20,1.44476e-20,8.11756e-01,9.99999e-01
1.247159708e+00,1.77365e-10,2.17597e-10,8.15107e-01,9.99999e-01
1.253395507e+00,5.06693e-07,6.19122e-07,8.18405e-01,9.99999e-01
1.259662485e+00,2.29596e-04,2.79432e-04,8.21651e-01,9.99999e-01
1.265960797e+00,7.98313e-03,9.67833e-03,8.24845e-01,9.99999e-01
1.272290601e+00,1.05149e-01,1.26993e-01,8.27989e-01,9.99999e-01
1.278652054e+00,9.04338e-02,1.08815e-01,8.31081e-01,9.99999e-01
1.285045314e+00,4.96869e-04,5.95676e-04,8.34124e-01,9.99999e-01
1.291470541e+00,3.25692e-09,3.89063e-09,8.37118e-01,9.99999e-01
1.297927893e+00,1.83215e-04,2.18097e-04,8.40063e-01,9.99999e-01
1.304417533e+00,1.92314e-02,2.28141e-02,8.42960e-01,9.99999e-01
1.310939621e+00,4.52166e-03,5.34595e-03,8.45809e-01,9.99999e-01
1.317494319e+00,1.02687e-25,1.21006e-25,8.48611e-01,9.99999e-01
1.324081790e+00,3.50593e-17,4.11799e-17,8.51368e-01,9.99999e-01
1.330702199e+00,3.36284e-10,3.93739e-10,8.54078e-01,9.99999e-01
1.337355710e+00,1.41956e-09,1.65693e-09,8.56743e-01,9.99999e-01
1.344042489e+00,5.69225e-10,6.62379e-10,8.59363e-01,9.99999e-01
1.350762701e+00,1.84015e-10,2.13490e-10,8.61940e-01,9.99999e-01
1.357516515e+00,9.81629e-07,1.13552e-06,8.64473e-01,9.99999e-01
1.364304097e+00,7.11393e-05,8.20557e-05,8.66964e-01,9.99999e-01
1.371125618e+00,6.93834e-03,7.98050e-03,8.69412e-01,9.99999e-01
1.377981246e+00,1.45793e-02,1.67228e-02,8.71818e-01,9.99999e-01
1.384871152e+00,8.07746e-02,9.23999e-02,8.74184e-01,9.99999e-01
1.391795508e+00,9.71342e-02,1.10819e-01,8.76508e-01,9.99999e-01
1.398754485e+00,2.23309e-01,2.54109e-01,8.78793e-01,9.99999e-01
1.405748258e+00,3.23012e-01,3.66626e-01,8.81039e-01,9.99999e-01
1.412776999e+00,4.67468e-01,5.29261e-01,8.83246e-01,9.99999e-01
1.419840884e+00,4.21494e-01,4.76041e-01,8.85415e-01,9.99999e-01
1.426940089e+00,2.35612e-02,2.65464e-02,8.87546e-01,9.99999e-01
1.434074789e+00,0.00000e+00,0.00000e+00,8.89639e-01,9.99999e-01
1.441245163e+00,0.00000e+00,0.00000e+00,8.91697e-01,9.99999e-01
1.448451389e+00,0.00000e+00,0.00000e+00,8.93718e-01,9.99999e-01
1.455693646e+00,0.00000e+00,0.00000e+00,8.95704e-01,9.99999e-01
1.462972114e+00,2.19330e-294,2.44336e-294,8.97655e-01,9.99999e-01
1.470286975e+00,1.86103e-122,2.06879e-122,8.99571e-01,9.99999e-01
1.477638409e+00,3.87036e-77,4.29346e-77,9.01453e-01,9.99999e-01
1.485026601e+00,3.63638e-43,4.02565e-43,9.03303e-01,9.99999e-01
1.492451734e+00,8.69110e-37,9.60215e-37,9.05119e-01,9.99999e-01
1.499913993e+00,2.90178e-16,3.19965e-16,9.06903e-01,9.99999e-01
1.507413563e+00,4.99082e-15,5.49253e-15,9.08655e-01,9.99999e-01
1.514950631e+00,1.79654e-16,1.97340e-16,9.10376e-01,9.99999e-01
1.522525384e+00,5.71013e-55,6.26065e-55,9.12066e-01,9.99999e-01
1.530138011e+00,1.19605e-130,1.30898e-130,9.13726e-01,9.99999e-01
1.537788701e+00,9.21381e-97,1.00658e-96,9.15356e-01,9.99999e-01
1.545477645e+00,8.62944e-21,9.41095e-21,9.16956e-01,9.99999e-01
1.553205033e+00,4.66513e-15,5.07891e-15,9.18528e-01,9.99999e-01
1.560971058e+00,1.85794e-15,2.01934e-15,9.20071e-01,9.99999e-01
1.568775913e+00,0.00000e+00,0.00000e+00,9.21586e-01,9.99999e-01
1.576619793e+00,0.00000e+00,0.00000e+00,9.23074e-01,9.99999e-01
1.584502892e+00,0.00000e+00,0.00000e+00,9.24534e-01,9.99999e-01
1.592425406e+00,1.63636e-294,1.76719e-294,9.25968e-01,9.99999e-01
1.600387533e+00,0.00000e+00,0.00000e+00,9.27376e-01,9.99999e-01
1.608389471e+00,0.00000e+00,0.00000e+00,9.28758e-01,9.99999e-01
1.616431418e+00,0.00000e+00,0.00000e+00,9.30115e-01,9.99999e-01
1.624513575e+00,0.00000e+00,0.00000e+00,9.31447e-01,9.99999e-01
1.632636143e+00,7.86465e-278,8.43163e-278,9.32754e-01,9.99999e-01
1.640799324e+00,1.75062e-113,1.87425e-113,9.34038e-01,9.99999e-01
1.649003321e+00,1.75263e-113,1.87387e-113,9.35298e-01,9.99999e-01
1.657248337e+00,8.52068e-88,9.09809e-88,9.36534e-01,9.99999e-01
1.665534579e+00,2.22069e-88,2.36811e-88,9.37748e-01,9.99999e-01
1.673862252e+00,1.65337e-56,1.76089e-56,9.38939e-01,9.99999e-01
1.682231563e+00,2.90621e-39,3.09135e-39,9.40108e-01,9.99999e-01
1.690642721e+00,5.19757e-22,5.52195e-22,9.41256e-01,9.99999e-01
1.699095934e+00,3.82136e-14,4.05500e-14,9.42382e-01,9.99999e-01
1.707591414e+00,1.48634e-07,1.57537e-07,9.43488e-01,9.99999e-01
1.716129371e+00,1.11690e-04,1.18244e-04,9.44572e-01,9.99999e-01
1.724710018e+00,5.52890e-03,5.84674e-03,9.45637e-01,9.99999e-01
1.733333568e+00,3.17173e-02,3.35036e-02,9.46681e-01,9.99999e-01
1.742000236e+00,1.29399e-01,1.36539e-01,9.47706e-01,9.99999e-01
1.750710237e+00,1.07288e-03,1.13088e-03,9.48712e-01,9.99999e-01
1.759463788e+00,5.79840e-54,6.10550e-54,9.49700e-01,9.99999e-01
1.768261107e+00,1.78414e-56,1.87672e-56,9.50668e-01,9.99999e-01
1.777102413e+00,6.41081e-55,6.73674e-55,9.51619e-01,9.99999e-01
1.785987925e+00,1.45432e-51,1.52676e-51,9.52551e-01,9.99999e-01
1.794917864e+00,3.00722e-49,3.15398e-49,9.53466e-01,9.99999e-01
1.803892454e+00,2.30811e-47,2.41847e-47,9.54364e-01,9.99999e-01
1.812911916e+00,1.65021e-45,1.72752e-45,9.55245e-01,9.99999e-01
1.821976476e+00,1.41099e-45,1.47576e-45,9.56109e-01,9.99999e-01
1.831086358e+00,1.11561e-36,1.16578e-36,9.56957e-01,9.99999e-01
1.840241790e+00,2.92984e-31,3.05896e-31,9.57789e-01,9.99999e-01
1.849442999e+00,9.04608e-22,9.43670e-22,9.58606e-01,9.99999e-01
1.858690214e+00,2.00107e-20,2.08574e-20,9.59406e-01,9.99999e-01
1.867983665e+00,4.39929e-21,4.58167e-21,9.60192e-01,9.99999e-01
1.877323583e+00,8.47752e-103,8.82190e-103,9.60963e-01,9.99999e-01
