#,Wave/freq,Total,CO2,Rayleigh,CIA
4.000000000e-01,1.72922e-05,9.99999e-01,1.72922e-05,9.99999e-01
4.020000000e-01,2.14787e-05,9.99999e-01,2.14787e-05,9.99999e-01
4.040100000e-01,2.65591e-05,9.99999e-01,2.65591e-05,9.99999e-01
4.060300500e-01,3.27037e-05,9.99999e-01,3.27037e-05,9.99999e-01
4.080602003e-01,4.01046e-05,9.99999e-01,4.01046e-05,9.99999e-01
4.101005013e-01,4.89826e-05,9.99999e-01,4.89826e-05,9.99999e-01
4.121510038e-01,5.95901e-05,9.99999e-01,5.95901e-05,9.99999e-01
4.142117588e-01,7.22146e-05,9.99999e-01,7.22146e-05,9.99999e-01
4.162828176e-01,8.71822e-05,9.99999e-01,8.71822e-05,9.99999e-01
4.183642317e-01,1.04861e-04,9.99999e-01,1.04861e-04,9.99999e-01
4.204560528e-01,1.25666e-04,9.99999e-01,1.25666e-04,9.99999e-01
4.225583331e-01,1.50061e-04,9.99999e-01,1.50061e-04,9.99999e-01
4.246711247e-01,1.78565e-04,9.99999e-01,1.78565e-04,9.99999e-01
4.267944804e-01,2.11754e-04,9.99999e-01,2.11754e-04,9.99999e-01
4.289284528e-01,2.50268e-04,9.99999e-01,2.50268e-04,9.99999e-01
4.310730950e-01,2.94813e-04,9.99999e-01,2.94813e-04,9.99999e-01
4.332284605e-01,3.46163e-04,9.99999e-01,3.46163e-04,9.99999e-01
4.353946028e-01,4.05172e-04,9.99999e-01,4.05172e-04,9.99999e-01
4.375715758e-01,4.72766e-04,9.99999e-01,4.72766e-04,9.99999e-01
4.397594337e-01,5.49959e-04,9.99999e-01,5.49959e-04,9.99999e-01
4.419582309e-01,6.37848e-04,9.99999e-01,6.37848e-04,9.99999e-01
4.441680220e-01,7.37618e-04,9.99999e-01,7.37618e-04,9.99999e-01
4.463888621e-01,8.50550e-04,9.99999e-01,8.50550e-04,9.99999e-01
4.486208064e-01,9.78016e-04,9.99999e-01,9.78016e-04,9.99999e-01
4.508639105e-01,1.12149e-03,9.99999e-01,1.12149e-03,9.99999e-01
4.531182300e-01,1.28253e-03,9.99999e-01,1.28253e-03,9.99999e-01
4.553838212e-01,1.46282e-03,9.99999e-01,1.46282e-03,9.99999e-01
4.576607403e-01,1.66412e-03,9.99999e-01,1.66412e-03,9.99999e-01
4.599490440e-01,1.88831e-03,9.99999e-01,1.88831e-03,9.99999e-01
4.622487892e-01,2.13736e-03,9.99999e-01,2.13736e-03,9.99999e-01
4.645600332e-01,2.41334e-03,9.99999e-01,2.41334e-03,9.99999e-01
4.668828333e-01,2.71844e-03,9.99999e-01,2.71844e-03,9.99999e-01
4.692172475e-01,3.05490e-03,9.99999e-01,3.05490e-03,9.99999e-01
4.715633337e-01,3.42512e-03,9.99999e-01,3.42512e-03,9.99999e-01
4.739211504e-01,3.83152e-03,9.99999e-01,3.83152e-03,9.99999e-01
4.762907561e-01,4.27667e-03,9.99999e-01,4.27667e-03,9.99999e-01
4.786722099e-01,4.76318e-03,9.99999e-01,4.76318e-03,9.99999e-01
4.810655710e-01,5.29377e-03,9.99999e-01,5.29377e-03,9.99999e-01
4.834708988e-01,5.87119e-03,9.99999e-01,5.87119e-03,9.99999e-01
4.858882533e-01,6.49829e-03,9.99999e-01,6.49829e-03,9.99999e-01
4.883176946e-01,7.17797e-03,9.99999e-01,7.17797e-03,9.99999e-01
4.907592831e-01,7.91318e-03,9.99999e-01,7.91318e-03,9.99999e-01
4.932130795e-01,8.70690e-03,9.99999e-01,8.70690e-03,9.99999e-01
4.956791449e-01,9.56217e-03,9.99999e-01,9.56217e-03,9.99999e-01
4.981575406e-01,1.04820e-02,9.99999e-01,1.04820e-02,9.99999e-01
5.006483283e-01,1.14696e-02,9.99999e-01,1.14696e-02,9.99999e-01
5.031515699e-01,1.25278e-02,9.99999e-01,1.25278e-02,9.99999e-01
5.056673278e-01,1.36599e-02,9.99999e-01,1.36599e-02,9.99999e-01
5.081956644e-01,1.48688e-02,9.99999e-01,1.48688e-02,9.99999e-01
5.107366428e-01,1.61577e-02,9.99999e-01,1.61577e-02,9.99999e-01
5.132903260e-01,1.75294e-02,9.99999e-01,1.75294e-02,9.99999e-01
5.158567776e-01,1.89871e-02,9.99999e-01,1.89871e-02,9.99999e-01
5.184360615e-01,2.05335e-02,9.99999e-01,2.05335e-02,9.99999e-01
5.210282418e-01,2.21715e-02,9.99999e-01,2.21715e-02,9.99999e-01
5.236333830e-01,2.39040e-02,9.99999e-01,2.39040e-02,9.99999e-01
5.262515499e-01,2.57335e-02,9.99999e-01,2.57335e-02,9.99999e-01
5.288828077e-01,2.76628e-02,9.99999e-01,2.76628e-02,9.99999e-01
5.315272217e-01,2.96942e-02,9.99999e-01,2.96942e-02,9.99999e-01
5.341848578e-01,3.18303e-02,9.99999e-01,3.18303e-02,9.99999e-01
5.368557821e-01,3.40732e-02,9.99999e-01,3.40732e-02,9.99999e-01
5.395400610e-01,3.64252e-02,9.99999e-01,3.64252e-02,9.99999e-01
5.422377613e-01,3.88882e-02,9.99999e-01,3.88882e-02,9.99999e-01
5.449489501e-01,4.14641e-02,9.99999e-01,4.14641e-02,9.99999e-01
5.476736949e-01,4.41547e-02,9.99999e-01,4.41547e-02,9.99999e-01
5.504120634e-01,4.69615e-02,9.99999e-01,4.69615e-02,9.99999e-01
5.531641237e-01,4.98859e-02,9.99999e-01,4.98859e-02,9.99999e-01
5.559299443e-01,5.29293e-02,9.99999e-01,5.29293e-02,9.99999e-01
5.587095940e-01,5.60927e-02,9.99999e-01,5.60927e-02,9.99999e-01
5.615031420e-01,5.93770e-02,9.99999e-01,5.93770e-02,9.99999e-01
5.643106577e-01,6.27831e-02,9.99999e-01,6.27831e-02,9.99999e-01
5.671322110e-01,6.63114e-02,9.99999e-01,6.63114e-02,9.99999e-01
5.699678720e-01,6.99624e-02,9.99999e-01,6.99624e-02,9.99999e-01
5.728177114e-01,7.37363e-02,9.99999e-01,7.37363e-02,9.99999e-01
5.756818000e-01,7.76332e-02,9.99999e-01,7.76332e-02,9.99999e-01
5.785602090e-01,8.16530e-02,9.99999e-01,8.16530e-02,9.99999e-01
5.814530100e-01,8.57952e-02,9.99999e-01,8.57952e-02,9.99999e-01
5.843602750e-01,9.00596e-02,9.99999e-01,9.00596e-02,9.99999e-01
5.872820764e-01,9.44453e-02,9.99999e-01,9.44453e-02,9.99999e-01
5.902184868e-01,9.89517e-02,9.99999e-01,9.89517e-02,9.99999e-01
5.931695792e-01,1.03578e-01,9.99999e-01,1.03578e-01,9.99999e-01
5.961354271e-01,1.08322e-01,9.99999e-01,1.08322e-01,9.99999e-01
5.991161043e-01,1.13184e-01,9.99999e-01,1.13184e-01,9.99999e-01
6.021116848e-01,1.18161e-01,9.99999e-01,1.18161e-01,9.99999e-01
6.051222432e-01,1.23252e-01,9.99999e-01,1.23252e-01,9.99999e-01
6.081478544e-01,1.28456e-01,9.99999e-01,1.28456e-01,9.99999e-01
6.111885937e-01,1.33770e-01,9.99999e-01,1.33770e-01,9.99999e-01
6.142445367e-01,1.39192e-01,9.99999e-01,1.39192e-01,9.99999e-01
6.173157594e-01,1.44721e-01,9.99999e-01,1.44721e-01,9.99999e-01
6.204023382e-01,1.50353e-01,9.99999e-01,1.50353e-01,9.99999e-01
6.235043498e-01,1.56087e-01,9.99999e-01,1.56087e-01,9.99999e-01
6.266218716e-01,1.61919e-01,9.99999e-01,1.61919e-01,9.99999e-01
6.297549810e-01,1.67848e-01,9.99999e-01,1.67848e-01,9.99999e-01
6.329037559e-01,1.73871e-01,9.99999e-01,1.73871e-01,9.99999e-01
6.360682746e-01,1.79984e-01,9.99999e-01,1.79984e-01,9.99999e-01
6.392486160e-01,1.86185e-01,9.99999e-01,1.86185e-01,9.99999e-01
6.424448591e-01,1.92471e-01,9.99999e-01,1.92471e-01,9.99999e-01
6.456570834e-01,1.98839e-01,9.99999e-01,1.98839e-01,9.99999e-01
6.488853688e-01,2.05285e-01,9.99999e-01,2.05285e-01,9.99999e-01
6.521297956e-01,2.11807e-01,9.99999e-01,2.11807e-01,9.99999e-01
6.553904446e-01,2.18401e-01,9.99999e-01,2.18401e-01,9.99999e-01
6.586673968e-01,2.25064e-01,9.99999e-01,2.25064e-01,9.99999e-01
6.619607338e-01,2.31793e-01,9.99999e-01,2.31793e-01,9.99999e-01
6.652705375e-01,2.38584e-01,9.99999e-01,2.38584e-01,9.99999e-01
6.685968902e-01,2.45433e-01,9.99999e-01,2.45433e-01,9.99999e-01
6.719398746e-01,2.52339e-01,9.99999e-01,2.52339e-01,9.99999e-01
6.752995740e-01,2.59296e-01,9.99999e-01,2.59296e-01,9.99999e-01
6.786760719e-01,2.66302e-01,9.99999e-01,2.66302e-01,9.99999e-01
6.820694522e-01,2.73354e-01,9.99999e-01,2.73354e-01,9.99999e-01
6.854797995e-01,2.80447e-01,9.99999e-01,2.80447e-01,9.99999e-01
6.889071985e-01,2.87579e-01,9.99999e-01,2.87579e-01,9.99999e-01
6.923517345e-01,2.94747e-01,9.99999e-01,2.94747e-01,9.99999e-01
6.958134932e-01,3.01945e-01,9.99999e-01,3.01945e-01,9.99999e-01
6.992925606e-01,3.09173e-01,9.99999e-01,3.09173e-01,9.99999e-01
7.027890234e-01,3.16425e-01,9.99999e-01,3.16425e-01,9.99999e-01
7.063029686e-01,3.23699e-01,9.99999e-01,3.23699e-01,9.99999e-01
7.098344834e-01,3.30992e-01,9.99999e-01,3.30992e-01,9.99999e-01
7.133836558e-01,3.38300e-01,9.99999e-01,3.38300e-01,9.99999e-01
7.169505741e-01,3.45621e-01,9.99999e-01,3.45621e-01,9.99999e-01
7.205353270e-01,3.52950e-01,9.99999e-01,3.52950e-01,9.99999e-01
7.241380036e-01,3.60286e-01,9.99999e-01,3.60286e-01,9.99999e-01
7.277586936e-01,3.67625e-01,9.99999e-01,3.67625e-01,9.99999e-01
7.313974871e-01,3.74964e-01,9.99999e-01,3.74964e-01,9.99999e-01
7.350544745e-01,3.82300e-01,9.99999e-01,3.82300e-01,9.99999e-01
7.387297469e-01,3.89630e-01,9.99999e-01,3.89630e-01,9.99999e-01
7.424233956e-01,3.96952e-01,9.99999e-01,3.96952e-01,9.99999e-01
7.461355126e-01,4.04263e-01,9.99999e-01,4.04263e-01,9.99999e-01
7.498661902e-01,4.11560e-01,9.99999e-01,4.11560e-01,9.99999e-01
7.536155211e-01,4.18841e-01,9.99999e-01,4.18841e-01,9.99999e-01
7.573835987e-01,4.26103e-01,9.99999e-01,4.26103e-01,9.99999e-01
7.611705167e-01,4.33344e-01,9.99999e-01,4.33344e-01,9.99999e-01
7.649763693e-01,4.40561e-01,9.99999e-01,4.40561e-01,9.99999e-01
7.688012511e-01,4.47752e-01,9.99999e-01,4.47752e-01,9.99999e-01
7.726452574e-01,4.54915e-01,9.99999e-01,4.54915e-01,9.99999e-01
7.765084837e-01,4.62048e-01,9.99999e-01,4.62048e-01,9.99999e-01
7.803910261e-01,4.52054e-01,9.63560e-01,4.69149e-01,9.99999e-01
7.842929812e-01,4.06187e-01,8.52948e-01,4.76215e-01,9.99999e-01
7.882144461e-01,4.07259e-01,8.42759e-01,4.83245e-01,9.99999e-01
7.921555184e-01,4.43601e-01,9.04870e-01,4.90237e-01,9.99999e-01
7.961162960e-01,4.65164e-01,9.35588e-01,4.97188e-01,9.99999e-01
8.000968774e-01,4.86206e-01,9.64506e-01,5.04098e-01,9.99999e-01
8.040973618e-01,5.01517e-01,9.81508e-01,5.10965e-01,9.99999e-01
8.081178486e-01,5.13358e-01,9.91445e-01,5.17787e-01,9.99999e-01
8.121584379e-01,5.23183e-01,9.97368e-01,5.24563e-01,9.99999e-01
8.162192301e-01,5.30982e-01,9.99418e-01,5.31291e-01,9.99999e-01
8.203003262e-01,5.37965e-01,9.99991e-01,5.37970e-01,9.99999e-01
8.244018279e-01,5.44598e-01,9.99999e-01,5.44598e-01,9.99999e-01
8.285238370e-01,5.51174e-01,9.99999e-01,5.51174e-01,9.99999e-01
8.326664562e-01,5.57698e-01,9.99999e-01,5.57698e-01,9.99999e-01
8.368297885e-01,5.64168e-01,9.99999e-01,5.64168e-01,9.99999e-01
8.410139374e-01,5.70583e-01,9.99999e-01,5.70583e-01,9.99999e-01
8.452190071e-01,5.76942e-01,9.99999e-01,5.76942e-01,9.99999e-01
8.494451021e-01,5.83244e-01,9.99999e-01,5.83244e-01,9.99999e-01
8.536923276e-01,5.89488e-01,9.99999e-01,5.89488e-01,9.99999e-01
8.579607893e-01,5.95674e-01,9.99999e-01,5.95674e-01,9.99999e-01
8.622505932e-01,6.01801e-01,9.99999e-01,6.01801e-01,9.99999e-01
8.665618462e-01,5.59887e-01,9.21066e-01,6.07868e-01,9.99999e-01
8.708946554e-01,4.09406e-01,6.66921e-01,6.13875e-01,9.99999e-01
8.752491287e-01,4.47478e-01,7.21947e-01,6.19820e-01,9.99999e-01
8.796253743e-01,5.23161e-01,8.36115e-01,6.25704e-01,9.99999e-01
8.840235012e-01,5.75518e-01,9.11313e-01,6.31526e-01,9.99999e-01
8.884436187e-01,6.14458e-01,9.64180e-01,6.37285e-01,9.99999e-01
8.928858368e-01,6.33536e-01,9.85308e-01,6.42982e-01,9.99999e-01
8.973502660e-01,6.46299e-01,9.96427e-01,6.48615e-01,9.99999e-01
9.018370173e-01,6.53928e-01,9.99606e-01,6.54186e-01,9.99999e-01
9.063462024e-01,6.52899e-01,9.89701e-01,6.59692e-01,9.99999e-01
9.108779334e-01,6.49756e-01,9.76878e-01,6.65135e-01,9.99999e-01
9.154323231e-01,6.66870e-01,9.94565e-01,6.70514e-01,9.99999e-01
9.200094847e-01,6.23564e-01,9.22664e-01,6.75829e-01,9.99999e-01
9.246095321e-01,6.07345e-01,8.91738e-01,6.81079e-01,9.99999e-01
9.292325798e-01,6.26946e-01,9.13560e-01,6.86266e-01,9.99999e-01
9.338787427e-01,6.33904e-01,9.16856e-01,6.91389e-01,9.99999e-01
9.385481364e-01,6.53386e-01,9.38169e-01,6.96447e-01,9.99999e-01
9.432408771e-01,6.74610e-01,9.61748e-01,7.01441e-01,9.99999e-01
9.479570815e-01,6.92359e-01,9.80161e-01,7.06372e-01,9.99999e-01
9.526968669e-01,7.04412e-01,9.90401e-01,7.11239e-01,9.99999e-01
9.574603512e-01,7.13097e-01,9.95887e-01,7.16042e-01,9.99999e-01
9.622476530e-01,7.19857e-01,9.98716e-01,7.20782e-01,9.99999e-01
9.670588912e-01,7.25180e-01,9.99615e-01,7.25458e-01,9.99999e-01
9.718941857e-01,7.30053e-01,9.99972e-01,7.30072e-01,9.99999e-01
9.767536566e-01,7.34623e-01,9.99999e-01,7.34623e-01,9.99999e-01
9.816374249e-01,7.39112e-01,9.99999e-01,7.39112e-01,9.99999e-01
9.865456120e-01,7.43538e-01,9.99999e-01,7.43538e-01,9.99999e-01
9.914783401e-01,7.47903e-01,9.99999e-01,7.47903e-01,9.99999e-01
9.964357318e-01,7.52207e-01,9.99999e-01,7.52207e-01,9.99999e-01
1.001417910e+00,7.56450e-01,9.99999e-01,7.56450e-01,9.99999e-01
1.006425000e+00,7.60632e-01,9.99999e-01,7.60632e-01,9.99999e-01
1.011457125e+00,7.64753e-01,9.99999e-01,7.64753e-01,9.99999e-01
1.016514411e+00,7.68816e-01,9.99999e-01,7.68816e-01,9.99999e-01
1.021596983e+00,7.72772e-01,9.99939e-01,7.72818e-01,9.99999e-01
1.026704968e+00,7.73626e-01,9.95961e-01,7.76762e-01,9.99999e-01
1.031838492e+00,7.42891e-01,9.51632e-01,7.80648e-01,9.99999e-01
1.036997685e+00,1.12638e-01,1.43584e-01,7.84476e-01,9.99999e-01
1.042182673e+00,8.48036e-02,1.07585e-01,7.88246e-01,9.99999e-01
1.047393587e+00,1.02264e-01,1.29128e-01,7.91960e-01,9.99999e-01
1.052630555e+00,2.39951e-03,3.01591e-03,7.95617e-01,9.99999e-01
1.057893707e+00,6.37358e-03,7.97476e-03,7.99218e-01,9.99999e-01
1.063183176e+00,2.25963e-02,2.81481e-02,8.02764e-01,9.99999e-01
1.068499092e+00,6.64395e-02,8.24050e-02,8.06255e-01,9.99999e-01
1.073841587e+00,1.67536e-01,2.06913e-01,8.09692e-01,9.99999e-01
1.079210795e+00,2.99752e-01,3.68664e-01,8.13075e-01,9.99999e-01
1.084606849e+00,4.71350e-01,5.77347e-01,8.16405e-01,9.99999e-01
1.090029883e+00,6.16111e-01,7.51644e-01,8.19683e-01,9.99999e-01
1.095480033e+00,7.15018e-01,8.68891e-01,8.22909e-01,9.99999e-01
1.100957433e+00,7.71980e-01,9.34506e-01,8.26083e-01,9.99999e-01
1.106462220e+00,8.06327e-01,9.72407e-01,8.29206e-01,9.99999e-01
1.111994531e+00,8.23693e-01,9.89682e-01,8.32280e-01,9.99999e-01
1.117554504e+00,8.33199e-01,9.97480e-01,8.35303e-01,9.99999e-01
1.123142276e+00,8.38140e-01,9.99834e-01,8.38278e-01,9.99999e-01
1.128757988e+00,8.41204e-01,9.99999e-01,8.41204e-01,9.99999e-01
1.134401778e+00,8.44082e-01,9.99999e-01,8.44082e-01,9.99999e-01
1.140073787e+00,8.46913e-01,9.99999e-01,8.46913e-01,9.99999e-01
1.145774156e+00,8.49697e-01,9.99999e-01,8.49697e-01,9.99999e-01
1.151503026e+00,8.52435e-01,9.99999e-01,8.52435e-01,9.99999e-01
1.157260541e+00,8.55127e-01,9.99999e-01,8.55127e-01,9.99999e-01
1.163046844e+00,8.57775e-01,9.99999e-01,8.57775e-01,9.99999e-01
1.168862078e+00,8.60378e-01,9.99999e-01,8.60378e-01,9.99999e-01
1.174706389e+00,8.62938e-01,9.99999e-01,8.62938e-01,9.99999e-01
1.180579921e+00,8.65454e-01,9.99999e-01,8.65454e-01,9.99999e-01
1.186482820e+00,8.67920e-01,9.99990e-01,8.67928e-01,9.99999e-01
1.192415234e+00,8.57852e-01,9.85628e-01,8.70359e-01,9.99999e-01
1.198377311e+00,4.88070e-01,5.59232e-01,8.72750e-01,9.99999e-01
1.204369197e+00,9.27055e-12,1.05937e-11,8.75099e-01,9.99999e-01
1.210391043e+00,4.18043e-43,4.76451e-43,8.77408e-01,9.99999e-01
1.216442998e+00,1.68296e-37,1.91315e-37,8.79678e-01,9.99999e-01
1.222525213e+00,5.85062e-37,6.63404e-37,8.81908e-01,9.99999e-01
1.228637839e+00,1.24902e-28,1.41275e-28,8.84100e-01,9.99999e-01
1.234781029e+00,1.66084e-18,1.87400e-18,8.86254e-01,9.99999e-01
1.240954934e+00,1.76985e-12,1.99224e-12,8.88370e-01,9.99999e-01
1.247159708e+00,6.82266e-07,7.66203e-07,8.90450e-01,9.99999e-01
1.253395507e+00,1.83887e-04,2.06037e-04,8.92493e-01,9.99999e-01
1.259662485e+00,6.86610e-03,7.67590e-03,8.94500e-01,9.99999e-01
1.265960797e+00,5.40569e-02,6.02995e-02,8.96472e-01,9.99999e-01
1.272290601e+00,2.71951e-01,3.02703e-01,8.98409e-01,9.99999e-01
1.278652054e+00,2.30171e-01,2.55656e-01,9.00313e-01,9.99999e-01
1.285045314e+00,4.14308e-03,4.59229e-03,9.02182e-01,9.99999e-01
1.291470541e+00,9.85460e-06,1.09009e-05,9.04018e-01,9.99999e-01
1.297927893e+00,7.14290e-03,7.88553e-03,9.05822e-01,9.99999e-01
1.304417533e+00,1.02675e-01,1.13129e-01,9.07593e-01,9.99999e-01
1.310939621e+00,1.67520e-02,1.84223e-02,9.09333e-01,9.99999e-01
1.317494319e+00,2.29319e-15,2.51711e-15,9.11042e-01,9.99999e-01
1.324081790e+00,1.54085e-10,1.68819e-10,9.12720e-01,9.99999e-01
1.330702199e+00,3.08771e-06,3.37688e-06,9.14368e-01,9.99999e-01
1.337355710e+00,4.41538e-06,4.82035e-06,9.15986e-01,9.99999e-01
1.344042489e+00,1.33479e-06,1.45469e-06,9.17575e-01,9.99999e-01
1.350762701e+00,1.92297e-06,2.09215e-06,9.19136e-01,9.99999e-01
1.357516515e+00,2.20809e-04,2.39836e-04,9.20668e-01,9.99999e-01
1.364304097e+00,3.89598e-03,4.22478e-03,9.22172e-01,9.99999e-01
1.371125618e+00,5.38396e-02,5.82901e-02,9.23649e-01,9.99999e-01
1.377981246e+00,8.87975e-02,9.59869e-02,9.25099e-01,9.99999e-01
1.384871152e+00,2.37071e-01,2.55872e-01,9.26523e-01,9.99999e-01
1.391795508e+00,2.63457e-01,2.83921e-01,9.27921e-01,9.99999e-01
1.398754485e+00,4.26793e-01,4.59266e-01,9.29293e-01,9.99999e-01
1.405748258e+00,5.25237e-01,5.64383e-01,9.30640e-01,9.99999e-01
1.412776999e+00,6.49304e-01,6.96706e-01,9.31962e-01,9.99999e-01
1.419840884e+00,5.80525e-01,6.22039e-01,9.33260e-01,9.99999e-01
1.426940089e+00,5.09935e-02,5.45656e-02,9.34534e-01,9.99999e-01
1.434074789e+00,0.00000e+00,0.00000e+00,9.35785e-01,9.99999e-01
1.441245163e+00,0.00000e+00,0.00000e+00,9.37012e-01,9.99999e-01
1.448451389e+00,0.00000e+00,0.00000e+00,9.38217e-01,9.99999e-01
1.455693646e+00,0.00000e+00,0.00000e+00,9.39400e-01,9.99999e-01
1.462972114e+00,4.39433e-168,4.67203e-168,9.40561e-01,9.99999e-01
1.470286975e+00,1.73766e-70,1.84524e-70,9.41700e-01,9.99999e-01
1.477638409e+00,9.24739e-45,9.80824e-45,9.42818e-01,9.99999e-01
1.485026601e+00,1.97759e-25,2.09509e-25,9.43915e-01,9.99999e-01
1.492451734e+00,1.13148e-21,1.19734e-21,9.44992e-01,9.99999e-01
1.499913993e+00,4.11511e-10,4.34979e-10,9.46048e-01,9.99999e-01
1.507413563e+00,6.31958e-09,6.67265e-09,9.47085e-01,9.99999e-01
1.514950631e+00,2.53471e-10,2.67346e-10,9.48103e-01,9.99999e-01
1.522525384e+00,3.55016e-32,3.74054e-32,9.49101e-01,9.99999e-01
1.530138011e+00,4.03205e-75,4.24390e-75,9.50081e-01,9.99999e-01
1.537788701e+00,6.86897e-56,7.22256e-56,9.51043e-01,9.99999e-01
1.545477645e+00,8.96018e-13,9.41209e-13,9.51986e-01,9.99999e-01
1.553205033e+00,5.20255e-09,5.45963e-09,9.52912e-01,9.99999e-01
1.560971058e+00,1.49087e-09,1.56305e-09,9.53820e-01,9.99999e-01
1.568775913e+00,1.49763e-188,1.56867e-188,9.54711e-01,9.99999e-01
1.576619793e+00,0.00000e+00,0.00000e+00,9.55586e-01,9.99999e-01
1.584502892e+00,5.99265e-241,6.26555e-241,9.56443e-01,9.99999e-01
1.592425406e+00,3.91649e-168,4.09124e-168,9.57285e-01,9.99999e-01
1.600387533e+00,1.51600e-270,1.58228e-270,9.58111e-01,9.99999e-01
1.608389471e+00,0.00000e+00,0.00000e+00,9.58921e-01,9.99999e-01
1.616431418e+00,0.00000e+00,0.00000e+00,9.59716e-01,9.99999e-01
1.624513575e+00,2.17221e-213,2.26155e-213,9.60496e-01,9.99999e-01
1.632636143e+00,1.10480e-158,1.14932e-158,9.61261e-01,9.99999e-01
1.640799324e+00,2.16018e-65,2.24548e-65,9.62011e-01,9.99999e-01
1.649003321e+00,2.18103e-65,2.26542e-65,9.62747e-01,9.99999e-01
1.657248337e+00,8.66812e-51,8.99677e-51,9.63470e-01,9.99999e-01
1.665534579e+00,3.99076e-51,4.13902e-51,9.64178e-01,9.99999e-01
1.673862252e+00,5.50111e-33,5.70138e-33,9.64873e-01,9.99999e-01
1.682231563e+00,3.29000e-23,3.40737e-23,9.65555e-01,9.99999e-01
1.690642721e+00,1.96324e-13,2.03187e-13,9.66223e-01,9.99999e-01
1.699095934e+00,1.00633e-08,1.04080e-08,9.66879e-01,9.99999e-01
1.707591414e+00,5.98539e-05,6.18630e-05,9.67523e-01,9.99999e-01
1.716129371e+00,4.17562e-03,4.31296e-03,9.68154e-01,9.99999e-01
1.724710018e+00,4.81717e-02,4.97244e-02,9.68773e-01,9.99999e-01
1.733333568e+00,1.37210e-01,1.41543e-01,9.69380e-01,9.99999e-01
1.742000236e+00,2.99820e-01,3.09100e-01,9.69976e-01,9.99999e-01
1.750710237e+00,7.30988e-03,7.53161e-03,9.70560e-01,9.99999e-01
1.759463788e+00,1.69201e-31,1.74231e-31,9.71133e-01,9.99999e-01
1.768261107e+00,4.96071e-33,5.10521e-33,9.71695e-01,9.99999e-01
1.777102413e+00,7.59540e-32,7.81221e-32,9.72246e-01,9.99999e-01
1.785987925e+00,3.36572e-30,3.45987e-30,9.72787e-01,9.99999e-01
1.794917864e+00,8.42070e-29,8.65153e-29,9.73317e-01,9.99999e-01
1.803892454e+00,7.38027e-28,7.57853e-28,9.73837e-01,9.99999e-01
1.812911916e+00,1.06993e-26,1.09809e-26,9.74348e-01,9.99999e-01
1.821976476e+00,7.86817e-27,8.07117e-27,9.74848e-01,9.99999e-01
1.831086358e+00,8.79867e-22,9.02114e-22,9.75338e-01,9.99999e-01
1.840241790e+00,1.56561e-18,1.60440e-18,9.75820e-01,9.99999e-01
1.849442999e+00,5.54728e-13,5.68199e-13,9.76291e-01,9.99999e-01
1.858690214e+00,4.90358e-12,5.02027e-12,9.76754e-01,9.99999e-01
1.867983665e+00,7.81472e-13,7.99698e-13,9.77208e-01,9.99999e-01
1.877323583e+00,2.58972e-59,2.64891e-59,9.77653e-01,9.99999e-01
