#,Wave/freq,Total,CO2,Rayleigh,CIA
4.000000000e-01,1.42909e-02,9.99999e-01,1.42909e-02,9.99999e-01
4.020000000e-01,1.55432e-02,9.99999e-01,1.55432e-02,9.99999e-01
4.040100000e-01,1.68757e-02,9.99999e-01,1.68757e-02,9.99999e-01
4.060300500e-01,1.82927e-02,9.99999e-01,1.82927e-02,9.99999e-01
4.080602003e-01,1.97971e-02,9.99999e-01,1.97971e-02,9.99999e-01
4.101005013e-01,2.13919e-02,9.99999e-01,2.13919e-02,9.99999e-01
4.121510038e-01,2.30797e-02,9.99999e-01,2.30797e-02,9.99999e-01
4.142117588e-01,2.48634e-02,9.99999e-01,2.48634e-02,9.99999e-01
4.162828176e-01,2.67456e-02,9.99999e-01,2.67456e-02,9.99999e-01
4.183642317e-01,2.87288e-02,9.99999e-01,2.87288e-02,9.99999e-01
4.204560528e-01,3.08156e-02,9.99999e-01,3.08156e-02,9.99999e-01
4.225583331e-01,3.30081e-02,9.99999e-01,3.30081e-02,9.99999e-01
4.246711247e-01,3.53087e-02,9.99999e-01,3.53087e-02,9.99999e-01
4.267944804e-01,3.77194e-02,9.99999e-01,3.77194e-02,9.99999e-01
4.289284528e-01,4.02421e-02,9.99999e-01,4.02421e-02,9.99999e-01
4.310730950e-01,4.28787e-02,9.99999e-01,4.28787e-02,9.99999e-01
4.332284605e-01,4.56309e-02,9.99999e-01,4.56309e-02,9.99999e-01
4.353946028e-01,4.85000e-02,9.99999e-01,4.85000e-02,9.99999e-01
4.375715758e-01,5.14874e-02,9.99999e-01,5.14874e-02,9.99999e-01
4.397594337e-01,5.45944e-02,9.99999e-01,5.45944e-02,9.99999e-01
4.419582309e-01,5.78220e-02,9.99999e-01,5.78220e-02,9.99999e-01
4.441680220e-01,6.11709e-02,9.99999e-01,6.11709e-02,9.99999e-01
4.463888621e-01,6.46418e-02,9.99999e-01,6.46418e-02,9.99999e-01
4.486208064e-01,6.82352e-02,9.99999e-01,6.82352e-02,9.99999e-01
4.508639105e-01,7.19515e-02,9.99999e-01,7.19515e-02,9.99999e-01
4.531182300e-01,7.57907e-02,9.99999e-01,7.57907e-02,9.99999e-01
4.553838212e-01,7.97529e-02,9.99999e-01,7.97529e-02,9.99999e-01
4.576607403e-01,8.38378e-02,9.99999e-01,8.38378e-02,9.99999e-01
4.599490440e-01,8.80450e-02,9.99999e-01,8.80450e-02,9.99999e-01
4.622487892e-01,9.23739e-02,9.99999e-01,9.23739e-02,9.99999e-01
4.645600332e-01,9.68238e-02,9.99999e-01,9.68238e-02,9.99999e-01
4.668828333e-01,1.01394e-01,9.99999e-01,1.01394e-01,9.99999e-01
4.692172475e-01,1.06083e-01,9.99999e-01,1.06083e-01,9.99999e-01
4.715633337e-01,1.10890e-01,9.99999e-01,1.10890e-01,9.99999e-01
4.739211504e-01,1.15813e-01,9.99999e-01,1.15813e-01,9.99999e-01
4.762907561e-01,1.20851e-01,9.99999e-01,1.20851e-01,9.99999e-01
4.786722099e-01,1.26002e-01,9.99999e-01,1.26002e-01,9.99999e-01
4.810655710e-01,1.31265e-01,9.99999e-01,1.31265e-01,9.99999e-01
4.834708988e-01,1.36636e-01,9.99999e-01,1.36636e-01,9.99999e-01
4.858882533e-01,1.42115e-01,9.99999e-01,1.42115e-01,9.99999e-01
4.883176946e-01,1.47699e-01,9.99999e-01,1.47699e-01,9.99999e-01
4.907592831e-01,1.53386e-01,9.99999e-01,1.53386e-01,9.99999e-01
4.932130795e-01,1.59172e-01,9.99999e-01,1.59172e-01,9.99999e-01
4.956791449e-01,1.65057e-01,9.99999e-01,1.65057e-01,9.99999e-01
4.981575406e-01,1.71036e-01,9.99999e-01,1.71036e-01,9.99999e-01
5.006483283e-01,1.77107e-01,9.99999e-01,1.77107e-01,9.99999e-01
5.031515699e-01,1.83267e-01,9.99999e-01,1.83267e-01,9.99999e-01
5.056673278e-01,1.89514e-01,9.99999e-01,1.89514e-01,9.99999e-01
5.081956644e-01,1.95843e-01,9.99999e-01,1.95843e-01,9.99999e-01
5.107366428e-01,2.02253e-01,9.99999e-01,2.02253e-01,9.99999e-01
5.132903260e-01,2.08740e-01,9.99999e-01,2.08740e-01,9.99999e-01
5.158567776e-01,2.15300e-01,9.99999e-01,2.15300e-01,9.99999e-01
5.184360615e-01,2.21932e-01,9.99999e-01,2.21932e-01,9.99999e-01
5.210282418e-01,2.28630e-01,9.99999e-01,2.28630e-01,9.99999e-01
5.236333830e-01,2.35392e-01,9.99999e-01,2.35392e-01,9.99999e-01
5.262515499e-01,2.42215e-01,9.99999e-01,2.42215e-01,9.99999e-01
5.288828077e-01,2.49094e-01,9.99999e-01,2.49094e-01,9.99999e-01
5.315272217e-01,2.56028e-01,9.99999e-01,2.56028e-01,9.99999e-01
5.341848578e-01,2.63012e-01,9.99999e-01,2.63012e-01,9.99999e-01
5.368557821e-01,2.70042e-01,9.99999e-01,2.70042e-01,9.99999e-01
5.395400610e-01,2.77116e-01,9.99999e-01,2.77116e-01,9.99999e-01
5.422377613e-01,2.84231e-01,9.99999e-01,2.84231e-01,9.99999e-01
5.449489501e-01,2.91382e-01,9.99999e-01,2.91382e-01,9.99999e-01
5.476736949e-01,2.98566e-01,9.99999e-01,2.98566e-01,9.99999e-01
5.504120634e-01,3.05781e-01,9.99999e-01,3.05781e-01,9.99999e-01
5.531641237e-01,3.13022e-01,9.99999e-01,3.13022e-01,9.99999e-01
5.559299443e-01,3.20286e-01,9.99999e-01,3.20286e-01,9.99999e-01
5.587095940e-01,3.27571e-01,9.99999e-01,3.27571e-01,9.99999e-01
5.615031420e-01,3.34872e-01,9.99999e-01,3.34872e-01,9.99999e-01
5.643106577e-01,3.42187e-01,9.99999e-01,3.42187e-01,9.99999e-01
5.671322110e-01,3.49513e-01,9.99999e-01,3.49513e-01,9.99999e-01
5.699678720e-01,3.56846e-01,9.99999e-01,3.56846e-01,9.99999e-01
5.728177114e-01,3.64184e-01,9.99999e-01,3.64184e-01,9.99999e-01
5.756818000e-01,3.71523e-01,9.99999e-01,3.71523e-01,9.99999e-01
5.785602090e-01,3.78860e-01,9.99999e-01,3.78860e-01,9.99999e-01
5.814530100e-01,3.86194e-01,9.99999e-01,3.86194e-01,9.99999e-01
5.843602750e-01,3.93520e-01,9.99999e-01,3.93520e-01,9.99999e-01
5.872820764e-01,4.00837e-01,9.99999e-01,4.00837e-01,9.99999e-01
5.902184868e-01,4.08140e-01,9.99999e-01,4.08140e-01,9.99999e-01
5.931695792e-01,4.15429e-01,9.99999e-01,4.15429e-01,9.99999e-01
5.961354271e-01,4.22700e-01,9.99999e-01,4.22700e-01,9.99999e-01
5.991161043e-01,4.29952e-01,9.99999e-01,4.29952e-01,9.99999e-01
6.021116848e-01,4.37180e-01,9.99999e-01,4.37180e-01,9.99999e-01
6.051222432e-01,4.44384e-01,9.99999e-01,4.44384e-01,9.99999e-01
6.081478544e-01,4.51560e-01,9.99999e-01,4.51560e-01,9.99999e-01
6.111885937e-01,4.58708e-01,9.99999e-01,4.58708e-01,9.99999e-01
6.142445367e-01,4.65824e-01,9.99999e-01,4.65824e-01,9.99999e-01
6.173157594e-01,4.72906e-01,9.99999e-01,4.72906e-01,9.99999e-01
6.204023382e-01,4.79953e-01,9.99999e-01,4.79953e-01,9.99999e-01
6.235043498e-01,4.86963e-01,9.99999e-01,4.86963e-01,9.99999e-01
6.266218716e-01,4.93934e-01,9.99999e-01,4.93934e-01,9.99999e-01
6.297549810e-01,5.00864e-01,9.99999e-01,5.00864e-01,9.99999e-01
6.329037559e-01,5.07751e-01,9.99999e-01,5.07751e-01,9.99999e-01
6.360682746e-01,5.14594e-01,9.99999e-01,5.14594e-01,9.99999e-01
6.392486160e-01,5.21392e-01,9.99999e-01,5.21392e-01,9.99999e-01
6.424448591e-01,5.28142e-01,9.99999e-01,5.28142e-01,9.99999e-01
6.456570834e-01,5.34844e-01,9.99999e-01,5.34844e-01,9.99999e-01
6.488853688e-01,5.41496e-01,9.99999e-01,5.41496e-01,9.99999e-01
6.521297956e-01,5.48097e-01,9.99999e-01,5.48097e-01,9.99999e-01
6.553904446e-01,5.54646e-01,9.99999e-01,5.54646e-01,9.99999e-01
6.586673968e-01,5.61141e-01,9.99999e-01,5.61141e-01,9.99999e-01
6.619607338e-01,5.67582e-01,9.99999e-01,5.67582e-01,9.99999e-01
6.652705375e-01,5.73967e-01,9.99999e-01,5.73967e-01,9.99999e-01
6.685968902e-01,5.80296e-01,9.99999e-01,5.80296e-01,9.99999e-01
6.719398746e-01,5.86568e-01,9.99999e-01,5.86568e-01,9.99999e-01
6.752995740e-01,5.92781e-01,9.99999e-01,5.92781e-01,9.99999e-01
6.786760719e-01,5.98936e-01,9.99999e-01,5.98936e-01,9.99999e-01
6.820694522e-01,6.05031e-01,9.99999e-01,6.05031e-01,9.99999e-01
6.854797995e-01,6.11066e-01,9.99999e-01,6.11066e-01,9.99999e-01
6.889071985e-01,6.17040e-01,9.99999e-01,6.17040e-01,9.99999e-01
6.923517345e-01,6.22953e-01,9.99999e-01,6.22953e-01,9.99999e-01
6.958134932e-01,6.28804e-01,9.99999e-01,6.28804e-01,9.99999e-01
6.992925606e-01,6.34593e-01,9.99999e-01,6.34593e-01,9.99999e-01
7.027890234e-01,6.40319e-01,9.99999e-01,6.40319e-01,9.99999e-01
7.063029686e-01,6.45982e-01,9.99999e-01,6.45982e-01,9.99999e-01
7.098344834e-01,6.51582e-01,9.99999e-01,6.51582e-01,9.99999e-01
7.133836558e-01,6.57118e-01,9.99999e-01,6.57118e-01,9.99999e-01
7.169505741e-01,6.62591e-01,9.99999e-01,6.62591e-01,9.99999e-01
7.205353270e-01,6.68000e-01,9.99999e-01,6.68000e-01,9.99999e-01
7.241380036e-01,6.73345e-01,9.99999e-01,6.73345e-01,9.99999e-01
7.277586936e-01,6.78625e-01,9.99999e-01,6.78625e-01,9.99999e-01
7.313974871e-01,6.83842e-01,9.99999e-01,6.83842e-01,9.99999e-01
7.350544745e-01,6.88995e-01,9.99999e-01,6.88995e-01,9.99999e-01
7.387297469e-01,6.94083e-01,9.99999e-01,6.94083e-01,9.99999e-01
7.424233956e-01,6.99108e-01,9.99999e-01,6.99108e-01,9.99999e-01
7.461355126e-01,7.04068e-01,9.99999e-01,7.04068e-01,9.99999e-01
7.498661902e-01,7.08965e-01,9.99999e-01,7.08965e-01,9.99999e-01
7.536155211e-01,7.13798e-01,9.99999e-01,7.13798e-01,9.99999e-01
7.573835987e-01,7.18567e-01,9.99999e-01,7.18567e-01,9.99999e-01
7.611705167e-01,7.23273e-01,9.99999e-01,7.23273e-01,9.99999e-01
7.649763693e-01,7.27917e-01,9.99999e-01,7.27917e-01,9.99999e-01
7.688012511e-01,7.32497e-01,9.99999e-01,7.32497e-01,9.99999e-01
7.726452574e-01,7.37015e-01,9.99999e-01,7.37015e-01,9.99999e-01
7.765084837e-01,7.41471e-01,9.99999e-01,7.41471e-01,9.99999e-01
7.803910261e-01,7.34985e-01,9.85412e-01,7.45864e-01,9.99999e-01
7.842929812e-01,7.04209e-01,9.38698e-01,7.50197e-01,9.99999e-01
7.882144461e-01,7.04942e-01,9.34355e-01,7.54468e-01,9.99999e-01
7.921555184e-01,7.29747e-01,9.61866e-01,7.58678e-01,9.99999e-01
7.961162960e-01,7.43256e-01,9.74342e-01,7.62828e-01,9.99999e-01
8.000968774e-01,7.56203e-01,9.86027e-01,7.66918e-01,9.99999e-01
8.040973618e-01,7.65348e-01,9.92734e-01,7.70949e-01,9.99999e-01
8.081178486e-01,7.72335e-01,9.96663e-01,7.74920e-01,9.99999e-01
8.121584379e-01,7.78029e-01,9.98966e-01,7.78833e-01,9.99999e-01
8.162192301e-01,7.82510e-01,9.99771e-01,7.82688e-01,9.99999e-01
8.203003262e-01,7.86483e-01,9.99996e-01,7.86485e-01,9.99999e-01
8.244018279e-01,7.90226e-01,9.99999e-01,7.90226e-01,9.99999e-01
8.285238370e-01,7.93909e-01,9.99999e-01,7.93909e-01,9.99999e-01
8.326664562e-01,7.97536e-01,9.99999e-01,7.97536e-01,9.99999e-01
8.368297885e-01,8.01108e-01,9.99999e-01,8.01108e-01,9.99999e-01
8.410139374e-01,8.04625e-01,9.99999e-01,8.04625e-01,9.99999e-01
8.452190071e-01,8.08087e-01,9.99999e-01,8.08087e-01,9.99999e-01
8.494451021e-01,8.11496e-01,9.99999e-01,8.11496e-01,9.99999e-01
8.536923276e-01,8.14851e-01,9.99999e-01,8.14851e-01,9.99999e-01
8.579607893e-01,8.18153e-01,9.99999e-01,8.18153e-01,9.99999e-01
8.622505932e-01,8.21403e-01,9.99999e-01,8.21403e-01,9.99999e-01
8.665618462e-01,7.91668e-01,9.60061e-01,8.24601e-01,9.99999e-01
8.708946554e-01,7.02951e-01,8.49232e-01,8.27748e-01,9.99999e-01
8.752491287e-01,7.29729e-01,8.78296e-01,8.30845e-01,9.99999e-01
8.796253743e-01,7.77192e-01,9.32005e-01,8.33892e-01,9.99999e-01
8.840235012e-01,8.07064e-01,9.64361e-01,8.36889e-01,9.99999e-01
8.884436187e-01,8.27926e-01,9.85816e-01,8.39838e-01,9.99999e-01
8.928858368e-01,8.37885e-01,9.94240e-01,8.42738e-01,9.99999e-01
8.973502660e-01,8.44405e-01,9.98596e-01,8.45591e-01,9.99999e-01
9.018370173e-01,8.48266e-01,9.99844e-01,8.48397e-01,9.99999e-01
9.063462024e-01,8.47790e-01,9.96044e-01,8.51157e-01,9.99999e-01
9.108779334e-01,8.46123e-01,9.90926e-01,8.53870e-01,9.99999e-01
9.154323231e-01,8.54705e-01,9.97858e-01,8.56539e-01,9.99999e-01
9.200094847e-01,8.31911e-01,9.68280e-01,8.59163e-01,9.99999e-01
9.246095321e-01,8.24077e-01,9.56290e-01,8.61743e-01,9.99999e-01
9.292325798e-01,8.34448e-01,9.65483e-01,8.64279e-01,9.99999e-01
9.338787427e-01,8.37865e-01,9.66647e-01,8.66773e-01,9.99999e-01
9.385481364e-01,8.47888e-01,9.75452e-01,8.69224e-01,9.99999e-01
9.432408771e-01,8.58485e-01,9.84914e-01,8.71634e-01,9.99999e-01
9.479570815e-01,8.67221e-01,9.92240e-01,8.74003e-01,9.99999e-01
9.526968669e-01,8.73044e-01,9.96248e-01,8.76331e-01,9.99999e-01
9.574603512e-01,8.77209e-01,9.98394e-01,8.78619e-01,9.99999e-01
9.622476530e-01,8.80426e-01,9.99498e-01,8.80867e-01,9.99999e-01
9.670588912e-01,8.82945e-01,9.99849e-01,8.83077e-01,9.99999e-01
9.718941857e-01,8.85239e-01,9.99988e-01,8.85249e-01,9.99999e-01
9.767536566e-01,8.87383e-01,9.99999e-01,8.87383e-01,9.99999e-01
9.816374249e-01,8.89479e-01,9.99999e-01,8.89479e-01,9.99999e-01
9.865456120e-01,8.91539e-01,9.99999e-01,8.91539e-01,9.99999e-01
9.914783401e-01,8.93563e-01,9.99999e-01,8.93563e-01,9.99999e-01
9.964357318e-01,8.95552e-01,9.99999e-01,8.95552e-01,9.99999e-01
1.001417910e+00,8.97505e-01,9.99999e-01,8.97505e-01,9.99999e-01
1.006425000e+00,8.99424e-01,9.99999e-01,8.99424e-01,9.99999e-01
1.011457125e+00,9.01310e-01,9.99999e-01,9.01310e-01,9.99999e-01
1.016514411e+00,9.03161e-01,9.99999e-01,9.03161e-01,9.99999e-01
1.021596983e+00,9.04962e-01,9.99979e-01,9.04980e-01,9.99999e-01
1.026704968e+00,9.05375e-01,9.98464e-01,9.06767e-01,9.99999e-01
1.031838492e+00,8.87432e-01,9.76787e-01,9.08521e-01,9.99999e-01
1.036997685e+00,2.97325e-01,3.26643e-01,9.10245e-01,9.99999e-01
1.042182673e+00,3.63848e-01,3.98983e-01,9.11937e-01,9.99999e-01
1.047393587e+00,3.29980e-01,3.61187e-01,9.13599e-01,9.99999e-01
1.052630555e+00,6.43753e-02,7.03377e-02,9.15231e-01,9.99999e-01
1.057893707e+00,1.14556e-01,1.24947e-01,9.16834e-01,9.99999e-01
1.063183176e+00,2.04684e-01,2.22868e-01,9.18408e-01,9.99999e-01
1.068499092e+00,3.40481e-01,3.70106e-01,9.19953e-01,9.99999e-01
1.073841587e+00,4.92159e-01,5.34101e-01,9.21470e-01,9.99999e-01
1.079210795e+00,6.21781e-01,6.73681e-01,9.22960e-01,9.99999e-01
1.084606849e+00,7.45307e-01,8.06239e-01,9.24423e-01,9.99999e-01
1.090029883e+00,8.28256e-01,8.94580e-01,9.25859e-01,9.99999e-01
1.095480033e+00,8.77781e-01,9.46630e-01,9.27269e-01,9.99999e-01
1.100957433e+00,9.04479e-01,9.73969e-01,9.28653e-01,9.99999e-01
1.106462220e+00,9.19925e-01,9.89154e-01,9.30011e-01,9.99999e-01
1.111994531e+00,9.27591e-01,9.95968e-01,9.31345e-01,9.99999e-01
1.117554504e+00,9.31735e-01,9.99013e-01,9.32655e-01,9.99999e-01
1.123142276e+00,9.33879e-01,9.99934e-01,9.33940e-01,9.99999e-01
1.128757988e+00,9.35201e-01,9.99999e-01,9.35201e-01,9.99999e-01
1.134401778e+00,9.36440e-01,9.99999e-01,9.36440e-01,9.99999e-01
1.140073787e+00,9.37655e-01,9.99999e-01,9.37655e-01,9.99999e-01
1.145774156e+00,9.38848e-01,9.99999e-01,9.38848e-01,9.99999e-01
1.151503026e+00,9.40019e-01,9.99999e-01,9.40019e-01,9.99999e-01
1.157260541e+00,9.41168e-01,9.99999e-01,9.41168e-01,9.99999e-01
1.163046844e+00,9.42296e-01,9.99999e-01,9.42296e-01,9.99999e-01
1.168862078e+00,9.43403e-01,9.99999e-01,9.43403e-01,9.99999e-01
1.174706389e+00,9.44489e-01,9.99999e-01,9.44489e-01,9.99999e-01
1.180579921e+00,9.45555e-01,9.99999e-01,9.45555e-01,9.99999e-01
1.186482820e+00,9.46599e-01,9.99996e-01,9.46602e-01,9.99999e-01
1.192415234e+00,9.42399e-01,9.94481e-01,9.47628e-01,9.99999e-01
1.198377311e+00,5.64355e-01,5.94912e-01,9.48636e-01,9.99999e-01
1.204369197e+00,6.27962e-06,6.61273e-06,9.49624e-01,9.99999e-01
1.210391043e+00,4.48100e-18,4.71389e-18,9.50594e-01,9.99999e-01
1.216442998e+00,6.83855e-16,7.18678e-16,9.51546e-01,9.99999e-01
1.222525213e+00,1.19547e-15,1.25511e-15,9.52480e-01,9.99999e-01
1.228637839e+00,5.28586e-12,5.54424e-12,9.53396e-01,9.99999e-01
1.234781029e+00,1.68241e-08,1.76299e-08,9.54295e-01,9.99999e-01
1.240954934e+00,8.72903e-06,9.13863e-06,9.55178e-01,9.99999e-01
1.247159708e+00,1.44515e-03,1.51159e-03,9.56043e-01,9.99999e-01
1.253395507e+00,2.76145e-02,2.88585e-02,9.56893e-01,9.99999e-01
1.259662485e+00,1.28854e-01,1.34542e-01,9.57726e-01,9.99999e-01
1.265960797e+00,2.99678e-01,3.12638e-01,9.58543e-01,9.99999e-01
1.272290601e+00,5.97033e-01,6.22333e-01,9.59345e-01,9.99999e-01
1.278652054e+00,5.35576e-01,5.57815e-01,9.60132e-01,9.99999e-01
1.285045314e+00,5.65138e-02,5.88132e-02,9.60904e-01,9.99999e-01
1.291470541e+00,8.54275e-03,8.88332e-03,9.61661e-01,9.99999e-01
1.297927893e+00,6.41355e-02,6.66409e-02,9.62404e-01,9.99999e-01
1.304417533e+00,4.08065e-01,4.23685e-01,9.63133e-01,9.99999e-01
1.310939621e+00,1.22137e-01,1.26718e-01,9.63848e-01,9.99999e-01
1.317494319e+00,1.26604e-06,1.31257e-06,9.64549e-01,9.99999e-01
1.324081790e+00,5.38655e-05,5.58055e-05,9.65237e-01,9.99999e-01
1.330702199e+00,5.82826e-03,6.03394e-03,9.65911e-01,9.99999e-01
1.337355710e+00,3.92637e-03,4.06215e-03,9.66573e-01,9.99999e-01
1.344042489e+00,1.52366e-03,1.57529e-03,9.67223e-01,9.99999e-01
1.350762701e+00,4.68361e-03,4.83914e-03,9.67860e-01,9.99999e-01
1.357516515e+00,2.84173e-02,2.93420e-02,9.68484e-01,9.99999e-01
1.364304097e+00,1.09933e-01,1.13438e-01,9.69097e-01,9.99999e-01
1.371125618e+00,3.05511e-01,3.15057e-01,9.69698e-01,9.99999e-01
1.377981246e+00,3.88113e-01,3.99997e-01,9.70288e-01,9.99999e-01
1.384871152e+00,5.69351e-01,5.86435e-01,9.70866e-01,9.99999e-01
1.391795508e+00,5.93538e-01,6.10991e-01,9.71433e-01,9.99999e-01
1.398754485e+00,7.18244e-01,7.38941e-01,9.71989e-01,9.99999e-01
1.405748258e+00,7.77722e-01,7.99684e-01,9.72535e-01,9.99999e-01
1.412776999e+00,8.45216e-01,8.68607e-01,9.73070e-01,9.99999e-01
1.419840884e+00,7.90802e-01,8.12249e-01,9.73595e-01,9.99999e-01
1.426940089e+00,1.12642e-01,1.15636e-01,9.74110e-01,9.99999e-01
1.434074789e+00,7.05163e-250,7.23529e-250,9.74614e-01,9.99999e-01
1.441245163e+00,0.00000e+00,0.00000e+00,9.75110e-01,9.99999e-01
1.448451389e+00,6.64443e-303,6.81063e-303,9.75595e-01,9.99999e-01
1.455693646e+00,8.28125e-136,8.48426e-136,9.76071e-01,9.99999e-01
1.462972114e+00,1.73785e-66,1.77960e-66,9.76538e-01,9.99999e-01
1.470286975e+00,1.11986e-28,1.14623e-28,9.76996e-01,9.99999e-01
1.477638409e+00,1.12185e-18,1.14773e-18,9.77446e-01,9.99999e-01
1.485026601e+00,4.90297e-11,5.01384e-11,9.77886e-01,9.99999e-01
1.492451734e+00,2.16175e-09,2.20966e-09,9.78318e-01,9.99999e-01
1.499913993e+00,4.96900e-05,5.07692e-05,9.78742e-01,9.99999e-01
1.507413563e+00,5.80996e-04,5.93362e-04,9.79157e-01,9.99999e-01
1.514950631e+00,2.68667e-05,2.74271e-05,9.79565e-01,9.99999e-01
1.522525384e+00,7.86110e-14,8.02182e-14,9.79964e-01,9.99999e-01
1.530138011e+00,2.58106e-30,2.63277e-30,9.80356e-01,9.99999e-01
1.537788701e+00,7.07253e-23,7.21141e-23,9.80740e-01,9.99999e-01
1.545477645e+00,2.58017e-06,2.62983e-06,9.81117e-01,9.99999e-01
1.553205033e+00,4.61950e-04,4.70663e-04,9.81487e-01,9.99999e-01
1.560971058e+00,1.19685e-04,1.21898e-04,9.81849e-01,9.99999e-01
1.568775913e+00,2.04985e-74,2.08699e-74,9.82204e-01,9.99999e-01
1.576619793e+00,1.75708e-172,1.78828e-172,9.82553e-01,9.99999e-01
1.584502892e+00,1.03608e-94,1.05411e-94,9.82894e-01,9.99999e-01
1.592425406e+00,2.61403e-66,2.65861e-66,9.83229e-01,9.99999e-01
1.600387533e+00,3.55549e-106,3.61493e-106,9.83558e-01,9.99999e-01
1.608389471e+00,1.83200e-177,1.86201e-177,9.83880e-01,9.99999e-01
1.616431418e+00,1.41957e-178,1.44237e-178,9.84196e-01,9.99999e-01
1.624513575e+00,4.90250e-84,4.97965e-84,9.84506e-01,9.99999e-01
1.632636143e+00,8.39278e-63,8.52223e-63,9.84809e-01,9.99999e-01
1.640799324e+00,1.04402e-26,1.05981e-26,9.85107e-01,9.99999e-01
1.649003321e+00,1.33799e-26,1.35781e-26,9.85399e-01,9.99999e-01
1.657248337e+00,7.27138e-21,7.37697e-21,9.85685e-01,9.99999e-01
1.665534579e+00,5.19120e-21,5.26509e-21,9.85966e-01,9.99999e-01
1.673862252e+00,6.33142e-14,6.41975e-14,9.86241e-01,9.99999e-01
1.682231563e+00,4.31216e-10,4.37111e-10,9.86511e-01,9.99999e-01
1.690642721e+00,2.59622e-06,2.63101e-06,9.86776e-01,9.99999e-01
1.699095934e+00,3.84199e-04,3.89245e-04,9.87035e-01,9.99999e-01
1.707591414e+00,1.48903e-02,1.50820e-02,9.87290e-01,9.99999e-01
1.716129371e+00,1.02314e-01,1.03605e-01,9.87539e-01,9.99999e-01
1.724710018e+00,2.97243e-01,3.00919e-01,9.87784e-01,9.99999e-01
1.733333568e+00,4.58700e-01,4.64260e-01,9.88024e-01,9.99999e-01
1.742000236e+00,6.09869e-01,6.17114e-01,9.88259e-01,9.99999e-01
1.750710237e+00,5.33928e-02,5.40145e-02,9.88489e-01,9.99999e-01
1.759463788e+00,3.16222e-13,3.19830e-13,9.88715e-01,9.99999e-01
1.768261107e+00,3.70420e-14,3.74563e-14,9.88937e-01,9.99999e-01
1.777102413e+00,4.45161e-13,4.50042e-13,9.89154e-01,9.99999e-01
1.785987925e+00,7.18994e-13,7.26720e-13,9.89367e-01,9.99999e-01
1.794917864e+00,5.69800e-12,5.75801e-12,9.89576e-01,9.99999e-01
1.803892454e+00,4.22024e-12,4.26381e-12,9.89781e-01,9.99999e-01
1.812911916e+00,2.26318e-11,2.28608e-11,9.89982e-01,9.99999e-01
1.821976476e+00,1.28311e-11,1.29584e-11,9.90179e-01,9.99999e-01
1.831086358e+00,1.30032e-09,1.31296e-09,9.90372e-01,9.99999e-01
1.840241790e+00,4.16283e-08,4.20249e-08,9.90561e-01,9.99999e-01
1.849442999e+00,8.88070e-06,8.96364e-06,9.90747e-01,9.99999e-01
1.858690214e+00,3.61930e-05,3.65243e-05,9.90929e-01,9.99999e-01
1.867983665e+00,6.13685e-06,6.19190e-06,9.91107e-01,9.99999e-01
1.877323583e+00,3.60687e-24,3.63859e-24,9.91282e-01,9.99999e-01
