#,Wave/freq,Total,CO2,Rayleigh,CIA
4.000000000e-01,4.97636e-02,9.99999e-01,4.97636e-02,9.99999e-01
4.020000000e-01,5.28053e-02,9.99999e-01,5.28053e-02,9.99999e-01
4.040100000e-01,5.59639e-02,9.99999e-01,5.59639e-02,9.99999e-01
4.060300500e-01,5.92434e-02,9.99999e-01,5.92434e-02,9.99999e-01
4.080602003e-01,6.26445e-02,9.99999e-01,6.26445e-02,9.99999e-01
4.101005013e-01,6.61680e-02,9.99999e-01,6.61680e-02,9.99999e-01
4.121510038e-01,6.98140e-02,9.99999e-01,6.98140e-02,9.99999e-01
4.142117588e-01,7.35831e-02,9.99999e-01,7.35831e-02,9.99999e-01
4.162828176e-01,7.74750e-02,9.99999e-01,7.74750e-02,9.99999e-01
4.183642317e-01,8.14899e-02,9.99999e-01,8.14899e-02,9.99999e-01
4.204560528e-01,8.56272e-02,9.99999e-01,8.56272e-02,9.99999e-01
4.225583331e-01,8.98867e-02,9.99999e-01,8.98867e-02,9.99999e-01
4.246711247e-01,9.42676e-02,9.99999e-01,9.42676e-02,9.99999e-01
4.267944804e-01,9.87692e-02,9.99999e-01,9.87692e-02,9.99999e-01
4.289284528e-01,1.03390e-01,9.99999e-01,1.03390e-01,9.99999e-01
4.310730950e-01,1.08130e-01,9.99999e-01,1.08130e-01,9.99999e-01
4.332284605e-01,1.12987e-01,9.99999e-01,1.12987e-01,9.99999e-01
4.353946028e-01,1.17960e-01,9.99999e-01,1.17960e-01,9.99999e-01
4.375715758e-01,1.23046e-01,9.99999e-01,1.23046e-01,9.99999e-01
4.397594337e-01,1.28246e-01,9.99999e-01,1.28246e-01,9.99999e-01
4.419582309e-01,1.33555e-01,9.99999e-01,1.33555e-01,9.99999e-01
4.441680220e-01,1.38973e-01,9.99999e-01,1.38973e-01,9.99999e-01
4.463888621e-01,1.44498e-01,9.99999e-01,1.44498e-01,9.99999e-01
4.486208064e-01,1.50126e-01,9.99999e-01,1.50126e-01,9.99999e-01
4.508639105e-01,1.55856e-01,9.99999e-01,1.55856e-01,9.99999e-01
4.531182300e-01,1.61684e-01,9.99999e-01,1.61684e-01,9.99999e-01
4.553838212e-01,1.67610e-01,9.99999e-01,1.67610e-01,9.99999e-01
4.576607403e-01,1.73628e-01,9.99999e-01,1.73628e-01,9.99999e-01
4.599490440e-01,1.79738e-01,9.99999e-01,1.79738e-01,9.99999e-01
4.622487892e-01,1.85936e-01,9.99999e-01,1.85936e-01,9.99999e-01
4.645600332e-01,1.92218e-01,9.99999e-01,1.92218e-01,9.99999e-01
4.668828333e-01,1.98583e-01,9.99999e-01,1.98583e-01,9.99999e-01
4.692172475e-01,2.05026e-01,9.99999e-01,2.05026e-01,9.99999e-01
4.715633337e-01,2.11545e-01,9.99999e-01,2.11545e-01,9.99999e-01
4.739211504e-01,2.18136e-01,9.99999e-01,2.18136e-01,9.99999e-01
4.762907561e-01,2.24796e-01,9.99999e-01,2.24796e-01,9.99999e-01
4.786722099e-01,2.31522e-01,9.99999e-01,2.31522e-01,9.99999e-01
4.810655710e-01,2.38311e-01,9.99999e-01,2.38311e-01,9.99999e-01
4.834708988e-01,2.45158e-01,9.99999e-01,2.45158e-01,9.99999e-01
4.858882533e-01,2.52062e-01,9.99999e-01,2.52062e-01,9.99999e-01
4.883176946e-01,2.59017e-01,9.99999e-01,2.59017e-01,9.99999e-01
4.907592831e-01,2.66021e-01,9.99999e-01,2.66021e-01,9.99999e-01
4.932130795e-01,2.73071e-01,9.99999e-01,2.73071e-01,9.99999e-01
4.956791449e-01,2.80163e-01,9.99999e-01,2.80163e-01,9.99999e-01
4.981575406e-01,2.87294e-01,9.99999e-01,2.87294e-01,9.99999e-01
5.006483283e-01,2.94459e-01,9.99999e-01,2.94459e-01,9.99999e-01
5.031515699e-01,3.01657e-01,9.99999e-01,3.01657e-01,9.99999e-01
5.056673278e-01,3.08883e-01,9.99999e-01,3.08883e-01,9.99999e-01
5.081956644e-01,3.16135e-01,9.99999e-01,3.16135e-01,9.99999e-01
5.107366428e-01,3.23408e-01,9.99999e-01,3.23408e-01,9.99999e-01
5.132903260e-01,3.30700e-01,9.99999e-01,3.30700e-01,9.99999e-01
5.158567776e-01,3.38008e-01,9.99999e-01,3.38008e-01,9.99999e-01
5.184360615e-01,3.45328e-01,9.99999e-01,3.45328e-01,9.99999e-01
5.210282418e-01,3.52657e-01,9.99999e-01,3.52657e-01,9.99999e-01
5.236333830e-01,3.59993e-01,9.99999e-01,3.59993e-01,9.99999e-01
5.262515499e-01,3.67331e-01,9.99999e-01,3.67331e-01,9.99999e-01
5.288828077e-01,3.74670e-01,9.99999e-01,3.74670e-01,9.99999e-01
5.315272217e-01,3.82006e-01,9.99999e-01,3.82006e-01,9.99999e-01
5.341848578e-01,3.89337e-01,9.99999e-01,3.89337e-01,9.99999e-01
5.368557821e-01,3.96659e-01,9.99999e-01,3.96659e-01,9.99999e-01
5.395400610e-01,4.03971e-01,9.99999e-01,4.03971e-01,9.99999e-01
5.422377613e-01,4.11269e-01,9.99999e-01,4.11269e-01,9.99999e-01
5.449489501e-01,4.18550e-01,9.99999e-01,4.18550e-01,9.99999e-01
5.476736949e-01,4.25813e-01,9.99999e-01,4.25813e-01,9.99999e-01
5.504120634e-01,4.33055e-01,9.99999e-01,4.33055e-01,9.99999e-01
5.531641237e-01,4.40273e-01,9.99999e-01,4.40273e-01,9.99999e-01
5.559299443e-01,4.47465e-01,9.99999e-01,4.47465e-01,9.99999e-01
5.587095940e-01,4.54630e-01,9.99999e-01,4.54630e-01,9.99999e-01
5.615031420e-01,4.61764e-01,9.99999e-01,4.61764e-01,9.99999e-01
5.643106577e-01,4.68865e-01,9.99999e-01,4.68865e-01,9.99999e-01
5.671322110e-01,4.75933e-01,9.99999e-01,4.75933e-01,9.99999e-01
5.699678720e-01,4.82964e-01,9.99999e-01,4.82964e-01,9.99999e-01
5.728177114e-01,4.89958e-01,9.99999e-01,4.89958e-01,9.99999e-01
5.756818000e-01,4.96911e-01,9.99999e-01,4.96911e-01,9.99999e-01
5.785602090e-01,5.03823e-01,9.99999e-01,5.03823e-01,9.99999e-01
5.814530100e-01,5.10692e-01,9.99999e-01,5.10692e-01,9.99999e-01
5.843602750e-01,5.17515e-01,9.99999e-01,5.17515e-01,9.99999e-01
5.872820764e-01,5.24293e-01,9.99999e-01,5.24293e-01,9.99999e-01
5.902184868e-01,5.31023e-01,9.99999e-01,5.31023e-01,9.99999e-01
5.931695792e-01,5.37703e-01,9.99999e-01,5.37703e-01,9.99999e-01
5.961354271e-01,5.44334e-01,9.99999e-01,5.44334e-01,9.99999e-01
5.991161043e-01,5.50912e-01,9.99999e-01,5.50912e-01,9.99999e-01
6.021116848e-01,5.57438e-01,9.99999e-01,5.57438e-01,9.99999e-01
6.051222432e-01,5.63910e-01,9.99999e-01,5.63910e-01,9.99999e-01
6.081478544e-01,5.70327e-01,9.99999e-01,5.70327e-01,9.99999e-01
6.111885937e-01,5.76689e-01,9.99999e-01,5.76689e-01,9.99999e-01
6.142445367e-01,5.82993e-01,9.99999e-01,5.82993e-01,9.99999e-01
6.173157594e-01,5.89240e-01,9.99999e-01,5.89240e-01,9.99999e-01
6.204023382e-01,5.95428e-01,9.99999e-01,5.95428e-01,9.99999e-01
6.235043498e-01,6.01557e-01,9.99999e-01,6.01557e-01,9.99999e-01
6.266218716e-01,6.07627e-01,9.99999e-01,6.07627e-01,9.99999e-01
6.297549810e-01,6.13636e-01,9.99999e-01,6.13636e-01,9.99999e-01
6.329037559e-01,6.19583e-01,9.99999e-01,6.19583e-01,9.99999e-01
6.360682746e-01,6.25470e-01,9.99999e-01,6.25470e-01,9.99999e-01
6.392486160e-01,6.31294e-01,9.99999e-01,6.31294e-01,9.99999e-01
6.424448591e-01,6.37056e-01,9.99999e-01,6.37056e-01,9.99999e-01
6.456570834e-01,6.42755e-01,9.99999e-01,6.42755e-01,9.99999e-01
6.488853688e-01,6.48391e-01,9.99999e-01,6.48391e-01,9.99999e-01
6.521297956e-01,6.53964e-01,9.99999e-01,6.53964e-01,9.99999e-01
6.553904446e-01,6.59473e-01,9.99999e-01,6.59473e-01,9.99999e-01
6.586673968e-01,6.64919e-01,9.99999e-01,6.64919e-01,9.99999e-01
6.619607338e-01,6.70300e-01,9.99999e-01,6.70300e-01,9.99999e-01
6.652705375e-01,6.75617e-01,9.99999e-01,6.75617e-01,9.99999e-01
6.685968902e-01,6.80871e-01,9.99999e-01,6.80871e-01,9.99999e-01
6.719398746e-01,6.86060e-01,9.99999e-01,6.86060e-01,9.99999e-01
6.752995740e-01,6.91185e-01,9.99999e-01,6.91185e-01,9.99999e-01
6.786760719e-01,6.96246e-01,9.99999e-01,6.96246e-01,9.99999e-01
6.820694522e-01,7.01243e-01,9.99999e-01,7.01243e-01,9.99999e-01
6.854797995e-01,7.06176e-01,9.99999e-01,7.06176e-01,9.99999e-01
6.889071985e-01,7.11045e-01,9.99999e-01,7.11045e-01,9.99999e-01
6.923517345e-01,7.15851e-01,9.99999e-01,7.15851e-01,9.99999e-01
6.958134932e-01,7.20593e-01,9.99999e-01,7.20593e-01,9.99999e-01
6.992925606e-01,7.25273e-01,9.99999e-01,7.25273e-01,9.99999e-01
7.027890234e-01,7.29889e-01,9.99999e-01,7.29889e-01,9.99999e-01
7.063029686e-01,7.34442e-01,9.99999e-01,7.34442e-01,9.99999e-01
7.098344834e-01,7.38933e-01,9.99999e-01,7.38933e-01,9.99999e-01
7.133836558e-01,7.43363e-01,9.99999e-01,7.43363e-01,9.99999e-01
7.169505741e-01,7.47730e-01,9.99999e-01,7.47730e-01,9.99999e-01
7.205353270e-01,7.52036e-01,9.99999e-01,7.52036e-01,9.99999e-01
7.241380036e-01,7.56281e-01,9.99999e-01,7.56281e-01,9.99999e-01
7.277586936e-01,7.60466e-01,9.99999e-01,7.60466e-01,9.99999e-01
7.313974871e-01,7.64590e-01,9.99999e-01,7.64590e-01,9.99999e-01
7.350544745e-01,7.68654e-01,9.99999e-01,7.68654e-01,9.99999e-01
7.387297469e-01,7.72660e-01,9.99999e-01,7.72660e-01,9.99999e-01
7.424233956e-01,7.76606e-01,9.99999e-01,7.76606e-01,9.99999e-01
7.461355126e-01,7.80494e-01,9.99999e-01,7.80494e-01,9.99999e-01
7.498661902e-01,7.84324e-01,9.99999e-01,7.84324e-01,9.99999e-01
7.536155211e-01,7.88096e-01,9.99999e-01,7.88096e-01,9.99999e-01
7.573835987e-01,7.91812e-01,9.99999e-01,7.91812e-01,9.99999e-01
7.611705167e-01,7.95472e-01,9.99999e-01,7.95472e-01,9.99999e-01
7.649763693e-01,7.99075e-01,9.99999e-01,7.99075e-01,9.99999e-01
7.688012511e-01,8.02623e-01,9.99999e-01,8.02623e-01,9.99999e-01
7.726452574e-01,8.06116e-01,9.99999e-01,8.06116e-01,9.99999e-01
7.765084837e-01,8.09556e-01,9.99999e-01,8.09556e-01,9.99999e-01
7.803910261e-01,8.04400e-01,9.89492e-01,8.12941e-01,9.99999e-01
7.842929812e-01,7.80483e-01,9.56154e-01,8.16273e-01,9.99999e-01
7.882144461e-01,7.80985e-01,9.52939e-01,8.19553e-01,9.99999e-01
7.921555184e-01,8.00464e-01,9.72876e-01,8.22781e-01,9.99999e-01
7.961162960e-01,8.10938e-01,9.81815e-01,8.25957e-01,9.99999e-01
8.000968774e-01,8.20886e-01,9.90113e-01,8.29082e-01,9.99999e-01
8.040973618e-01,8.27887e-01,9.94867e-01,8.32158e-01,9.99999e-01
8.081178486e-01,8.33215e-01,9.97643e-01,8.35183e-01,9.99999e-01
8.121584379e-01,8.37549e-01,9.99270e-01,8.38160e-01,9.99999e-01
8.162192301e-01,8.40952e-01,9.99838e-01,8.41088e-01,9.99999e-01
8.203003262e-01,8.43966e-01,9.99997e-01,8.43968e-01,9.99999e-01
8.244018279e-01,8.46800e-01,9.99999e-01,8.46800e-01,9.99999e-01
8.285238370e-01,8.49586e-01,9.99999e-01,8.49586e-01,9.99999e-01
8.326664562e-01,8.52326e-01,9.99999e-01,8.52326e-01,9.99999e-01
8.368297885e-01,8.55020e-01,9.99999e-01,8.55020e-01,9.99999e-01
8.410139374e-01,8.57670e-01,9.99999e-01,8.57670e-01,9.99999e-01
8.452190071e-01,8.60275e-01,9.99999e-01,8.60275e-01,9.99999e-01
8.494451021e-01,8.62836e-01,9.99999e-01,8.62836e-01,9.99999e-01
8.536923276e-01,8.65354e-01,9.99999e-01,8.65354e-01,9.99999e-01
8.579607893e-01,8.67830e-01,9.99999e-01,8.67830e-01,9.99999e-01
8.622505932e-01,8.70263e-01,9.99999e-01,8.70263e-01,9.99999e-01
8.665618462e-01,8.46175e-01,9.69655e-01,8.72655e-01,9.99999e-01
8.708946554e-01,7.78826e-01,8.90079e-01,8.75006e-01,9.99999e-01
8.752491287e-01,8.00160e-01,9.12052e-01,8.77317e-01,9.99999e-01
8.796253743e-01,8.36860e-01,9.51421e-01,8.79588e-01,9.99999e-01
8.840235012e-01,8.59504e-01,9.74692e-01,8.81820e-01,9.99999e-01
8.884436187e-01,8.75147e-01,9.89969e-01,8.84013e-01,9.99999e-01
8.928858368e-01,8.82563e-01,9.95931e-01,8.86168e-01,9.99999e-01
8.973502660e-01,8.87407e-01,9.99009e-01,8.88286e-01,9.99999e-01
9.018370173e-01,8.90270e-01,9.99890e-01,8.90367e-01,9.99999e-01
9.063462024e-01,8.89908e-01,9.97194e-01,8.92412e-01,9.99999e-01
9.108779334e-01,8.88683e-01,9.93584e-01,8.94421e-01,9.99999e-01
9.154323231e-01,8.95040e-01,9.98489e-01,8.96394e-01,9.99999e-01
9.200094847e-01,8.77909e-01,9.77264e-01,8.98333e-01,9.99999e-01
9.246095321e-01,8.72258e-01,9.68920e-01,9.00237e-01,9.99999e-01
9.292325798e-01,8.79941e-01,9.75427e-01,9.02108e-01,9.99999e-01
9.338787427e-01,8.82532e-01,9.76310e-01,9.03945e-01,9.99999e-01
9.385481364e-01,8.89987e-01,9.82596e-01,9.05750e-01,9.99999e-01
9.432408771e-01,8.97838e-01,9.89327e-01,9.07523e-01,9.99999e-01
9.479570815e-01,9.04277e-01,9.94514e-01,9.09264e-01,9.99999e-01
9.526968669e-01,9.08561e-01,9.97350e-01,9.10974e-01,9.99999e-01
9.574603512e-01,9.11619e-01,9.98866e-01,9.12653e-01,9.99999e-01
9.622476530e-01,9.13979e-01,9.99646e-01,9.14303e-01,9.99999e-01
9.670588912e-01,9.15825e-01,9.99893e-01,9.15922e-01,9.99999e-01
9.718941857e-01,9.17505e-01,9.99992e-01,9.17512e-01,9.99999e-01
9.767536566e-01,9.19074e-01,9.99999e-01,9.19074e-01,9.99999e-01
9.816374249e-01,9.20607e-01,9.99999e-01,9.20607e-01,9.99999e-01
9.865456120e-01,9.22112e-01,9.99999e-01,9.22112e-01,9.99999e-01
9.914783401e-01,9.23591e-01,9.99999e-01,9.23591e-01,9.99999e-01
9.964357318e-01,9.25042e-01,9.99999e-01,9.25042e-01,9.99999e-01
1.001417910e+00,9.26467e-01,9.99999e-01,9.26467e-01,9.99999e-01
1.006425000e+00,9.27865e-01,9.99999e-01,9.27865e-01,9.99999e-01
1.011457125e+00,9.29238e-01,9.99999e-01,9.29238e-01,9.99999e-01
1.016514411e+00,9.30586e-01,9.99999e-01,9.30586e-01,9.99999e-01
1.021596983e+00,9.31896e-01,9.99985e-01,9.31910e-01,9.99999e-01
1.026704968e+00,9.32193e-01,9.98911e-01,9.33209e-01,9.99999e-01
1.031838492e+00,9.17473e-01,9.81795e-01,9.34484e-01,9.99999e-01
1.036997685e+00,3.89170e-01,4.15898e-01,9.35735e-01,9.99999e-01
1.042182673e+00,4.85895e-01,5.18584e-01,9.36964e-01,9.99999e-01
1.047393587e+00,4.23872e-01,4.51807e-01,9.38170e-01,9.99999e-01
1.052630555e+00,1.30052e-01,1.38448e-01,9.39353e-01,9.99999e-01
1.057893707e+00,2.08597e-01,2.21790e-01,9.40515e-01,9.99999e-01
1.063183176e+00,3.19556e-01,3.39356e-01,9.41655e-01,9.99999e-01
1.068499092e+00,4.65212e-01,4.93450e-01,9.42773e-01,9.99999e-01
1.073841587e+00,6.04578e-01,6.40529e-01,9.43871e-01,9.99999e-01
1.079210795e+00,7.14211e-01,7.55819e-01,9.44949e-01,9.99999e-01
1.084606849e+00,8.12374e-01,8.58740e-01,9.46006e-01,9.99999e-01
1.090029883e+00,8.75351e-01,9.24297e-01,9.47044e-01,9.99999e-01
1.095480033e+00,9.12037e-01,9.62000e-01,9.48063e-01,9.99999e-01
1.100957433e+00,9.31550e-01,9.81547e-01,9.49062e-01,9.99999e-01
1.106462220e+00,9.42757e-01,9.92331e-01,9.50042e-01,9.99999e-01
1.111994531e+00,9.48297e-01,9.97152e-01,9.51005e-01,9.99999e-01
1.117554504e+00,9.51286e-01,9.99303e-01,9.51949e-01,9.99999e-01
1.123142276e+00,9.52832e-01,9.99953e-01,9.52875e-01,9.99999e-01
1.128757988e+00,9.53784e-01,9.99999e-01,9.53784e-01,9.99999e-01
1.134401778e+00,9.54676e-01,9.99999e-01,9.54676e-01,9.99999e-01
1.140073787e+00,9.55551e-01,9.99999e-01,9.55551e-01,9.99999e-01
1.145774156e+00,9.56410e-01,9.99999e-01,9.56410e-01,9.99999e-01
1.151503026e+00,9.57252e-01,9.99999e-01,9.57252e-01,9.99999e-01
1.157260541e+00,9.58078e-01,9.99999e-01,9.58078e-01,9.99999e-01
1.163046844e+00,9.58889e-01,9.99999e-01,9.58889e-01,9.99999e-01
1.168862078e+00,9.59684e-01,9.99999e-01,9.59684e-01,9.99999e-01
1.174706389e+00,9.60465e-01,9.99999e-01,9.60465e-01,9.99999e-01
1.180579921e+00,9.61230e-01,9.99999e-01,9.61230e-01,9.99999e-01
1.186482820e+00,9.61980e-01,9.99997e-01,9.61981e-01,9.99999e-01
1.192415234e+00,9.58941e-01,9.96075e-01,9.62718e-01,9.99999e-01
1.198377311e+00,5.96815e-01,6.19461e-01,9.63441e-01,9.99999e-01
1.204369197e+00,7.88111e-05,8.17414e-05,9.64150e-01,9.99999e-01
1.210391043e+00,1.99132e-13,2.06387e-13,9.64845e-01,9.99999e-01
1.216442998e+00,7.79872e-12,8.07715e-12,9.65528e-01,9.99999e-01
1.222525213e+00,1.32238e-11,1.36865e-11,9.66197e-01,9.99999e-01
1.228637839e+00,7.35273e-09,7.60480e-09,9.66853e-01,9.99999e-01
1.234781029e+00,1.53071e-06,1.58213e-06,9.67497e-01,9.99999e-01
1.240954934e+00,1.80665e-04,1.86613e-04,9.68129e-01,9.99999e-01
1.247159708e+00,8.40351e-03,8.67460e-03,9.68749e-01,9.99999e-01
1.253395507e+00,7.54225e-02,7.78067e-02,9.69356e-01,9.99999e-01
1.259662485e+00,2.30706e-01,2.37853e-01,9.69952e-01,9.99999e-01
1.265960797e+00,4.23106e-01,4.35950e-01,9.70537e-01,9.99999e-01
1.272290601e+00,6.93789e-01,7.14428e-01,9.71111e-01,9.99999e-01
1.278652054e+00,6.35222e-01,6.53740e-01,9.71673e-01,9.99999e-01
1.285045314e+00,1.08288e-01,1.11381e-01,9.72225e-01,9.99999e-01
1.291470541e+00,3.24464e-02,3.33548e-02,9.72766e-01,9.99999e-01
1.297927893e+00,1.29017e-01,1.32556e-01,9.73296e-01,9.99999e-01
1.304417533e+00,5.30120e-01,5.44373e-01,9.73817e-01,9.99999e-01
1.310939621e+00,1.74076e-01,1.78663e-01,9.74327e-01,9.99999e-01
1.317494319e+00,5.71907e-05,5.86674e-05,9.74828e-01,9.99999e-01
1.324081790e+00,6.72865e-04,6.89892e-04,9.75319e-01,9.99999e-01
1.330702199e+00,2.49697e-02,2.55889e-02,9.75801e-01,9.99999e-01
1.337355710e+00,1.61954e-02,1.65890e-02,9.76273e-01,9.99999e-01
1.344042489e+00,7.98085e-03,8.17093e-03,9.76736e-01,9.99999e-01
1.350762701e+00,2.16740e-02,2.21799e-02,9.77190e-01,9.99999e-01
1.357516515e+00,7.73855e-02,7.91557e-02,9.77636e-01,9.99999e-01
1.364304097e+00,2.08605e-01,2.13281e-01,9.78072e-01,9.99999e-01
1.371125618e+00,4.29525e-01,4.38961e-01,9.78501e-01,9.99999e-01
1.377981246e+00,5.12060e-01,5.23086e-01,9.78921e-01,9.99999e-01
1.384871152e+00,6.71412e-01,6.85580e-01,9.79333e-01,9.99999e-01
1.391795508e+00,6.91564e-01,7.05867e-01,9.79737e-01,9.99999e-01
1.398754485e+00,7.91563e-01,8.07607e-01,9.80133e-01,9.99999e-01
1.405748258e+00,8.37237e-01,8.53867e-01,9.80522e-01,9.99999e-01
1.412776999e+00,8.88014e-01,9.05302e-01,9.80903e-01,9.99999e-01
1.419840884e+00,8.42977e-01,8.59061e-01,9.81277e-01,9.99999e-01
1.426940089e+00,1.31756e-01,1.34220e-01,9.81643e-01,9.99999e-01
1.434074789e+00,3.72366e-177,3.79190e-177,9.82002e-01,9.99999e-01
1.441245163e+00,8.32867e-261,8.47827e-261,9.82355e-01,9.99999e-01
1.448451389e+00,1.31128e-214,1.33436e-214,9.82700e-01,9.99999e-01
1.455693646e+00,1.38396e-96,1.40784e-96,9.83039e-01,9.99999e-01
1.462972114e+00,1.28352e-47,1.30522e-47,9.83371e-01,9.99999e-01
1.470286975e+00,6.75104e-21,6.86292e-21,9.83697e-01,9.99999e-01
1.477638409e+00,8.75615e-14,8.89837e-14,9.84016e-01,9.99999e-01
1.485026601e+00,2.57481e-08,2.61580e-08,9.84329e-01,9.99999e-01
1.492451734e+00,4.78299e-07,4.85762e-07,9.84637e-01,9.99999e-01
1.499913993e+00,5.20642e-04,5.28603e-04,9.84938e-01,9.99999e-01
1.507413563e+00,5.00412e-03,5.07912e-03,9.85233e-01,9.99999e-01
1.514950631e+00,2.91947e-04,2.96235e-04,9.85523e-01,9.99999e-01
1.522525384e+00,2.12976e-10,2.16042e-10,9.85806e-01,9.99999e-01
1.530138011e+00,6.35591e-22,6.44559e-22,9.86085e-01,9.99999e-01
1.537788701e+00,1.15001e-16,1.16591e-16,9.86358e-01,9.99999e-01
1.545477645e+00,4.36433e-05,4.42349e-05,9.86625e-01,9.99999e-01
1.553205033e+00,4.03564e-03,4.08925e-03,9.86888e-01,9.99999e-01
1.560971058e+00,1.04073e-03,1.05428e-03,9.87145e-01,9.99999e-01
1.568775913e+00,3.19855e-53,3.23937e-53,9.87397e-01,9.99999e-01
1.576619793e+00,1.73034e-122,1.75198e-122,9.87645e-01,9.99999e-01
1.584502892e+00,1.47638e-67,1.49449e-67,9.87887e-01,9.99999e-01
1.592425406e+00,2.50833e-47,2.53847e-47,9.88125e-01,9.99999e-01
1.600387533e+00,1.17913e-75,1.19302e-75,9.88358e-01,9.99999e-01
1.608389471e+00,5.23929e-126,5.29978e-126,9.88587e-01,9.99999e-01
1.616431418e+00,8.60333e-127,8.70067e-127,9.88811e-01,9.99999e-01
1.624513575e+00,5.11918e-60,5.17595e-60,9.89031e-01,9.99999e-01
1.632636143e+00,6.01045e-45,6.07578e-45,9.89246e-01,9.99999e-01
1.640799324e+00,1.60526e-19,1.62236e-19,9.89458e-01,9.99999e-01
1.649003321e+00,2.42504e-19,2.45036e-19,9.89665e-01,9.99999e-01
1.657248337e+00,3.10721e-15,3.13901e-15,9.89868e-01,9.99999e-01
1.665534579e+00,2.35291e-15,2.37652e-15,9.90067e-01,9.99999e-01
1.673862252e+00,2.62410e-10,2.64990e-10,9.90262e-01,9.99999e-01
1.682231563e+00,1.43427e-07,1.44809e-07,9.90454e-01,9.99999e-01
1.690642721e+00,7.69049e-05,7.76313e-05,9.90641e-01,9.99999e-01
1.699095934e+00,3.28266e-03,3.31306e-03,9.90825e-01,9.99999e-01
1.707591414e+00,4.76992e-02,4.81320e-02,9.91006e-01,9.99999e-01
1.716129371e+00,1.95397e-01,1.97135e-01,9.91182e-01,9.99999e-01
1.724710018e+00,4.22622e-01,4.26307e-01,9.91356e-01,9.99999e-01
1.733333568e+00,5.75976e-01,5.80898e-01,9.91526e-01,9.99999e-01
1.742000236e+00,6.99977e-01,7.05840e-01,9.91693e-01,9.99999e-01
1.750710237e+00,8.70687e-02,8.77836e-02,9.91856e-01,9.99999e-01
1.759463788e+00,8.97522e-10,9.04745e-10,9.92016e-01,9.99999e-01
1.768261107e+00,1.29909e-10,1.30934e-10,9.92173e-01,9.99999e-01
1.777102413e+00,1.51877e-09,1.53051e-09,9.92327e-01,9.99999e-01
1.785987925e+00,1.31857e-09,1.32857e-09,9.92478e-01,9.99999e-01
1.794917864e+00,9.37638e-09,9.44603e-09,9.92626e-01,9.99999e-01
1.803892454e+00,4.33558e-09,4.36714e-09,9.92771e-01,9.99999e-01
1.812911916e+00,1.81091e-08,1.82383e-08,9.92914e-01,9.99999e-01
1.821976476e+00,1.02255e-08,1.02970e-08,9.93053e-01,9.99999e-01
1.831086358e+00,3.23696e-07,3.25915e-07,9.93190e-01,9.99999e-01
1.840241790e+00,4.42093e-06,4.45064e-06,9.93324e-01,9.99999e-01
1.849442999e+00,2.16675e-04,2.18102e-04,9.93455e-01,9.99999e-01
1.858690214e+00,7.13492e-04,7.18098e-04,9.93584e-01,9.99999e-01
1.867983665e+00,1.35216e-04,1.36071e-04,9.93710e-01,9.99999e-01
1.877323583e+00,1.50714e-17,1.51649e-17,9.93834e-01,9.99999e-01
