#,Wave/freq,Total,CO2,Rayleigh,CIA
4.000000000e-01,3.58222e-06,9.99999e-01,3.58222e-06,9.99999e-01
4.020000000e-01,4.59023e-06,9.99999e-01,4.59023e-06,9.99999e-01
4.040100000e-01,5.85163e-06,9.99999e-01,5.85163e-06,9.99999e-01
4.060300500e-01,7.42397e-06,9.99999e-01,7.42397e-06,9.99999e-01
4.080602003e-01,9.37462e-06,9.99999e-01,9.37462e-06,9.99999e-01
4.101005013e-01,1.17834e-05,9.99999e-01,1.17834e-05,9.99999e-01
4.121510038e-01,1.47443e-05,9.99999e-01,1.47443e-05,9.99999e-01
4.142117588e-01,1.83678e-05,9.99999e-01,1.83678e-05,9.99999e-01
4.162828176e-01,2.27826e-05,9.99999e-01,2.27826e-05,9.99999e-01
4.183642317e-01,2.81386e-05,9.99999e-01,2.81386e-05,9.99999e-01
4.204560528e-01,3.46090e-05,9.99999e-01,3.46090e-05,9.99999e-01
4.225583331e-01,4.23937e-05,9.99999e-01,4.23937e-05,9.99999e-01
4.246711247e-01,5.17217e-05,9.99999e-01,5.17217e-05,9.99999e-01
4.267944804e-01,6.28548e-05,9.99999e-01,6.28548e-05,9.99999e-01
4.289284528e-01,7.60907e-05,9.99999e-01,7.60907e-05,9.99999e-01
4.310730950e-01,9.17668e-05,9.99999e-01,9.17668e-05,9.99999e-01
4.332284605e-01,1.10264e-04,9.99999e-01,1.10264e-04,9.99999e-01
4.353946028e-01,1.32009e-04,9.99999e-01,1.32009e-04,9.99999e-01
4.375715758e-01,1.57482e-04,9.99999e-01,1.57482e-04,9.99999e-01
4.397594337e-01,1.87217e-04,9.99999e-01,1.87217e-04,9.99999e-01
4.419582309e-01,2.21808e-04,9.99999e-01,2.21808e-04,9.99999e-01
4.441680220e-01,2.61910e-04,9.99999e-01,2.61910e-04,9.99999e-01
4.463888621e-01,3.08250e-04,9.99999e-01,3.08250e-04,9.99999e-01
4.486208064e-01,3.61623e-04,9.99999e-01,3.61623e-04,9.99999e-01
4.508639105e-01,4.22901e-04,9.99999e-01,4.22901e-04,9.99999e-01
4.531182300e-01,4.93036e-04,9.99999e-01,4.93036e-04,9.99999e-01
4.553838212e-01,5.73063e-04,9.99999e-01,5.73063e-04,9.99999e-01
4.576607403e-01,6.64104e-04,9.99999e-01,6.64104e-04,9.99999e-01
4.599490440e-01,7.67370e-04,9.99999e-01,7.67370e-04,9.99999e-01
4.622487892e-01,8.84166e-04,9.99999e-01,8.84166e-04,9.99999e-01
4.645600332e-01,1.01589e-03,9.99999e-01,1.01589e-03,9.99999e-01
4.668828333e-01,1.16404e-03,9.99999e-01,1.16404e-03,9.99999e-01
4.692172475e-01,1.33022e-03,9.99999e-01,1.33022e-03,9.99999e-01
4.715633337e-01,1.51612e-03,9.99999e-01,1.51612e-03,9.99999e-01
4.739211504e-01,1.72354e-03,9.99999e-01,1.72354e-03,9.99999e-01
4.762907561e-01,1.95438e-03,9.99999e-01,1.95438e-03,9.99999e-01
4.786722099e-01,2.21064e-03,9.99999e-01,2.21064e-03,9.99999e-01
4.810655710e-01,2.49442e-03,9.99999e-01,2.49442e-03,9.99999e-01
4.834708988e-01,2.80793e-03,9.99999e-01,2.80793e-03,9.99999e-01
4.858882533e-01,3.15346e-03,9.99999e-01,3.15346e-03,9.99999e-01
4.883176946e-01,3.53340e-03,9.99999e-01,3.53340e-03,9.99999e-01
4.907592831e-01,3.95022e-03,9.99999e-01,3.95022e-03,9.99999e-01
4.932130795e-01,4.40650e-03,9.99999e-01,4.40650e-03,9.99999e-01
4.956791449e-01,4.90489e-03,9.99999e-01,4.90489e-03,9.99999e-01
4.981575406e-01,5.44810e-03,9.99999e-01,5.44810e-03,9.99999e-01
5.006483283e-01,6.03893e-03,9.99999e-01,6.03893e-03,9.99999e-01
5.031515699e-01,6.68023e-03,9.99999e-01,6.68023e-03,9.99999e-01
5.056673278e-01,7.37491e-03,9.99999e-01,7.37491e-03,9.99999e-01
5.081956644e-01,8.12595e-03,9.99999e-01,8.12595e-03,9.99999e-01
5.107366428e-01,8.93633e-03,9.99999e-01,8.93633e-03,9.99999e-01
5.132903260e-01,9.80909e-03,9.99999e-01,9.80909e-03,9.99999e-01
5.158567776e-01,1.07473e-02,9.99999e-01,1.07473e-02,9.99999e-01
5.184360615e-01,1.17540e-02,9.99999e-01,1.17540e-02,9.99999e-01
5.210282418e-01,1.28323e-02,9.99999e-01,1.28323e-02,9.99999e-01
5.236333830e-01,1.39852e-02,9.99999e-01,1.39852e-02,9.99999e-01
5.262515499e-01,1.52159e-02,9.99999e-01,1.52159e-02,9.99999e-01
5.288828077e-01,1.65273e-02,9.99999e-01,1.65273e-02,9.99999e-01
5.315272217e-01,1.79224e-02,9.99999e-01,1.79224e-02,9.99999e-01
5.341848578e-01,1.94042e-02,9.99999e-01,1.94042e-02,9.99999e-01
5.368557821e-01,2.09756e-02,9.99999e-01,2.09756e-02,9.99999e-01
5.395400610e-01,2.26394e-02,9.99999e-01,2.26394e-02,9.99999e-01
5.422377613e-01,2.43984e-02,9.99999e-01,2.43984e-02,9.99999e-01
5.449489501e-01,2.62551e-02,9.99999e-01,2.62551e-02,9.99999e-01
5.476736949e-01,2.82123e-02,9.99999e-01,2.82123e-02,9.99999e-01
5.504120634e-01,3.02724e-02,9.99999e-01,3.02724e-02,9.99999e-01
5.531641237e-01,3.24377e-02,9.99999e-01,3.24377e-02,9.99999e-01
5.559299443e-01,3.47104e-02,9.99999e-01,3.47104e-02,9.99999e-01
5.587095940e-01,3.70928e-02,9.99999e-01,3.70928e-02,9.99999e-01
5.615031420e-01,3.95867e-02,9.99999e-01,3.95867e-02,9.99999e-01
5.643106577e-01,4.21941e-02,9.99999e-01,4.21941e-02,9.99999e-01
5.671322110e-01,4.49165e-02,9.99999e-01,4.49165e-02,9.99999e-01
5.699678720e-01,4.77556e-02,9.99999e-01,4.77556e-02,9.99999e-01
5.728177114e-01,5.07127e-02,9.99999e-01,5.07127e-02,9.99999e-01
5.756818000e-01,5.37891e-02,9.99999e-01,5.37891e-02,9.99999e-01
5.785602090e-01,5.69857e-02,9.99999e-01,5.69857e-02,9.99999e-01
5.814530100e-01,6.03035e-02,9.99999e-01,6.03035e-02,9.99999e-01
5.843602750e-01,6.37432e-02,9.99999e-01,6.37432e-02,9.99999e-01
5.872820764e-01,6.73053e-02,9.99999e-01,6.73053e-02,9.99999e-01
5.902184868e-01,7.09902e-02,9.99999e-01,7.09902e-02,9.99999e-01
5.931695792e-01,7.47980e-02,9.99999e-01,7.47980e-02,9.99999e-01
5.961354271e-01,7.87287e-02,9.99999e-01,7.87287e-02,9.99999e-01
5.991161043e-01,8.27823e-02,9.99999e-01,8.27823e-02,9.99999e-01
6.021116848e-01,8.69583e-02,9.99999e-01,8.69583e-02,9.99999e-01
6.051222432e-01,9.12561e-02,9.99999e-01,9.12561e-02,9.99999e-01
6.081478544e-01,9.56752e-02,9.99999e-01,9.56752e-02,9.99999e-01
6.111885937e-01,1.00215e-01,9.99999e-01,1.00215e-01,9.99999e-01
6.142445367e-01,1.04873e-01,9.99999e-01,1.04873e-01,9.99999e-01
6.173157594e-01,1.09650e-01,9.99999e-01,1.09650e-01,9.99999e-01
6.204023382e-01,1.14544e-01,9.99999e-01,1.14544e-01,9.99999e-01
6.235043498e-01,1.19553e-01,9.99999e-01,1.19553e-01,9.99999e-01
6.266218716e-01,1.24675e-01,9.99999e-01,1.24675e-01,9.99999e-01
6.297549810e-01,1.29909e-01,9.99999e-01,1.29909e-01,9.99999e-01
6.329037559e-01,1.35253e-01,9.99999e-01,1.35253e-01,9.99999e-01
6.360682746e-01,1.40705e-01,9.99999e-01,1.40705e-01,9.99999e-01
6.392486160e-01,1.46263e-01,9.99999e-01,1.46263e-01,9.99999e-01
6.424448591e-01,1.51923e-01,9.99999e-01,1.51923e-01,9.99999e-01
6.456570834e-01,1.57684e-01,9.99999e-01,1.57684e-01,9.99999e-01
6.488853688e-01,1.63544e-01,9.99999e-01,1.63544e-01,9.99999e-01
6.521297956e-01,1.69499e-01,9.99999e-01,1.69499e-01,9.99999e-01
6.553904446e-01,1.75547e-01,9.99999e-01,1.75547e-01,9.99999e-01
6.586673968e-01,1.81685e-01,9.99999e-01,1.81685e-01,9.99999e-01
6.619607338e-01,1.87909e-01,9.99999e-01,1.87909e-01,9.99999e-01
6.652705375e-01,1.94218e-01,9.99999e-01,1.94218e-01,9.99999e-01
6.685968902e-01,2.00608e-01,9.99999e-01,2.00608e-01,9.99999e-01
6.719398746e-01,2.07075e-01,9.99999e-01,2.07075e-01,9.99999e-01
6.752995740e-01,2.13617e-01,9.99999e-01,2.13617e-01,9.99999e-01
6.786760719e-01,2.20231e-01,9.99999e-01,2.20231e-01,9.99999e-01
6.820694522e-01,2.26912e-01,9.99999e-01,2.26912e-01,9.99999e-01
6.854797995e-01,2.33658e-01,9.99999e-01,2.33658e-01,9.99999e-01
6.889071985e-01,2.40466e-01,9.99999e-01,2.40466e-01,9.99999e-01
6.923517345e-01,2.47331e-01,9.99999e-01,2.47331e-01,9.99999e-01
6.958134932e-01,2.54251e-01,9.99999e-01,2.54251e-01,9.99999e-01
6.992925606e-01,2.61222e-01,9.99999e-01,2.61222e-01,9.99999e-01
7.027890234e-01,2.68241e-01,9.99999e-01,2.68241e-01,9.99999e-01
7.063029686e-01,2.75305e-01,9.99999e-01,2.75305e-01,9.99999e-01
7.098344834e-01,2.82409e-01,9.99999e-01,2.82409e-01,9.99999e-01
7.133836558e-01,2.89551e-01,9.99999e-01,2.89551e-01,9.99999e-01
7.169505741e-01,2.96727e-01,9.99999e-01,2.96727e-01,9.99999e-01
7.205353270e-01,3.03934e-01,9.99999e-01,3.03934e-01,9.99999e-01
7.241380036e-01,3.11169e-01,9.99999e-01,3.11169e-01,9.99999e-01
7.277586936e-01,3.18428e-01,9.99999e-01,3.18428e-01,9.99999e-01
7.313974871e-01,3.25707e-01,9.99999e-01,3.25707e-01,9.99999e-01
7.350544745e-01,3.33005e-01,9.99999e-01,3.33005e-01,9.99999e-01
7.387297469e-01,3.40317e-01,9.99999e-01,3.40317e-01,9.99999e-01
7.424233956e-01,3.47640e-01,9.99999e-01,3.47640e-01,9.99999e-01
7.461355126e-01,3.54971e-01,9.99999e-01,3.54971e-01,9.99999e-01
7.498661902e-01,3.62308e-01,9.99999e-01,3.62308e-01,9.99999e-01
7.536155211e-01,3.69647e-01,9.99999e-01,3.69647e-01,9.99999e-01
7.573835987e-01,3.76986e-01,9.99999e-01,3.76986e-01,9.99999e-01
7.611705167e-01,3.84320e-01,9.99999e-01,3.84320e-01,9.99999e-01
7.649763693e-01,3.91649e-01,9.99999e-01,3.91649e-01,9.99999e-01
7.688012511e-01,3.98968e-01,9.99999e-01,3.98968e-01,9.99999e-01
7.726452574e-01,4.06275e-01,9.99999e-01,4.06275e-01,9.99999e-01
7.765084837e-01,4.13568e-01,9.99999e-01,4.13568e-01,9.99999e-01
7.803910261e-01,4.04799e-01,9.61874e-01,4.20844e-01,9.99999e-01
7.842929812e-01,3.56581e-01,8.32936e-01,4.28101e-01,9.99999e-01
7.882144461e-01,3.58546e-01,8.23609e-01,4.35335e-01,9.99999e-01
7.921555184e-01,3.94954e-01,8.92458e-01,4.42545e-01,9.99999e-01
7.961162960e-01,4.16447e-01,9.25994e-01,4.49729e-01,9.99999e-01
8.000968774e-01,4.38265e-01,9.59247e-01,4.56884e-01,9.99999e-01
8.040973618e-01,4.54069e-01,9.78578e-01,4.64008e-01,9.99999e-01
8.081178486e-01,4.66463e-01,9.90156e-01,4.71100e-01,9.99999e-01
8.121584379e-01,4.76684e-01,9.96921e-01,4.78156e-01,9.99999e-01
8.162192301e-01,4.84845e-01,9.99319e-01,4.85176e-01,9.99999e-01
8.203003262e-01,4.92151e-01,9.99988e-01,4.92156e-01,9.99999e-01
8.244018279e-01,4.99097e-01,9.99999e-01,4.99097e-01,9.99999e-01
8.285238370e-01,5.05995e-01,9.99999e-01,5.05995e-01,9.99999e-01
8.326664562e-01,5.12850e-01,9.99999e-01,5.12850e-01,9.99999e-01
8.368297885e-01,5.19659e-01,9.99999e-01,5.19659e-01,9.99999e-01
8.410139374e-01,5.26422e-01,9.99999e-01,5.26422e-01,9.99999e-01
8.452190071e-01,5.33136e-01,9.99999e-01,5.33136e-01,9.99999e-01
8.494451021e-01,5.39801e-01,9.99999e-01,5.39801e-01,9.99999e-01
8.536923276e-01,5.46415e-01,9.99999e-01,5.46415e-01,9.99999e-01
8.579607893e-01,5.52978e-01,9.99999e-01,5.52978e-01,9.99999e-01
8.622505932e-01,5.59487e-01,9.99999e-01,5.59487e-01,9.99999e-01
8.665618462e-01,5.20601e-01,9.19885e-01,5.65941e-01,9.99999e-01
8.708946554e-01,3.61537e-01,6.31680e-01,5.72341e-01,9.99999e-01
8.752491287e-01,3.98363e-01,6.88394e-01,5.78684e-01,9.99999e-01
8.796253743e-01,4.75987e-01,8.13693e-01,5.84971e-01,9.99999e-01
8.840235012e-01,5.31183e-01,8.98484e-01,5.91199e-01,9.99999e-01
8.884436187e-01,5.72558e-01,9.58466e-01,5.97369e-01,9.99999e-01
8.928858368e-01,5.93232e-01,9.83019e-01,6.03479e-01,9.99999e-01
8.973502660e-01,6.06982e-01,9.95819e-01,6.09530e-01,9.99999e-01
9.018370173e-01,6.15235e-01,9.99537e-01,6.15519e-01,9.99999e-01
9.063462024e-01,6.14395e-01,9.88650e-01,6.21448e-01,9.99999e-01
9.108779334e-01,6.10625e-01,9.73394e-01,6.27315e-01,9.99999e-01
9.154323231e-01,6.29083e-01,9.93623e-01,6.33119e-01,9.99999e-01
9.200094847e-01,5.84402e-01,9.14754e-01,6.38861e-01,9.99999e-01
9.246095321e-01,5.64975e-01,8.76554e-01,6.44541e-01,9.99999e-01
9.292325798e-01,5.87183e-01,9.03139e-01,6.50157e-01,9.99999e-01
9.338787427e-01,5.93497e-01,9.05120e-01,6.55710e-01,9.99999e-01
9.385481364e-01,6.14468e-01,9.29323e-01,6.61199e-01,9.99999e-01
9.432408771e-01,6.37243e-01,9.55925e-01,6.66624e-01,9.99999e-01
9.479570815e-01,6.56677e-01,9.77219e-01,6.71985e-01,9.99999e-01
9.526968669e-01,6.69785e-01,9.88930e-01,6.77282e-01,9.99999e-01
9.574603512e-01,6.79273e-01,9.95248e-01,6.82515e-01,9.99999e-01
9.622476530e-01,6.86663e-01,9.98514e-01,6.87684e-01,9.99999e-01
9.670588912e-01,6.92480e-01,9.99553e-01,6.92789e-01,9.99999e-01
9.718941857e-01,6.97807e-01,9.99967e-01,6.97830e-01,9.99999e-01
9.767536566e-01,7.02807e-01,9.99999e-01,7.02807e-01,9.99999e-01
9.816374249e-01,7.07720e-01,9.99999e-01,7.07720e-01,9.99999e-01
9.865456120e-01,7.12569e-01,9.99999e-01,7.12569e-01,9.99999e-01
9.914783401e-01,7.17354e-01,9.99999e-01,7.17354e-01,9.99999e-01
9.964357318e-01,7.22077e-01,9.99999e-01,7.22077e-01,9.99999e-01
1.001417910e+00,7.26736e-01,9.99999e-01,7.26736e-01,9.99999e-01
1.006425000e+00,7.31333e-01,9.99999e-01,7.31333e-01,9.99999e-01
1.011457125e+00,7.35866e-01,9.99999e-01,7.35866e-01,9.99999e-01
1.016514411e+00,7.40338e-01,9.99999e-01,7.40338e-01,9.99999e-01
1.021596983e+00,7.44707e-01,9.99945e-01,7.44748e-01,9.99999e-01
1.026704968e+00,7.45778e-01,9.95570e-01,7.49095e-01,9.99999e-01
1.031838492e+00,7.18244e-01,9.53358e-01,7.53382e-01,9.99999e-01
1.036997685e+00,9.87101e-02,1.30292e-01,7.57608e-01,9.99999e-01
1.042182673e+00,6.05860e-02,7.95327e-02,7.61774e-01,9.99999e-01
1.047393587e+00,8.13950e-02,1.06277e-01,7.65879e-01,9.99999e-01
1.052630555e+00,1.20726e-03,1.56803e-03,7.69925e-01,9.99999e-01
1.057893707e+00,3.30494e-03,4.27043e-03,7.73911e-01,9.99999e-01
1.063183176e+00,1.37031e-02,1.76169e-02,7.77839e-01,9.99999e-01
1.068499092e+00,4.58412e-02,5.86423e-02,7.81709e-01,9.99999e-01
1.073841587e+00,1.29727e-01,1.65148e-01,7.85521e-01,9.99999e-01
1.079210795e+00,2.52295e-01,3.19654e-01,7.89275e-01,9.99999e-01
1.084606849e+00,4.21818e-01,5.31944e-01,7.92973e-01,9.99999e-01
1.090029883e+00,5.74012e-01,7.20564e-01,7.96615e-01,9.99999e-01
1.095480033e+00,6.80665e-01,8.50617e-01,8.00201e-01,9.99999e-01
1.100957433e+00,7.43441e-01,9.24986e-01,8.03731e-01,9.99999e-01
1.106462220e+00,7.81559e-01,9.68225e-01,8.07208e-01,9.99999e-01
1.111994531e+00,8.00986e-01,9.88103e-01,8.10630e-01,9.99999e-01
1.117554504e+00,8.11612e-01,9.97067e-01,8.13998e-01,9.99999e-01
1.123142276e+00,8.17155e-01,9.99805e-01,8.17314e-01,9.99999e-01
1.128757988e+00,8.20577e-01,9.99999e-01,8.20577e-01,9.99999e-01
1.134401778e+00,8.23789e-01,9.99999e-01,8.23789e-01,9.99999e-01
1.140073787e+00,8.26949e-01,9.99999e-01,8.26949e-01,9.99999e-01
1.145774156e+00,8.30058e-01,9.99999e-01,8.30058e-01,9.99999e-01
1.151503026e+00,8.33118e-01,9.99999e-01,8.33118e-01,9.99999e-01
1.157260541e+00,8.36128e-01,9.99999e-01,8.36128e-01,9.99999e-01
1.163046844e+00,8.39089e-01,9.99999e-01,8.39089e-01,9.99999e-01
1.168862078e+00,8.42002e-01,9.99999e-01,8.42002e-01,9.99999e-01
1.174706389e+00,8.44867e-01,9.99999e-01,8.44867e-01,9.99999e-01
1.180579921e+00,8.47685e-01,9.99999e-01,8.47685e-01,9.99999e-01
1.186482820e+00,8.50451e-01,9.99994e-01,8.50456e-01,9.99999e-01
1.192415234e+00,8.39903e-01,9.84435e-01,8.53181e-01,9.99999e-01
1.198377311e+00,4.77006e-01,5.57340e-01,8.55861e-01,9.99999e-01
1.204369197e+00,4.03400e-13,4.69890e-13,8.58497e-01,9.99999e-01
1.210391043e+00,5.91966e-49,6.87462e-49,8.61088e-01,9.99999e-01
1.216442998e+00,1.51217e-42,1.75093e-42,8.63635e-01,9.99999e-01
1.222525213e+00,6.28093e-42,7.25162e-42,8.66140e-01,9.99999e-01
1.228637839e+00,1.77872e-32,2.04779e-32,8.68602e-01,9.99999e-01
1.234781029e+00,7.81572e-21,8.97303e-21,8.71022e-01,9.99999e-01
1.240954934e+00,4.71750e-14,5.40129e-14,8.73401e-01,9.99999e-01
1.247159708e+00,3.39352e-09,3.87503e-09,8.75740e-01,9.99999e-01
1.253395507e+00,5.75648e-05,6.55606e-05,8.78038e-01,9.99999e-01
1.259662485e+00,2.34675e-03,2.66586e-03,8.80296e-01,9.99999e-01
1.265960797e+00,3.58720e-02,4.06474e-02,8.82516e-01,9.99999e-01
1.272290601e+00,2.02272e-01,2.28634e-01,8.84697e-01,9.99999e-01
1.278652054e+00,1.95239e-01,2.20151e-01,8.86841e-01,9.99999e-01
1.285045314e+00,3.77650e-03,4.24828e-03,8.88947e-01,9.99999e-01
1.291470541e+00,2.12167e-06,2.38118e-06,8.91016e-01,9.99999e-01
1.297927893e+00,1.88539e-03,2.11117e-03,8.93050e-01,9.99999e-01
1.304417533e+00,7.38701e-02,8.25320e-02,8.95047e-01,9.99999e-01
1.310939621e+00,1.83173e-02,2.04204e-02,8.97009e-01,9.99999e-01
1.317494319e+00,2.94750e-17,3.27887e-17,8.98937e-01,9.99999e-01
1.324081790e+00,8.16979e-12,9.06916e-12,9.00831e-01,9.99999e-01
1.330702199e+00,5.46229e-07,6.05111e-07,9.02691e-01,9.99999e-01
1.337355710e+00,9.24739e-07,1.02235e-06,9.04518e-01,9.99999e-01
1.344042489e+00,3.07491e-07,3.39277e-07,9.06313e-01,9.99999e-01
1.350762701e+00,3.16377e-07,3.48404e-07,9.08076e-01,9.99999e-01
1.357516515e+00,7.29270e-05,8.01565e-05,9.09807e-01,9.99999e-01
1.364304097e+00,1.77491e-03,1.94723e-03,9.11507e-01,9.99999e-01
1.371125618e+00,3.56320e-02,3.90198e-02,9.13177e-01,9.99999e-01
1.377981246e+00,6.26298e-02,6.84615e-02,9.14817e-01,9.99999e-01
1.384871152e+00,1.92393e-01,2.09938e-01,9.16427e-01,9.99999e-01
1.391795508e+00,2.16627e-01,2.35975e-01,9.18008e-01,9.99999e-01
1.398754485e+00,3.76575e-01,4.09516e-01,9.19561e-01,9.99999e-01
1.405748258e+00,4.77396e-01,5.18297e-01,9.21085e-01,9.99999e-01
1.412776999e+00,6.08677e-01,6.59753e-01,9.22582e-01,9.99999e-01
1.419840884e+00,5.51484e-01,5.96810e-01,9.24051e-01,9.99999e-01
1.426940089e+00,4.48960e-02,4.85102e-02,9.25494e-01,9.99999e-01
1.434074789e+00,0.00000e+00,0.00000e+00,9.26911e-01,9.99999e-01
1.441245163e+00,0.00000e+00,0.00000e+00,9.28301e-01,9.99999e-01
1.448451389e+00,0.00000e+00,0.00000e+00,9.29667e-01,9.99999e-01
1.455693646e+00,0.00000e+00,0.00000e+00,9.31007e-01,9.99999e-01
1.462972114e+00,8.01816e-192,8.60020e-192,9.32322e-01,9.99999e-01
1.470286975e+00,2.96487e-80,3.17569e-80,9.33614e-01,9.99999e-01
1.477638409e+00,7.58852e-51,8.11709e-51,9.34881e-01,9.99999e-01
1.485026601e+00,8.67425e-29,9.26610e-29,9.36126e-01,9.99999e-01
1.492451734e+00,1.55306e-24,1.65687e-24,9.37347e-01,9.99999e-01
1.499913993e+00,2.62090e-11,2.79251e-11,9.38545e-01,9.99999e-01
1.507413563e+00,4.50152e-10,4.79026e-10,9.39722e-01,9.99999e-01
1.514950631e+00,1.76985e-11,1.88106e-11,9.40877e-01,9.99999e-01
1.522525384e+00,1.84528e-36,1.95888e-36,9.42010e-01,9.99999e-01
1.530138011e+00,1.46431e-85,1.55261e-85,9.43122e-01,9.99999e-01
1.537788701e+00,1.41926e-63,1.50311e-63,9.44214e-01,9.99999e-01
1.545477645e+00,2.78977e-14,2.95124e-14,9.45285e-01,9.99999e-01
1.553205033e+00,3.64114e-10,3.84762e-10,9.46336e-01,9.99999e-01
1.560971058e+00,1.21775e-10,1.28540e-10,9.47368e-01,9.99999e-01
1.568775913e+00,3.20411e-215,3.37850e-215,9.48380e-01,9.99999e-01
1.576619793e+00,0.00000e+00,0.00000e+00,9.49373e-01,9.99999e-01
1.584502892e+00,4.03643e-275,4.24731e-275,9.50348e-01,9.99999e-01
1.592425406e+00,6.82657e-192,7.17600e-192,9.51304e-01,9.99999e-01
1.600387533e+00,5.91424e-309,6.21085e-309,9.52243e-01,9.99999e-01
1.608389471e+00,0.00000e+00,0.00000e+00,9.53164e-01,9.99999e-01
1.616431418e+00,0.00000e+00,0.00000e+00,9.54067e-01,9.99999e-01
1.624513575e+00,1.29200e-243,1.35295e-243,9.54954e-01,9.99999e-01
1.632636143e+00,4.45259e-181,4.65838e-181,9.55824e-01,9.99999e-01
1.640799324e+00,1.97481e-74,2.06424e-74,9.56677e-01,9.99999e-01
1.649003321e+00,1.98723e-74,2.07540e-74,9.57514e-01,9.99999e-01
1.657248337e+00,9.43847e-58,9.84880e-58,9.58336e-01,9.99999e-01
1.665534579e+00,3.95585e-58,4.12436e-58,9.59142e-01,9.99999e-01
1.673862252e+00,1.91532e-37,1.99527e-37,9.59932e-01,9.99999e-01
1.682231563e+00,3.05149e-26,3.17629e-26,9.60708e-01,9.99999e-01
1.690642721e+00,4.58008e-15,4.76363e-15,9.61469e-01,9.99999e-01
1.699095934e+00,8.94264e-10,9.29380e-10,9.62215e-01,9.99999e-01
1.707591414e+00,1.67901e-05,1.74361e-05,9.62948e-01,9.99999e-01
1.716129371e+00,1.98545e-03,2.06030e-03,9.63666e-01,9.99999e-01
1.724710018e+00,3.10155e-02,3.21613e-02,9.64371e-01,9.99999e-01
1.733333568e+00,1.03542e-01,1.07291e-01,9.65062e-01,9.99999e-01
1.742000236e+00,2.57004e-01,2.66121e-01,9.65740e-01,9.99999e-01
1.750710237e+00,5.11729e-03,5.29518e-03,9.66405e-01,9.99999e-01
1.759463788e+00,9.94452e-36,1.02833e-35,9.67058e-01,9.99999e-01
1.768261107e+00,1.94590e-37,2.01086e-37,9.67698e-01,9.99999e-01
1.777102413e+00,3.36716e-36,3.47730e-36,9.68326e-01,9.99999e-01
1.785987925e+00,3.13518e-34,3.23567e-34,9.68942e-01,9.99999e-01
1.794917864e+00,1.15633e-32,1.19265e-32,9.69546e-01,9.99999e-01
1.803892454e+00,1.59157e-31,1.64055e-31,9.70138e-01,9.99999e-01
1.812911916e+00,3.05459e-30,3.14672e-30,9.70719e-01,9.99999e-01
1.821976476e+00,2.32090e-30,2.38950e-30,9.71289e-01,9.99999e-01
1.831086358e+00,1.37676e-24,1.41664e-24,9.71848e-01,9.99999e-01
1.840241790e+00,5.90189e-21,6.06942e-21,9.72397e-01,9.99999e-01
1.849442999e+00,1.19036e-14,1.22348e-14,9.72934e-01,9.99999e-01
1.858690214e+00,1.22761e-13,1.26107e-13,9.73462e-01,9.99999e-01
1.867983665e+00,2.36816e-14,2.43143e-14,9.73979e-01,9.99999e-01
1.877323583e+00,1.72442e-67,1.76957e-67,9.74486e-01,9.99999e-01
