#,Wave/freq,Total,CO2,Rayleigh,CIA
4.000000000e-01,7.32877e-03,9.99999e-01,7.32877e-03,9.99999e-01
4.020000000e-01,8.07691e-03,9.99999e-01,8.07691e-03,9.99999e-01
4.040100000e-01,8.88346e-03,9.99999e-01,8.88346e-03,9.99999e-01
4.060300500e-01,9.75221e-03,9.99999e-01,9.75221e-03,9.99999e-01
4.080602003e-01,1.06862e-02,9.99999e-01,1.06862e-02,9.99999e-01
4.101005013e-01,1.16885e-02,9.99999e-01,1.16885e-02,9.99999e-01
4.121510038e-01,1.27622e-02,9.99999e-01,1.27622e-02,9.99999e-01
4.142117588e-01,1.39103e-02,9.99999e-01,1.39103e-02,9.99999e-01
4.162828176e-01,1.51360e-02,9.99999e-01,1.51360e-02,9.99999e-01
4.183642317e-01,1.64422e-02,9.99999e-01,1.64422e-02,9.99999e-01
4.204560528e-01,1.78320e-02,9.99999e-01,1.78320e-02,9.99999e-01
4.225583331e-01,1.93083e-02,9.99999e-01,1.93083e-02,9.99999e-01
4.246711247e-01,2.08739e-02,9.99999e-01,2.08739e-02,9.99999e-01
4.267944804e-01,2.25318e-02,9.99999e-01,2.25318e-02,9.99999e-01
4.289284528e-01,2.42847e-02,9.99999e-01,2.42847e-02,9.99999e-01
4.310730950e-01,2.61352e-02,9.99999e-01,2.61352e-02,9.99999e-01
4.332284605e-01,2.80860e-02,9.99999e-01,2.80860e-02,9.99999e-01
4.353946028e-01,3.01395e-02,9.99999e-01,3.01395e-02,9.99999e-01
4.375715758e-01,3.22981e-02,9.99999e-01,3.22981e-02,9.99999e-01
4.397594337e-01,3.45640e-02,9.99999e-01,3.45640e-02,9.99999e-01
4.419582309e-01,3.69394e-02,9.99999e-01,3.69394e-02,9.99999e-01
4.441680220e-01,3.94263e-02,9.99999e-01,3.94263e-02,9.99999e-01
4.463888621e-01,4.20264e-02,9.99999e-01,4.20264e-02,9.99999e-01
4.486208064e-01,4.47416e-02,9.99999e-01,4.47416e-02,9.99999e-01
4.508639105e-01,4.75733e-02,9.99999e-01,4.75733e-02,9.99999e-01
4.531182300e-01,5.05229e-02,9.99999e-01,5.05229e-02,9.99999e-01
4.553838212e-01,5.35917e-02,9.99999e-01,5.35917e-02,9.99999e-01
4.576607403e-01,5.67807e-02,9.99999e-01,5.67807e-02,9.99999e-01
4.599490440e-01,6.00909e-02,9.99999e-01,6.00909e-02,9.99999e-01
4.622487892e-01,6.35229e-02,9.99999e-01,6.35229e-02,9.99999e-01
4.645600332e-01,6.70772e-02,9.99999e-01,6.70772e-02,9.99999e-01
4.668828333e-01,7.07544e-02,9.99999e-01,7.07544e-02,9.99999e-01
4.692172475e-01,7.45544e-02,9.99999e-01,7.45544e-02,9.99999e-01
4.715633337e-01,7.84775e-02,9.99999e-01,7.84775e-02,9.99999e-01
4.739211504e-01,8.25233e-02,9.99999e-01,8.25233e-02,9.99999e-01
4.762907561e-01,8.66915e-02,9.99999e-01,8.66915e-02,9.99999e-01
4.786722099e-01,9.09818e-02,9.99999e-01,9.09818e-02,9.99999e-01
4.810655710e-01,9.53932e-02,9.99999e-01,9.53932e-02,9.99999e-01
4.834708988e-01,9.99251e-02,9.99999e-01,9.99251e-02,9.99999e-01
4.858882533e-01,1.04576e-01,9.99999e-01,1.04576e-01,9.99999e-01
4.883176946e-01,1.09346e-01,9.99999e-01,1.09346e-01,9.99999e-01
4.907592831e-01,1.14232e-01,9.99999e-01,1.14232e-01,9.99999e-01
4.932130795e-01,1.19234e-01,9.99999e-01,1.19234e-01,9.99999e-01
4.956791449e-01,1.24349e-01,9.99999e-01,1.24349e-01,9.99999e-01
4.981575406e-01,1.29576e-01,9.99999e-01,1.29576e-01,9.99999e-01
5.006483283e-01,1.34913e-01,9.99999e-01,1.34913e-01,9.99999e-01
5.031515699e-01,1.40359e-01,9.99999e-01,1.40359e-01,9.99999e-01
5.056673278e-01,1.45909e-01,9.99999e-01,1.45909e-01,9.99999e-01
5.081956644e-01,1.51563e-01,9.99999e-01,1.51563e-01,9.99999e-01
5.107366428e-01,1.57318e-01,9.99999e-01,1.57318e-01,9.99999e-01
5.132903260e-01,1.63172e-01,9.99999e-01,1.63172e-01,9.99999e-01
5.158567776e-01,1.69121e-01,9.99999e-01,1.69121e-01,9.99999e-01
5.184360615e-01,1.75163e-01,9.99999e-01,1.75163e-01,9.99999e-01
5.210282418e-01,1.81295e-01,9.99999e-01,1.81295e-01,9.99999e-01
5.236333830e-01,1.87515e-01,9.99999e-01,1.87515e-01,9.99999e-01
5.262515499e-01,1.93818e-01,9.99999e-01,1.93818e-01,9.99999e-01
5.288828077e-01,2.00203e-01,9.99999e-01,2.00203e-01,9.99999e-01
5.315272217e-01,2.06665e-01,9.99999e-01,2.06665e-01,9.99999e-01
5.341848578e-01,2.13203e-01,9.99999e-01,2.13203e-01,9.99999e-01
5.368557821e-01,2.19812e-01,9.99999e-01,2.19812e-01,9.99999e-01
5.395400610e-01,2.26489e-01,9.99999e-01,2.26489e-01,9.99999e-01
5.422377613e-01,2.33231e-01,9.99999e-01,2.33231e-01,9.99999e-01
5.449489501e-01,2.40035e-01,9.99999e-01,2.40035e-01,9.99999e-01
5.476736949e-01,2.46897e-01,9.99999e-01,2.46897e-01,9.99999e-01
5.504120634e-01,2.53814e-01,9.99999e-01,2.53814e-01,9.99999e-01
5.531641237e-01,2.60782e-01,9.99999e-01,2.60782e-01,9.99999e-01
5.559299443e-01,2.67798e-01,9.99999e-01,2.67798e-01,9.99999e-01
5.587095940e-01,2.74859e-01,9.99999e-01,2.74859e-01,9.99999e-01
5.615031420e-01,2.81960e-01,9.99999e-01,2.81960e-01,9.99999e-01
5.643106577e-01,2.89100e-01,9.99999e-01,2.89100e-01,9.99999e-01
5.671322110e-01,2.96274e-01,9.99999e-01,2.96274e-01,9.99999e-01
5.699678720e-01,3.03479e-01,9.99999e-01,3.03479e-01,9.99999e-01
5.728177114e-01,3.10712e-01,9.99999e-01,3.10712e-01,9.99999e-01
5.756818000e-01,3.17970e-01,9.99999e-01,3.17970e-01,9.99999e-01
5.785602090e-01,3.25248e-01,9.99999e-01,3.25248e-01,9.99999e-01
5.814530100e-01,3.32544e-01,9.99999e-01,3.32544e-01,9.99999e-01
5.843602750e-01,3.39856e-01,9.99999e-01,3.39856e-01,9.99999e-01
5.872820764e-01,3.47178e-01,9.99999e-01,3.47178e-01,9.99999e-01
5.902184868e-01,3.54509e-01,9.99999e-01,3.54509e-01,9.99999e-01
5.931695792e-01,3.61846e-01,9.99999e-01,3.61846e-01,9.99999e-01
5.961354271e-01,3.69185e-01,9.99999e-01,3.69185e-01,9.99999e-01
5.991161043e-01,3.76523e-01,9.99999e-01,3.76523e-01,9.99999e-01
6.021116848e-01,3.83858e-01,9.99999e-01,3.83858e-01,9.99999e-01
6.051222432e-01,3.91187e-01,9.99999e-01,3.91187e-01,9.99999e-01
6.081478544e-01,3.98507e-01,9.99999e-01,3.98507e-01,9.99999e-01
6.111885937e-01,4.05815e-01,9.99999e-01,4.05815e-01,9.99999e-01
6.142445367e-01,4.13109e-01,9.99999e-01,4.13109e-01,9.99999e-01
6.173157594e-01,4.20386e-01,9.99999e-01,4.20386e-01,9.99999e-01
6.204023382e-01,4.27644e-01,9.99999e-01,4.27644e-01,9.99999e-01
6.235043498e-01,4.34880e-01,9.99999e-01,4.34880e-01,9.99999e-01
6.266218716e-01,4.42092e-01,9.99999e-01,4.42092e-01,9.99999e-01
6.297549810e-01,4.49277e-01,9.99999e-01,4.49277e-01,9.99999e-01
6.329037559e-01,4.56434e-01,9.99999e-01,4.56434e-01,9.99999e-01
6.360682746e-01,4.63560e-01,9.99999e-01,4.63560e-01,9.99999e-01
6.392486160e-01,4.70654e-01,9.99999e-01,4.70654e-01,9.99999e-01
6.424448591e-01,4.77712e-01,9.99999e-01,4.77712e-01,9.99999e-01
6.456570834e-01,4.84734e-01,9.99999e-01,4.84734e-01,9.99999e-01
6.488853688e-01,4.91718e-01,9.99999e-01,4.91718e-01,9.99999e-01
6.521297956e-01,4.98661e-01,9.99999e-01,4.98661e-01,9.99999e-01
6.553904446e-01,5.05562e-01,9.99999e-01,5.05562e-01,9.99999e-01
6.586673968e-01,5.12419e-01,9.99999e-01,5.12419e-01,9.99999e-01
6.619607338e-01,5.19232e-01,9.99999e-01,5.19232e-01,9.99999e-01
6.652705375e-01,5.25997e-01,9.99999e-01,5.25997e-01,9.99999e-01
6.685968902e-01,5.32715e-01,9.99999e-01,5.32715e-01,9.99999e-01
6.719398746e-01,5.39383e-01,9.99999e-01,5.39383e-01,9.99999e-01
6.752995740e-01,5.46000e-01,9.99999e-01,5.46000e-01,9.99999e-01
6.786760719e-01,5.52566e-01,9.99999e-01,5.52566e-01,9.99999e-01
6.820694522e-01,5.59078e-01,9.99999e-01,5.59078e-01,9.99999e-01
6.854797995e-01,5.65536e-01,9.99999e-01,5.65536e-01,9.99999e-01
6.889071985e-01,5.71939e-01,9.99999e-01,5.71939e-01,9.99999e-01
6.923517345e-01,5.78286e-01,9.99999e-01,5.78286e-01,9.99999e-01
6.958134932e-01,5.84576e-01,9.99999e-01,5.84576e-01,9.99999e-01
6.992925606e-01,5.90808e-01,9.99999e-01,5.90808e-01,9.99999e-01
7.027890234e-01,5.96982e-01,9.99999e-01,5.96982e-01,9.99999e-01
7.063029686e-01,6.03096e-01,9.99999e-01,6.03096e-01,9.99999e-01
7.098344834e-01,6.09150e-01,9.99999e-01,6.09150e-01,9.99999e-01
7.133836558e-01,6.15144e-01,9.99999e-01,6.15144e-01,9.99999e-01
7.169505741e-01,6.21076e-01,9.99999e-01,6.21076e-01,9.99999e-01
7.205353270e-01,6.26947e-01,9.99999e-01,6.26947e-01,9.99999e-01
7.241380036e-01,6.32755e-01,9.99999e-01,6.32755e-01,9.99999e-01
7.277586936e-01,6.38502e-01,9.99999e-01,6.38502e-01,9.99999e-01
7.313974871e-01,6.44185e-01,9.99999e-01,6.44185e-01,9.99999e-01
7.350544745e-01,6.49805e-01,9.99999e-01,6.49805e-01,9.99999e-01
7.387297469e-01,6.55362e-01,9.99999e-01,6.55362e-01,9.99999e-01
7.424233956e-01,6.60855e-01,9.99999e-01,6.60855e-01,9.99999e-01
7.461355126e-01,6.66284e-01,9.99999e-01,6.66284e-01,9.99999e-01
7.498661902e-01,6.71649e-01,9.99999e-01,6.71649e-01,9.99999e-01
7.536155211e-01,6.76950e-01,9.99999e-01,6.76950e-01,9.99999e-01
7.573835987e-01,6.82187e-01,9.99999e-01,6.82187e-01,9.99999e-01
7.611705167e-01,6.87360e-01,9.99999e-01,6.87360e-01,9.99999e-01
7.649763693e-01,6.92469e-01,9.99999e-01,6.92469e-01,9.99999e-01
7.688012511e-01,6.97514e-01,9.99999e-01,6.97514e-01,9.99999e-01
7.726452574e-01,7.02495e-01,9.99999e-01,7.02495e-01,9.99999e-01
7.765084837e-01,7.07412e-01,9.99999e-01,7.07412e-01,9.99999e-01
7.803910261e-01,7.00138e-01,9.82972e-01,7.12265e-01,9.99999e-01
7.842929812e-01,6.66649e-01,9.29703e-01,7.17055e-01,9.99999e-01
7.882144461e-01,6.67351e-01,9.24589e-01,7.21781e-01,9.99999e-01
7.921555184e-01,6.94480e-01,9.55997e-01,7.26444e-01,9.99999e-01
7.961162960e-01,7.09437e-01,9.70442e-01,7.31045e-01,9.99999e-01
8.000968774e-01,7.23721e-01,9.83874e-01,7.35583e-01,9.99999e-01
8.040973618e-01,7.33860e-01,9.91624e-01,7.40058e-01,9.99999e-01
8.081178486e-01,7.41603e-01,9.96145e-01,7.44471e-01,9.99999e-01
8.121584379e-01,7.47932e-01,9.98809e-01,7.48823e-01,9.99999e-01
8.162192301e-01,7.52916e-01,9.99736e-01,7.53114e-01,9.99999e-01
8.203003262e-01,7.57341e-01,9.99995e-01,7.57344e-01,9.99999e-01
8.244018279e-01,7.61513e-01,9.99999e-01,7.61513e-01,9.99999e-01
8.285238370e-01,7.65622e-01,9.99999e-01,7.65622e-01,9.99999e-01
8.326664562e-01,7.69671e-01,9.99999e-01,7.69671e-01,9.99999e-01
8.368297885e-01,7.73662e-01,9.99999e-01,7.73662e-01,9.99999e-01
8.410139374e-01,7.77593e-01,9.99999e-01,7.77593e-01,9.99999e-01
8.452190071e-01,7.81467e-01,9.99999e-01,7.81467e-01,9.99999e-01
8.494451021e-01,7.85282e-01,9.99999e-01,7.85282e-01,9.99999e-01
8.536923276e-01,7.89040e-01,9.99999e-01,7.89040e-01,9.99999e-01
8.579607893e-01,7.92742e-01,9.99999e-01,7.92742e-01,9.99999e-01
8.622505932e-01,7.96387e-01,9.99999e-01,7.96387e-01,9.99999e-01
8.665618462e-01,7.63784e-01,9.54757e-01,7.99976e-01,9.99999e-01
8.708946554e-01,6.65676e-01,8.28459e-01,8.03511e-01,9.99999e-01
8.752491287e-01,6.94907e-01,8.61108e-01,8.06990e-01,9.99999e-01
8.796253743e-01,7.47188e-01,9.21980e-01,8.10416e-01,9.99999e-01
8.840235012e-01,7.80394e-01,9.58964e-01,8.13788e-01,9.99999e-01
8.884436187e-01,8.03757e-01,9.83662e-01,8.17107e-01,9.99999e-01
8.928858368e-01,8.14922e-01,9.93354e-01,8.20373e-01,9.99999e-01
8.973502660e-01,8.22257e-01,9.98384e-01,8.23588e-01,9.99999e-01
9.018370173e-01,8.26604e-01,9.99821e-01,8.26751e-01,9.99999e-01
9.063462024e-01,8.26042e-01,9.95393e-01,8.29864e-01,9.99999e-01
9.108779334e-01,8.24204e-01,9.89527e-01,8.32926e-01,9.99999e-01
9.154323231e-01,8.33880e-01,9.97536e-01,8.35940e-01,9.99999e-01
9.200094847e-01,8.08186e-01,9.63382e-01,8.38904e-01,9.99999e-01
9.246095321e-01,7.99460e-01,9.49680e-01,8.41819e-01,9.99999e-01
9.292325798e-01,8.10982e-01,9.60096e-01,8.44687e-01,9.99999e-01
9.338787427e-01,8.14944e-01,9.61575e-01,8.47508e-01,9.99999e-01
9.385481364e-01,8.26207e-01,9.71684e-01,8.50283e-01,9.99999e-01
9.432408771e-01,8.38171e-01,9.82602e-01,8.53011e-01,9.99999e-01
9.479570815e-01,8.48025e-01,9.91037e-01,8.55694e-01,9.99999e-01
9.526968669e-01,8.54615e-01,9.95669e-01,8.58332e-01,9.99999e-01
9.574603512e-01,8.59331e-01,9.98146e-01,8.60926e-01,9.99999e-01
9.622476530e-01,8.62977e-01,9.99421e-01,8.63476e-01,9.99999e-01
9.670588912e-01,8.65833e-01,9.99826e-01,8.65983e-01,9.99999e-01
9.718941857e-01,8.68438e-01,9.99987e-01,8.68448e-01,9.99999e-01
9.767536566e-01,8.70871e-01,9.99999e-01,8.70871e-01,9.99999e-01
9.816374249e-01,8.73253e-01,9.99999e-01,8.73253e-01,9.99999e-01
9.865456120e-01,8.75593e-01,9.99999e-01,8.75593e-01,9.99999e-01
9.914783401e-01,8.77894e-01,9.99999e-01,8.77894e-01,9.99999e-01
9.964357318e-01,8.80155e-01,9.99999e-01,8.80155e-01,9.99999e-01
1.001417910e+00,8.82377e-01,9.99999e-01,8.82377e-01,9.99999e-01
1.006425000e+00,8.84561e-01,9.99999e-01,8.84561e-01,9.99999e-01
1.011457125e+00,8.86707e-01,9.99999e-01,8.86707e-01,9.99999e-01
1.016514411e+00,8.88815e-01,9.99999e-01,8.88815e-01,9.99999e-01
1.021596983e+00,8.90865e-01,9.99975e-01,8.90887e-01,9.99999e-01
1.026704968e+00,8.91323e-01,9.98208e-01,8.92922e-01,9.99999e-01
1.031838492e+00,8.71026e-01,9.73296e-01,8.94922e-01,9.99999e-01
1.036997685e+00,2.61331e-01,2.91375e-01,8.96887e-01,9.99999e-01
1.042182673e+00,3.12917e-01,3.48143e-01,8.98817e-01,9.99999e-01
1.047393587e+00,2.89638e-01,3.21565e-01,9.00713e-01,9.99999e-01
1.052630555e+00,4.49578e-02,4.98105e-02,9.02575e-01,9.99999e-01
1.057893707e+00,8.42576e-02,9.31636e-02,9.04404e-01,9.99999e-01
1.063183176e+00,1.62431e-01,1.79244e-01,9.06201e-01,9.99999e-01
1.068499092e+00,2.88378e-01,3.17609e-01,9.07966e-01,9.99999e-01
1.073841587e+00,4.41569e-01,4.85401e-01,9.09699e-01,9.99999e-01
1.079210795e+00,5.77776e-01,6.33942e-01,9.11401e-01,9.99999e-01
1.084606849e+00,7.12067e-01,7.79857e-01,9.13073e-01,9.99999e-01
1.090029883e+00,8.04238e-01,8.79222e-01,9.14714e-01,9.99999e-01
1.095480033e+00,8.60083e-01,9.38620e-01,9.16326e-01,9.99999e-01
1.100957433e+00,8.90360e-01,9.69986e-01,9.17909e-01,9.99999e-01
1.106462220e+00,9.07958e-01,9.87486e-01,9.19464e-01,9.99999e-01
1.111994531e+00,9.16703e-01,9.95345e-01,9.20990e-01,9.99999e-01
1.117554504e+00,9.21439e-01,9.98862e-01,9.22488e-01,9.99999e-01
1.123142276e+00,9.23891e-01,9.99924e-01,9.23960e-01,9.99999e-01
1.128757988e+00,9.25404e-01,9.99999e-01,9.25404e-01,9.99999e-01
1.134401778e+00,9.26822e-01,9.99999e-01,9.26822e-01,9.99999e-01
1.140073787e+00,9.28214e-01,9.99999e-01,9.28214e-01,9.99999e-01
1.145774156e+00,9.29581e-01,9.99999e-01,9.29581e-01,9.99999e-01
1.151503026e+00,9.30923e-01,9.99999e-01,9.30923e-01,9.99999e-01
1.157260541e+00,9.32240e-01,9.99999e-01,9.32240e-01,9.99999e-01
1.163046844e+00,9.33533e-01,9.99999e-01,9.33533e-01,9.99999e-01
1.168862078e+00,9.34802e-01,9.99999e-01,9.34802e-01,9.99999e-01
1.174706389e+00,9.36048e-01,9.99999e-01,9.36048e-01,9.99999e-01
1.180579921e+00,9.37271e-01,9.99999e-01,9.37271e-01,9.99999e-01
1.186482820e+00,9.38468e-01,9.99996e-01,9.38471e-01,9.99999e-01
1.192415234e+00,9.33596e-01,9.93557e-01,9.39649e-01,9.99999e-01
1.198377311e+00,5.51659e-01,5.86369e-01,9.40805e-01,9.99999e-01
1.204369197e+00,1.64359e-06,1.74489e-06,9.41939e-01,9.99999e-01
1.210391043e+00,1.45278e-20,1.54051e-20,9.43053e-01,9.99999e-01
1.216442998e+00,4.78923e-18,5.07255e-18,9.44146e-01,9.99999e-01
1.222525213e+00,8.75467e-18,9.26205e-18,9.45218e-01,9.99999e-01
1.228637839e+00,1.12342e-13,1.18721e-13,9.46270e-01,9.99999e-01
1.234781029e+00,1.63444e-09,1.72536e-09,9.47303e-01,9.99999e-01
1.240954934e+00,1.84025e-06,1.94054e-06,9.48317e-01,9.99999e-01
1.247159708e+00,5.95671e-04,6.27476e-04,9.49311e-01,9.99999e-01
1.253395507e+00,1.64066e-02,1.72649e-02,9.50287e-01,9.99999e-01
1.259662485e+00,9.51207e-02,9.99959e-02,9.51245e-01,9.99999e-01
1.265960797e+00,2.50656e-01,2.63243e-01,9.52184e-01,9.99999e-01
1.272290601e+00,5.51610e-01,5.78749e-01,9.53106e-01,9.99999e-01
1.278652054e+00,4.88919e-01,5.12487e-01,9.54011e-01,9.99999e-01
1.285045314e+00,3.03380e-02,3.17709e-02,9.54899e-01,9.99999e-01
1.291470541e+00,4.25070e-03,4.44741e-03,9.55769e-01,9.99999e-01
1.297927893e+00,4.58075e-02,4.78845e-02,9.56624e-01,9.99999e-01
1.304417533e+00,3.55727e-01,3.71531e-01,9.57462e-01,9.99999e-01
1.310939621e+00,1.01128e-01,1.05530e-01,9.58284e-01,9.99999e-01
1.317494319e+00,1.67974e-07,1.75139e-07,9.59091e-01,9.99999e-01
1.324081790e+00,1.45800e-05,1.51893e-05,9.59883e-01,9.99999e-01
1.330702199e+00,2.70640e-03,2.81723e-03,9.60660e-01,9.99999e-01
1.337355710e+00,1.92314e-03,2.00030e-03,9.61421e-01,9.99999e-01
1.344042489e+00,6.70284e-04,6.96638e-04,9.62169e-01,9.99999e-01
1.350762701e+00,2.10074e-03,2.18168e-03,9.62902e-01,9.99999e-01
1.357516515e+00,1.69775e-02,1.76184e-02,9.63621e-01,9.99999e-01
1.364304097e+00,7.84143e-02,8.13150e-02,9.64327e-01,9.99999e-01
1.371125618e+00,2.55887e-01,2.65162e-01,9.65019e-01,9.99999e-01
1.377981246e+00,3.34910e-01,3.46806e-01,9.65698e-01,9.99999e-01
1.384871152e+00,5.21669e-01,5.39826e-01,9.66364e-01,9.99999e-01
1.391795508e+00,5.47336e-01,5.66004e-01,9.67017e-01,9.99999e-01
1.398754485e+00,6.82076e-01,7.04872e-01,9.67658e-01,9.99999e-01
1.405748258e+00,7.47944e-01,7.72440e-01,9.68287e-01,9.99999e-01
1.412776999e+00,8.23401e-01,8.49827e-01,9.68903e-01,9.99999e-01
1.419840884e+00,7.63915e-01,7.87940e-01,9.69508e-01,9.99999e-01
1.426940089e+00,1.03277e-01,1.06460e-01,9.70101e-01,9.99999e-01
1.434074789e+00,7.93835e-289,8.17810e-289,9.70683e-01,9.99999e-01
1.441245163e+00,0.00000e+00,0.00000e+00,9.71254e-01,9.99999e-01
1.448451389e+00,0.00000e+00,0.00000e+00,9.71813e-01,9.99999e-01
1.455693646e+00,8.14974e-157,8.38138e-157,9.72362e-01,9.99999e-01
1.462972114e+00,1.36810e-76,1.40621e-76,9.72901e-01,9.99999e-01
1.470286975e+00,7.75854e-33,7.97031e-33,9.73429e-01,9.99999e-01
1.477638409e+00,2.79112e-21,2.86578e-21,9.73947e-01,9.99999e-01
1.485026601e+00,1.79015e-12,1.83707e-12,9.74455e-01,9.99999e-01
1.492451734e+00,1.25953e-10,1.29189e-10,9.74953e-01,9.99999e-01
1.499913993e+00,1.51234e-05,1.55041e-05,9.75441e-01,9.99999e-01
1.507413563e+00,1.84358e-04,1.88906e-04,9.75921e-01,9.99999e-01
1.514950631e+00,8.02512e-06,8.21917e-06,9.76391e-01,9.99999e-01
1.522525384e+00,1.16542e-15,1.19304e-15,9.76852e-01,9.99999e-01
1.530138011e+00,8.58758e-35,8.78700e-35,9.77303e-01,9.99999e-01
1.537788701e+00,3.49092e-26,3.57037e-26,9.77747e-01,9.99999e-01
1.545477645e+00,5.83457e-07,5.96471e-07,9.78181e-01,9.99999e-01
1.553205033e+00,1.46857e-04,1.50067e-04,9.78608e-01,9.99999e-01
1.560971058e+00,3.75021e-05,3.83055e-05,9.79026e-01,9.99999e-01
1.568775913e+00,9.14367e-86,9.33564e-86,9.79436e-01,9.99999e-01
1.576619793e+00,2.94836e-199,3.00902e-199,9.79838e-01,9.99999e-01
1.584502892e+00,2.96792e-109,3.02777e-109,9.80232e-01,9.99999e-01
1.592425406e+00,1.85431e-76,1.89096e-76,9.80619e-01,9.99999e-01
1.600387533e+00,1.60233e-122,1.63337e-122,9.80998e-01,9.99999e-01
1.608389471e+00,5.05990e-205,5.15595e-205,9.81370e-01,9.99999e-01
1.616431418e+00,2.62226e-206,2.67105e-206,9.81734e-01,9.99999e-01
1.624513575e+00,6.70681e-97,6.82910e-97,9.82092e-01,9.99999e-01
1.632636143e+00,2.38777e-72,2.43044e-72,9.82442e-01,9.99999e-01
1.640799324e+00,1.48406e-30,1.51006e-30,9.82786e-01,9.99999e-01
1.649003321e+00,1.77776e-30,1.80828e-30,9.83123e-01,9.99999e-01
1.657248337e+00,7.34510e-24,7.46867e-24,9.83454e-01,9.99999e-01
1.665534579e+00,5.00233e-24,5.08481e-24,9.83778e-01,9.99999e-01
1.673862252e+00,7.85983e-16,7.98685e-16,9.84096e-01,9.99999e-01
1.682231563e+00,2.03730e-11,2.06957e-11,9.84408e-01,9.99999e-01
1.690642721e+00,4.71751e-07,4.79074e-07,9.84713e-01,9.99999e-01
1.699095934e+00,1.27687e-04,1.29630e-04,9.85013e-01,9.99999e-01
1.707591414e+00,8.23626e-03,8.35907e-03,9.85307e-01,9.99999e-01
1.716129371e+00,7.32261e-02,7.42963e-02,9.85595e-01,9.99999e-01
1.724710018e+00,2.47242e-01,2.50784e-01,9.85877e-01,9.99999e-01
1.733333568e+00,4.06341e-01,4.12046e-01,9.86154e-01,9.99999e-01
1.742000236e+00,5.66366e-01,5.74159e-01,9.86426e-01,9.99999e-01
1.750710237e+00,4.18984e-02,4.24635e-02,9.86692e-01,9.99999e-01
1.759463788e+00,4.60603e-15,4.66691e-15,9.86953e-01,9.99999e-01
1.768261107e+00,4.84485e-16,4.90762e-16,9.87209e-01,9.99999e-01
1.777102413e+00,5.83551e-15,5.90961e-15,9.87460e-01,9.99999e-01
1.785987925e+00,1.32590e-14,1.34240e-14,9.87706e-01,9.99999e-01
1.794917864e+00,1.11943e-13,1.13308e-13,9.87948e-01,9.99999e-01
1.803892454e+00,1.09340e-13,1.10647e-13,9.88184e-01,9.99999e-01
1.812911916e+00,6.47728e-13,6.55318e-13,9.88416e-01,9.99999e-01
1.821976476e+00,3.78568e-13,3.82916e-13,9.88644e-01,9.99999e-01
1.831086358e+00,7.42427e-11,7.50785e-11,9.88867e-01,9.99999e-01
1.840241790e+00,3.63328e-09,3.67337e-09,9.89086e-01,9.99999e-01
1.849442999e+00,1.65793e-06,1.67586e-06,9.89300e-01,9.99999e-01
1.858690214e+00,7.40115e-06,7.47961e-06,9.89510e-01,9.99999e-01
1.867983665e+00,1.18341e-06,1.19571e-06,9.89716e-01,9.99999e-01
1.877323583e+00,1.08062e-27,1.09163e-27,9.89918e-01,9.99999e-01
