#,Wave/freq,Total,CO2,Rayleigh,CIA
4.000000000e-01,1.72093e-22,9.99999e-01,1.72093e-22,9.99999e-01
4.020000000e-01,4.63564e-22,9.99999e-01,4.63564e-22,9.99999e-01
4.040100000e-01,1.22323e-21,9.99999e-01,1.22323e-21,9.99999e-01
4.060300500e-01,3.16651e-21,9.99999e-01,3.16651e-21,9.99999e-01
4.080602003e-01,8.04442e-21,9.99999e-01,8.04442e-21,9.99999e-01
4.101005013e-01,2.00637e-20,9.99999e-01,2.00637e-20,9.99999e-01
4.121510038e-01,4.91459e-20,9.99999e-01,4.91459e-20,9.99999e-01
4.142117588e-01,1.18271e-19,9.99999e-01,1.18271e-19,9.99999e-01
4.162828176e-01,2.79728e-19,9.99999e-01,2.79728e-19,9.99999e-01
4.183642317e-01,6.50442e-19,9.99999e-01,6.50442e-19,9.99999e-01
4.204560528e-01,1.48745e-18,9.99999e-01,1.48745e-18,9.99999e-01
4.225583331e-01,3.34643e-18,9.99999e-01,3.34643e-18,9.99999e-01
4.246711247e-01,7.40908e-18,9.99999e-01,7.40908e-18,9.99999e-01
4.267944804e-01,1.61484e-17,9.99999e-01,1.61484e-17,9.99999e-01
4.289284528e-01,3.46585e-17,9.99999e-01,3.46585e-17,9.99999e-01
4.310730950e-01,7.32722e-17,9.99999e-01,7.32722e-17,9.99999e-01
4.332284605e-01,1.52632e-16,9.99999e-01,1.52632e-16,9.99999e-01
4.353946028e-01,3.13371e-16,9.99999e-01,3.13371e-16,9.99999e-01
4.375715758e-01,6.34308e-16,9.99999e-01,6.34308e-16,9.99999e-01
4.397594337e-01,1.26617e-15,9.99999e-01,1.26617e-15,9.99999e-01
4.419582309e-01,2.49319e-15,9.99999e-01,2.49319e-15,9.99999e-01
4.441680220e-01,4.84401e-15,9.99999e-01,4.84401e-15,9.99999e-01
4.463888621e-01,9.28876e-15,9.99999e-01,9.28876e-15,9.99999e-01
4.486208064e-01,1.75843e-14,9.99999e-01,1.75843e-14,9.99999e-01
4.508639105e-01,3.28714e-14,9.99999e-01,3.28714e-14,9.99999e-01
4.531182300e-01,6.06938e-14,9.99999e-01,6.06938e-14,9.99999e-01
4.553838212e-01,1.10716e-13,9.99999e-01,1.10716e-13,9.99999e-01
4.576607403e-01,1.99581e-13,9.99999e-01,1.99581e-13,9.99999e-01
4.599490440e-01,3.55609e-13,9.99999e-01,3.55609e-13,9.99999e-01
4.622487892e-01,6.26430e-13,9.99999e-01,6.26430e-13,9.99999e-01
4.645600332e-01,1.09123e-12,9.99999e-01,1.09123e-12,9.99999e-01
4.668828333e-01,1.88016e-12,9.99999e-01,1.88016e-12,9.99999e-01
4.692172475e-01,3.20486e-12,9.99999e-01,3.20486e-12,9.99999e-01
4.715633337e-01,5.40565e-12,9.99999e-01,5.40565e-12,9.99999e-01
4.739211504e-01,9.02406e-12,9.99999e-01,9.02406e-12,9.99999e-01
4.762907561e-01,1.49128e-11,9.99999e-01,1.49128e-11,9.99999e-01
4.786722099e-01,2.44011e-11,9.99999e-01,2.44011e-11,9.99999e-01
4.810655710e-01,3.95398e-11,9.99999e-01,3.95398e-11,9.99999e-01
4.834708988e-01,6.34627e-11,9.99999e-01,6.34627e-11,9.99999e-01
4.858882533e-01,1.00912e-10,9.99999e-01,1.00912e-10,9.99999e-01
4.883176946e-01,1.58998e-10,9.99999e-01,1.58998e-10,9.99999e-01
4.907592831e-01,2.48278e-10,9.99999e-01,2.48278e-10,9.99999e-01
4.932130795e-01,3.84292e-10,9.99999e-01,3.84292e-10,9.99999e-01
4.956791449e-01,5.89709e-10,9.99999e-01,5.89709e-10,9.99999e-01
4.981575406e-01,8.97306e-10,9.99999e-01,8.97306e-10,9.99999e-01
5.006483283e-01,1.35407e-09,9.99999e-01,1.35407e-09,9.99999e-01
5.031515699e-01,2.02682e-09,9.99999e-01,2.02682e-09,9.99999e-01
5.056673278e-01,3.00972e-09,9.99999e-01,3.00972e-09,9.99999e-01
5.081956644e-01,4.43452e-09,9.99999e-01,4.43452e-09,9.99999e-01
5.107366428e-01,6.48398e-09,9.99999e-01,6.48398e-09,9.99999e-01
5.132903260e-01,9.40976e-09,9.99999e-01,9.40976e-09,9.99999e-01
5.158567776e-01,1.35556e-08,9.99999e-01,1.35556e-08,9.99999e-01
5.184360615e-01,1.93879e-08,9.99999e-01,1.93879e-08,9.99999e-01
5.210282418e-01,2.75341e-08,9.99999e-01,2.75341e-08,9.99999e-01
5.236333830e-01,3.88331e-08,9.99999e-01,3.88331e-08,9.99999e-01
5.262515499e-01,5.43981e-08,9.99999e-01,5.43981e-08,9.99999e-01
5.288828077e-01,7.56961e-08,9.99999e-01,7.56961e-08,9.99999e-01
5.315272217e-01,1.04648e-07,9.99999e-01,1.04648e-07,9.99999e-01
5.341848578e-01,1.43750e-07,9.99999e-01,1.43750e-07,9.99999e-01
5.368557821e-01,1.96228e-07,9.99999e-01,1.96228e-07,9.99999e-01
5.395400610e-01,2.66223e-07,9.99999e-01,2.66223e-07,9.99999e-01
5.422377613e-01,3.59016e-07,9.99999e-01,3.59016e-07,9.99999e-01
5.449489501e-01,4.81300e-07,9.99999e-01,4.81300e-07,9.99999e-01
5.476736949e-01,6.41511e-07,9.99999e-01,6.41511e-07,9.99999e-01
5.504120634e-01,8.50212e-07,9.99999e-01,8.50212e-07,9.99999e-01
5.531641237e-01,1.12056e-06,9.99999e-01,1.12056e-06,9.99999e-01
5.559299443e-01,1.46883e-06,9.99999e-01,1.46883e-06,9.99999e-01
5.587095940e-01,1.91509e-06,9.99999e-01,1.91509e-06,9.99999e-01
5.615031420e-01,2.48388e-06,9.99999e-01,2.48388e-06,9.99999e-01
5.643106577e-01,3.20509e-06,9.99999e-01,3.20509e-06,9.99999e-01
5.671322110e-01,4.11494e-06,9.99999e-01,4.11494e-06,9.99999e-01
5.699678720e-01,5.25706e-06,9.99999e-01,5.25706e-06,9.99999e-01
5.728177114e-01,6.68377e-06,9.99999e-01,6.68377e-06,9.99999e-01
5.756818000e-01,8.45746e-06,9.99999e-01,8.45746e-06,9.99999e-01
5.785602090e-01,1.06522e-05,9.99999e-01,1.06522e-05,9.99999e-01
5.814530100e-01,1.33555e-05,9.99999e-01,1.33555e-05,9.99999e-01
5.843602750e-01,1.66702e-05,9.99999e-01,1.66702e-05,9.99999e-01
5.872820764e-01,2.07166e-05,9.99999e-01,2.07166e-05,9.99999e-01
5.902184868e-01,2.56350e-05,9.99999e-01,2.56350e-05,9.99999e-01
5.931695792e-01,3.15879e-05,9.99999e-01,3.15879e-05,9.99999e-01
5.961354271e-01,3.87629e-05,9.99999e-01,3.87629e-05,9.99999e-01
5.991161043e-01,4.73757e-05,9.99999e-01,4.73757e-05,9.99999e-01
6.021116848e-01,5.76732e-05,9.99999e-01,5.76732e-05,9.99999e-01
6.051222432e-01,6.99367e-05,9.99999e-01,6.99367e-05,9.99999e-01
6.081478544e-01,8.44856e-05,9.99999e-01,8.44856e-05,9.99999e-01
6.111885937e-01,1.01681e-04,9.99999e-01,1.01681e-04,9.99999e-01
6.142445367e-01,1.21929e-04,9.99999e-01,1.21929e-04,9.99999e-01
6.173157594e-01,1.45685e-04,9.99999e-01,1.45685e-04,9.99999e-01
6.204023382e-01,1.73459e-04,9.99999e-01,1.73459e-04,9.99999e-01
6.235043498e-01,2.05817e-04,9.99999e-01,2.05817e-04,9.99999e-01
6.266218716e-01,2.43388e-04,9.99999e-01,2.43388e-04,9.99999e-01
6.297549810e-01,2.86866e-04,9.99999e-01,2.86866e-04,9.99999e-01
6.329037559e-01,3.37015e-04,9.99999e-01,3.37015e-04,9.99999e-01
6.360682746e-01,3.94672e-04,9.99999e-01,3.94672e-04,9.99999e-01
6.392486160e-01,4.60754e-04,9.99999e-01,4.60754e-04,9.99999e-01
6.424448591e-01,5.36258e-04,9.99999e-01,5.36258e-04,9.99999e-01
6.456570834e-01,6.22267e-04,9.99999e-01,6.22267e-04,9.99999e-01
6.488853688e-01,7.19952e-04,9.99999e-01,7.19952e-04,9.99999e-01
6.521297956e-01,8.30577e-04,9.99999e-01,8.30577e-04,9.99999e-01
6.553904446e-01,9.55498e-04,9.99999e-01,9.55498e-04,9.99999e-01
6.586673968e-01,1.09617e-03,9.99999e-01,1.09617e-03,9.99999e-01
6.619607338e-01,1.25414e-03,9.99999e-01,1.25414e-03,9.99999e-01
6.652705375e-01,1.43107e-03,9.99999e-01,1.43107e-03,9.99999e-01
6.685968902e-01,1.62871e-03,9.99999e-01,1.62871e-03,9.99999e-01
6.719398746e-01,1.84892e-03,9.99999e-01,1.84892e-03,9.99999e-01
6.752995740e-01,2.09364e-03,9.99999e-01,2.09364e-03,9.99999e-01
6.786760719e-01,2.36495e-03,9.99999e-01,2.36495e-03,9.99999e-01
6.820694522e-01,2.66499e-03,9.99999e-01,2.66499e-03,9.99999e-01
6.854797995e-01,2.99602e-03,9.99999e-01,2.99602e-03,9.99999e-01
6.889071985e-01,3.36038e-03,9.99999e-01,3.36038e-03,9.99999e-01
6.923517345e-01,3.76053e-03,9.99999e-01,3.76053e-03,9.99999e-01
6.958134932e-01,4.19898e-03,9.99999e-01,4.19898e-03,9.99999e-01
6.992925606e-01,4.67835e-03,9.99999e-01,4.67835e-03,9.99999e-01
7.027890234e-01,5.20132e-03,9.99999e-01,5.20132e-03,9.99999e-01
7.063029686e-01,5.77067e-03,9.99999e-01,5.77067e-03,9.99999e-01
7.098344834e-01,6.38921e-03,9.99999e-01,6.38921e-03,9.99999e-01
7.133836558e-01,7.05985e-03,9.99999e-01,7.05985e-03,9.99999e-01
7.169505741e-01,7.78551e-03,9.99999e-01,7.78551e-03,9.99999e-01
7.205353270e-01,8.56918e-03,9.99999e-01,8.56918e-03,9.99999e-01
7.241380036e-01,9.41388e-03,9.99999e-01,9.41388e-03,9.99999e-01
7.277586936e-01,1.03227e-02,9.99999e-01,1.03227e-02,9.99999e-01
7.313974871e-01,1.12986e-02,9.99999e-01,1.12986e-02,9.99999e-01
7.350544745e-01,1.23447e-02,9.99999e-01,1.23447e-02,9.99999e-01
7.387297469e-01,1.34642e-02,9.99999e-01,1.34642e-02,9.99999e-01
7.424233956e-01,1.46600e-02,9.99999e-01,1.46600e-02,9.99999e-01
7.461355126e-01,1.59352e-02,9.99999e-01,1.59352e-02,9.99999e-01
7.498661902e-01,1.72928e-02,9.99999e-01,1.72928e-02,9.99999e-01
7.536155211e-01,1.87358e-02,9.99999e-01,1.87358e-02,9.99999e-01
7.573835987e-01,2.02670e-02,9.99999e-01,2.02670e-02,9.99999e-01
7.611705167e-01,2.18895e-02,9.99999e-01,2.18895e-02,9.99999e-01
7.649763693e-01,2.36059e-02,9.99999e-01,2.36059e-02,9.99999e-01
7.688012511e-01,2.54189e-02,9.99999e-01,2.54189e-02,9.99999e-01
7.726452574e-01,2.73312e-02,9.99999e-01,2.73312e-02,9.99999e-01
7.765084837e-01,2.93453e-02,9.99999e-01,2.93453e-02,9.99999e-01
7.803910261e-01,2.78139e-02,8.84002e-01,3.14636e-02,9.99999e-01
7.842929812e-01,1.72649e-02,5.12487e-01,3.36884e-02,9.99999e-01
7.882144461e-01,1.79560e-02,4.98476e-01,3.60219e-02,9.99999e-01
7.921555184e-01,2.47161e-02,6.42541e-01,3.84661e-02,9.99999e-01
7.961162960e-01,3.02917e-02,7.38409e-01,4.10229e-02,9.99999e-01
8.000968774e-01,3.70577e-02,8.48117e-01,4.36940e-02,9.99999e-01
8.040973618e-01,4.26572e-02,9.17730e-01,4.64812e-02,9.99999e-01
8.081178486e-01,4.74786e-02,9.61381e-01,4.93858e-02,9.99999e-01
8.121584379e-01,5.17722e-02,9.87848e-01,5.24090e-02,9.99999e-01
8.162192301e-01,5.54024e-02,9.97302e-01,5.55522e-02,9.99999e-01
8.203003262e-01,5.88136e-02,9.99956e-01,5.88161e-02,9.99999e-01
8.244018279e-01,6.22017e-02,9.99999e-01,6.22017e-02,9.99999e-01
8.285238370e-01,6.57094e-02,9.99999e-01,6.57094e-02,9.99999e-01
8.326664562e-01,6.93397e-02,9.99999e-01,6.93397e-02,9.99999e-01
8.368297885e-01,7.30930e-02,9.99999e-01,7.30930e-02,9.99999e-01
8.410139374e-01,7.69692e-02,9.99999e-01,7.69692e-02,9.99999e-01
8.452190071e-01,8.09683e-02,9.99999e-01,8.09683e-02,9.99999e-01
8.494451021e-01,8.50900e-02,9.99999e-01,8.50900e-02,9.99999e-01
8.536923276e-01,8.93338e-02,9.99999e-01,8.93338e-02,9.99999e-01
8.579607893e-01,9.36992e-02,9.99999e-01,9.36992e-02,9.99999e-01
8.622505932e-01,9.81853e-02,9.99999e-01,9.81853e-02,9.99999e-01
8.665618462e-01,8.70578e-02,8.46937e-01,1.02791e-01,9.99999e-01
8.708946554e-01,2.15548e-02,2.00480e-01,1.07516e-01,9.99999e-01
8.752491287e-01,2.83540e-02,2.52354e-01,1.12358e-01,9.99999e-01
8.796253743e-01,5.36486e-02,4.57300e-01,1.17316e-01,9.99999e-01
8.840235012e-01,8.05500e-02,6.58152e-01,1.22388e-01,9.99999e-01
8.884436187e-01,1.07916e-01,8.45917e-01,1.27573e-01,9.99999e-01
8.928858368e-01,1.24132e-01,9.34244e-01,1.32868e-01,9.99999e-01
8.973502660e-01,1.35997e-01,9.83538e-01,1.38273e-01,9.99999e-01
9.018370173e-01,1.43520e-01,9.98169e-01,1.43783e-01,9.99999e-01
9.063462024e-01,1.42891e-01,9.56442e-01,1.49398e-01,9.99999e-01
9.108779334e-01,1.39407e-01,8.98733e-01,1.55115e-01,9.99999e-01
9.154323231e-01,1.56920e-01,9.75073e-01,1.60932e-01,9.99999e-01
9.200094847e-01,1.25331e-01,7.51183e-01,1.66845e-01,9.99999e-01
9.246095321e-01,1.03113e-01,5.96541e-01,1.72852e-01,9.99999e-01
9.292325798e-01,1.21040e-01,6.76388e-01,1.78950e-01,9.99999e-01
9.338787427e-01,1.25693e-01,6.78920e-01,1.85136e-01,9.99999e-01
9.385481364e-01,1.43434e-01,7.49361e-01,1.91408e-01,9.99999e-01
9.432408771e-01,1.65387e-01,8.36290e-01,1.97762e-01,9.99999e-01
9.479570815e-01,1.86295e-01,9.12334e-01,2.04196e-01,9.99999e-01
9.526968669e-01,2.01591e-01,9.56746e-01,2.10705e-01,9.99999e-01
9.574603512e-01,2.13209e-01,9.81229e-01,2.17287e-01,9.99999e-01
9.622476530e-01,2.22618e-01,9.94100e-01,2.23939e-01,9.99999e-01
9.670588912e-01,2.30248e-01,9.98226e-01,2.30656e-01,9.99999e-01
9.718941857e-01,2.37407e-01,9.99872e-01,2.37437e-01,9.99999e-01
9.767536566e-01,2.44277e-01,9.99999e-01,2.44277e-01,9.99999e-01
9.816374249e-01,2.51174e-01,9.99999e-01,2.51174e-01,9.99999e-01
9.865456120e-01,2.58123e-01,9.99999e-01,2.58123e-01,9.99999e-01
9.914783401e-01,2.65121e-01,9.99999e-01,2.65121e-01,9.99999e-01
9.964357318e-01,2.72165e-01,9.99999e-01,2.72165e-01,9.99999e-01
1.001417910e+00,2.79252e-01,9.99999e-01,2.79252e-01,9.99999e-01
1.006425000e+00,2.86377e-01,9.99999e-01,2.86377e-01,9.99999e-01
1.011457125e+00,2.93539e-01,9.99999e-01,2.93539e-01,9.99999e-01
1.016514411e+00,3.00732e-01,9.99999e-01,3.00732e-01,9.99999e-01
1.021596983e+00,3.07885e-01,9.99770e-01,3.07955e-01,9.99999e-01
1.026704968e+00,3.09659e-01,9.82409e-01,3.15204e-01,9.99999e-01
1.031838492e+00,2.83186e-01,8.78164e-01,3.22474e-01,9.99999e-01
1.036997685e+00,9.87949e-03,2.99592e-02,3.29764e-01,9.99999e-01
1.042182673e+00,1.43342e-04,4.25259e-04,3.37070e-01,9.99999e-01
1.047393587e+00,4.27543e-04,1.24145e-03,3.44389e-01,9.99999e-01
1.052630555e+00,1.06409e-09,3.02540e-09,3.51717e-01,9.99999e-01
1.057893707e+00,3.92775e-09,1.09392e-08,3.59052e-01,9.99999e-01
1.063183176e+00,6.43722e-07,1.75693e-06,3.66390e-01,9.99999e-01
1.068499092e+00,1.30714e-05,3.49757e-05,3.73729e-01,9.99999e-01
1.073841587e+00,4.52394e-04,1.18718e-03,3.81066e-01,9.99999e-01
1.079210795e+00,5.88903e-03,1.51624e-02,3.88398e-01,9.99999e-01
1.084606849e+00,3.49901e-02,8.84209e-02,3.95721e-01,9.99999e-01
1.090029883e+00,1.12367e-01,2.78802e-01,4.03034e-01,9.99999e-01
1.095480033e+00,2.17563e-01,5.30208e-01,4.10334e-01,9.99999e-01
1.100957433e+00,3.06719e-01,7.34448e-01,4.17618e-01,9.99999e-01
1.106462220e+00,3.73787e-01,8.79740e-01,4.24883e-01,9.99999e-01
1.111994531e+00,4.12037e-01,9.53507e-01,4.32128e-01,9.99999e-01
1.117554504e+00,4.34258e-01,9.88412e-01,4.39349e-01,9.99999e-01
1.123142276e+00,4.46202e-01,9.99232e-01,4.46545e-01,9.99999e-01
1.128757988e+00,4.53713e-01,9.99999e-01,4.53713e-01,9.99999e-01
1.134401778e+00,4.60851e-01,9.99999e-01,4.60851e-01,9.99999e-01
1.140073787e+00,4.67957e-01,9.99999e-01,4.67957e-01,9.99999e-01
1.145774156e+00,4.75029e-01,9.99999e-01,4.75029e-01,9.99999e-01
1.151503026e+00,4.82065e-01,9.99999e-01,4.82065e-01,9.99999e-01
1.157260541e+00,4.89063e-01,9.99999e-01,4.89063e-01,9.99999e-01
1.163046844e+00,4.96022e-01,9.99999e-01,4.96022e-01,9.99999e-01
1.168862078e+00,5.02939e-01,9.99999e-01,5.02939e-01,9.99999e-01
1.174706389e+00,5.09813e-01,9.99999e-01,5.09813e-01,9.99999e-01
1.180579921e+00,5.16643e-01,9.99999e-01,5.16643e-01,9.99999e-01
1.186482820e+00,5.23413e-01,9.99972e-01,5.23427e-01,9.99999e-01
1.192415234e+00,4.99516e-01,9.42194e-01,5.30163e-01,9.99999e-01
1.198377311e+00,2.61995e-01,4.88022e-01,5.36850e-01,9.99999e-01
1.204369197e+00,1.07366e-45,1.97551e-45,5.43486e-01,9.99999e-01
1.210391043e+00,6.60206e-189,1.20022e-188,5.50072e-01,9.99999e-01
1.216442998e+00,2.67779e-163,4.81093e-163,5.56605e-01,9.99999e-01
1.222525213e+00,7.91505e-161,1.40566e-160,5.63084e-01,9.99999e-01
1.228637839e+00,8.49967e-124,1.49246e-123,5.69508e-01,9.99999e-01
1.234781029e+00,1.60524e-76,2.78748e-76,5.75876e-01,9.99999e-01
1.240954934e+00,2.01312e-50,3.45784e-50,5.82188e-01,9.99999e-01
1.247159708e+00,1.37084e-23,2.32961e-23,5.88442e-01,9.99999e-01
1.253395507e+00,4.33343e-16,7.28750e-16,5.94638e-01,9.99999e-01
1.259662485e+00,2.73419e-09,4.55110e-09,6.00775e-01,9.99999e-01
1.265960797e+00,1.99997e-05,3.29565e-05,6.06852e-01,9.99999e-01
1.272290601e+00,2.80414e-03,4.57543e-03,6.12869e-01,9.99999e-01
1.278652054e+00,4.12785e-03,6.67046e-03,6.18824e-01,9.99999e-01
1.285045314e+00,4.80005e-07,7.68354e-07,6.24719e-01,9.99999e-01
1.291470541e+00,1.70684e-21,2.70689e-21,6.30551e-01,9.99999e-01
1.297927893e+00,1.10618e-08,1.73839e-08,6.36321e-01,9.99999e-01
1.304417533e+00,5.42856e-05,8.45532e-05,6.42028e-01,9.99999e-01
1.310939621e+00,1.67793e-05,2.59071e-05,6.47672e-01,9.99999e-01
1.317494319e+00,2.03832e-63,3.12026e-63,6.53253e-01,9.99999e-01
1.324081790e+00,3.51680e-41,5.33843e-41,6.58770e-01,9.99999e-01
1.330702199e+00,1.69664e-24,2.55432e-24,6.64224e-01,9.99999e-01
1.337355710e+00,4.26781e-22,6.37353e-22,6.69614e-01,9.99999e-01
1.344042489e+00,2.79289e-22,4.13798e-22,6.74939e-01,9.99999e-01
1.350762701e+00,7.47175e-25,1.09846e-24,6.80201e-01,9.99999e-01
1.357516515e+00,1.24666e-14,1.81889e-14,6.85398e-01,9.99999e-01
1.364304097e+00,6.71046e-11,9.71781e-11,6.90531e-01,9.99999e-01
1.371125618e+00,5.72856e-06,8.23541e-06,6.95601e-01,9.99999e-01
1.377981246e+00,2.55040e-05,3.64028e-05,7.00606e-01,9.99999e-01
1.384871152e+00,1.73765e-03,2.46284e-03,7.05547e-01,9.99999e-01
1.391795508e+00,2.93241e-03,4.12769e-03,7.10425e-01,9.99999e-01
1.398754485e+00,2.08518e-02,2.91535e-02,7.15238e-01,9.99999e-01
1.405748258e+00,5.59684e-02,7.77350e-02,7.19989e-01,9.99999e-01
1.412776999e+00,1.40998e-01,1.94567e-01,7.24676e-01,9.99999e-01
1.419840884e+00,1.46180e-01,2.00438e-01,7.29300e-01,9.99999e-01
1.426940089e+00,3.90054e-03,5.31507e-03,7.33862e-01,9.99999e-01
1.434074789e+00,0.00000e+00,0.00000e+00,7.38361e-01,9.99999e-01
1.441245163e+00,0.00000e+00,0.00000e+00,7.42798e-01,9.99999e-01
1.448451389e+00,0.00000e+00,0.00000e+00,7.47174e-01,9.99999e-01
1.455693646e+00,0.00000e+00,0.00000e+00,7.51487e-01,9.99999e-01
1.462972114e+00,0.00000e+00,0.00000e+00,7.55740e-01,9.99999e-01
1.470286975e+00,5.50151e-314,7.23946e-314,7.59932e-01,9.99999e-01
1.477638409e+00,1.83300e-196,2.39901e-196,7.64064e-01,9.99999e-01
1.485026601e+00,2.27312e-108,2.95926e-108,7.68137e-01,9.99999e-01
1.492451734e+00,4.08254e-92,5.28724e-92,7.72149e-01,9.99999e-01
1.499913993e+00,1.22196e-38,1.57448e-38,7.76103e-01,9.99999e-01
1.507413563e+00,2.49605e-37,3.20007e-37,7.79999e-01,9.99999e-01
1.514950631e+00,3.91711e-39,4.99736e-39,7.83836e-01,9.99999e-01
1.522525384e+00,5.67135e-139,7.20065e-139,7.87616e-01,9.99999e-01
1.530138011e+00,0.00000e+00,0.00000e+00,7.91339e-01,9.99999e-01
1.537788701e+00,2.32050e-247,2.91885e-247,7.95006e-01,9.99999e-01
1.545477645e+00,2.47093e-50,3.09401e-50,7.98616e-01,9.99999e-01
1.553205033e+00,6.66695e-37,8.31112e-37,8.02171e-01,9.99999e-01
1.560971058e+00,6.97205e-37,8.65370e-37,8.05672e-01,9.99999e-01
1.568775913e+00,0.00000e+00,0.00000e+00,8.09118e-01,9.99999e-01
1.576619793e+00,0.00000e+00,0.00000e+00,8.12510e-01,9.99999e-01
1.584502892e+00,0.00000e+00,0.00000e+00,8.15849e-01,9.99999e-01
1.592425406e+00,0.00000e+00,0.00000e+00,8.19135e-01,9.99999e-01
1.600387533e+00,0.00000e+00,0.00000e+00,8.22370e-01,9.99999e-01
1.608389471e+00,0.00000e+00,0.00000e+00,8.25553e-01,9.99999e-01
1.616431418e+00,0.00000e+00,0.00000e+00,8.28685e-01,9.99999e-01
1.624513575e+00,0.00000e+00,0.00000e+00,8.31766e-01,9.99999e-01
1.632636143e+00,0.00000e+00,0.00000e+00,8.34798e-01,9.99999e-01
1.640799324e+00,1.02065e-290,1.21828e-290,8.37781e-01,9.99999e-01
1.649003321e+00,1.02327e-290,1.21714e-290,8.40715e-01,9.99999e-01
1.657248337e+00,4.15425e-224,4.92443e-224,8.43601e-01,9.99999e-01
1.665534579e+00,1.27154e-225,1.50222e-225,8.46440e-01,9.99999e-01
1.673862252e+00,5.56731e-143,6.55569e-143,8.49232e-01,9.99999e-01
1.682231563e+00,2.96895e-98,3.48477e-98,8.51977e-01,9.99999e-01
1.690642721e+00,1.67750e-53,1.96273e-53,8.54678e-01,9.99999e-01
1.699095934e+00,1.33290e-33,1.55470e-33,8.57333e-01,9.99999e-01
1.707591414e+00,2.58160e-16,3.00205e-16,8.59943e-01,9.99999e-01
1.716129371e+00,5.84724e-10,6.77933e-10,8.62510e-01,9.99999e-01
1.724710018e+00,4.03903e-06,4.66921e-06,8.65034e-01,9.99999e-01
1.733333568e+00,1.95673e-04,2.25556e-04,8.67515e-01,9.99999e-01
1.742000236e+00,6.48887e-03,7.45887e-03,8.69953e-01,9.99999e-01
1.750710237e+00,2.56529e-06,2.94066e-06,8.72351e-01,9.99999e-01
1.759463788e+00,1.93953e-136,2.21735e-136,8.74707e-01,9.99999e-01
1.768261107e+00,7.09920e-143,8.09465e-143,8.77023e-01,9.99999e-01
1.777102413e+00,2.31111e-139,2.62835e-139,8.79299e-01,9.99999e-01
1.785987925e+00,3.78211e-130,4.29036e-130,8.81536e-01,9.99999e-01
1.794917864e+00,3.45476e-124,3.90927e-124,8.83734e-01,9.99999e-01
1.803892454e+00,3.04031e-119,3.43191e-119,8.85894e-01,9.99999e-01
1.812911916e+00,1.61574e-114,1.81949e-114,8.88017e-01,9.99999e-01
1.821976476e+00,1.30049e-114,1.46105e-114,8.90102e-01,9.99999e-01
1.831086358e+00,1.54868e-91,1.73589e-91,8.92152e-01,9.99999e-01
1.840241790e+00,9.81657e-78,1.09785e-77,8.94165e-01,9.99999e-01
1.849442999e+00,9.53734e-54,1.06426e-53,8.96143e-01,9.99999e-01
1.858690214e+00,1.05757e-50,1.17758e-50,8.98086e-01,9.99999e-01
1.867983665e+00,3.39185e-51,3.76873e-51,8.99995e-01,9.99999e-01
1.877323583e+00,5.12665e-263,5.68446e-263,9.01870e-01,9.99999e-01
