#,Wave/freq,Total,CO2,Rayleigh,CIA
4.000000000e-01,2.05831e-06,9.99999e-01,2.05831e-06,9.99999e-01
4.020000000e-01,2.66656e-06,9.99999e-01,2.66656e-06,9.99999e-01
4.040100000e-01,3.43600e-06,9.99999e-01,3.43600e-06,9.99999e-01
4.060300500e-01,4.40534e-06,9.99999e-01,4.40534e-06,9.99999e-01
4.080602003e-01,5.62049e-06,9.99999e-01,5.62049e-06,9.99999e-01
4.101005013e-01,7.13641e-06,9.99999e-01,7.13641e-06,9.99999e-01
4.121510038e-01,9.01854e-06,9.99999e-01,9.01854e-06,9.99999e-01
4.142117588e-01,1.13445e-05,9.99999e-01,1.13445e-05,9.99999e-01
4.162828176e-01,1.42058e-05,9.99999e-01,1.42058e-05,9.99999e-01
4.183642317e-01,1.77099e-05,9.99999e-01,1.77099e-05,9.99999e-01
4.204560528e-01,2.19824e-05,9.99999e-01,2.19824e-05,9.99999e-01
4.225583331e-01,2.71694e-05,9.99999e-01,2.71694e-05,9.99999e-01
4.246711247e-01,3.34402e-05,9.99999e-01,3.34402e-05,9.99999e-01
4.267944804e-01,4.09898e-05,9.99999e-01,4.09898e-05,9.99999e-01
4.289284528e-01,5.00422e-05,9.99999e-01,5.00422e-05,9.99999e-01
4.310730950e-01,6.08534e-05,9.99999e-01,6.08534e-05,9.99999e-01
4.332284605e-01,7.37150e-05,9.99999e-01,7.37150e-05,9.99999e-01
4.353946028e-01,8.89573e-05,9.99999e-01,8.89573e-05,9.99999e-01
4.375715758e-01,1.06954e-04,9.99999e-01,1.06954e-04,9.99999e-01
4.397594337e-01,1.28123e-04,9.99999e-01,1.28123e-04,9.99999e-01
4.419582309e-01,1.52937e-04,9.99999e-01,1.52937e-04,9.99999e-01
4.441680220e-01,1.81919e-04,9.99999e-01,1.81919e-04,9.99999e-01
4.463888621e-01,2.15653e-04,9.99999e-01,2.15653e-04,9.99999e-01
4.486208064e-01,2.54784e-04,9.99999e-01,2.54784e-04,9.99999e-01
4.508639105e-01,3.00026e-04,9.99999e-01,3.00026e-04,9.99999e-01
4.531182300e-01,3.52163e-04,9.99999e-01,3.52163e-04,9.99999e-01
4.553838212e-01,4.12054e-04,9.99999e-01,4.12054e-04,9.99999e-01
4.576607403e-01,4.80637e-04,9.99999e-01,4.80637e-04,9.99999e-01
4.599490440e-01,5.58933e-04,9.99999e-01,5.58933e-04,9.99999e-01
4.622487892e-01,6.48048e-04,9.99999e-01,6.48048e-04,9.99999e-01
4.645600332e-01,7.49180e-04,9.99999e-01,7.49180e-04,9.99999e-01
4.668828333e-01,8.63616e-04,9.99999e-01,8.63616e-04,9.99999e-01
4.692172475e-01,9.92741e-04,9.99999e-01,9.92741e-04,9.99999e-01
4.715633337e-01,1.13804e-03,9.99999e-01,1.13804e-03,9.99999e-01
4.739211504e-01,1.30108e-03,9.99999e-01,1.30108e-03,9.99999e-01
4.762907561e-01,1.48356e-03,9.99999e-01,1.48356e-03,9.99999e-01
4.786722099e-01,1.68724e-03,9.99999e-01,1.68724e-03,9.99999e-01
4.810655710e-01,1.91402e-03,9.99999e-01,1.91402e-03,9.99999e-01
4.834708988e-01,2.16589e-03,9.99999e-01,2.16589e-03,9.99999e-01
4.858882533e-01,2.44491e-03,9.99999e-01,2.44491e-03,9.99999e-01
4.883176946e-01,2.75329e-03,9.99999e-01,2.75329e-03,9.99999e-01
4.907592831e-01,3.09329e-03,9.99999e-01,3.09329e-03,9.99999e-01
4.932130795e-01,3.46730e-03,9.99999e-01,3.46730e-03,9.99999e-01
4.956791449e-01,3.87778e-03,9.99999e-01,3.87778e-03,9.99999e-01
4.981575406e-01,4.32727e-03,9.99999e-01,4.32727e-03,9.99999e-01
5.006483283e-01,4.81842e-03,9.99999e-01,4.81842e-03,9.99999e-01
5.031515699e-01,5.35394e-03,9.99999e-01,5.35394e-03,9.99999e-01
5.056673278e-01,5.93660e-03,9.99999e-01,5.93660e-03,9.99999e-01
5.081956644e-01,6.56925e-03,9.99999e-01,6.56925e-03,9.99999e-01
5.107366428e-01,7.25479e-03,9.99999e-01,7.25479e-03,9.99999e-01
5.132903260e-01,7.99619e-03,9.99999e-01,7.99619e-03,9.99999e-01
5.158567776e-01,8.79643e-03,9.99999e-01,8.79643e-03,9.99999e-01
5.184360615e-01,9.65854e-03,9.99999e-01,9.65854e-03,9.99999e-01
5.210282418e-01,1.05856e-02,9.99999e-01,1.05856e-02,9.99999e-01
5.236333830e-01,1.15806e-02,9.99999e-01,1.15806e-02,9.99999e-01
5.262515499e-01,1.26467e-02,9.99999e-01,1.26467e-02,9.99999e-01
5.288828077e-01,1.37869e-02,9.99999e-01,1.37869e-02,9.99999e-01
5.315272217e-01,1.50044e-02,9.99999e-01,1.50044e-02,9.99999e-01
5.341848578e-01,1.63020e-02,9.99999e-01,1.63020e-02,9.99999e-01
5.368557821e-01,1.76830e-02,9.99999e-01,1.76830e-02,9.99999e-01
5.395400610e-01,1.91501e-02,9.99999e-01,1.91501e-02,9.99999e-01
5.422377613e-01,2.07062e-02,9.99999e-01,2.07062e-02,9.99999e-01
5.449489501e-01,2.23544e-02,9.99999e-01,2.23544e-02,9.99999e-01
5.476736949e-01,2.40972e-02,9.99999e-01,2.40972e-02,9.99999e-01
5.504120634e-01,2.59374e-02,9.99999e-01,2.59374e-02,9.99999e-01
5.531641237e-01,2.78776e-02,9.99999e-01,2.78776e-02,9.99999e-01
5.559299443e-01,2.99203e-02,9.99999e-01,2.99203e-02,9.99999e-01
5.587095940e-01,3.20678e-02,9.99999e-01,3.20678e-02,9.99999e-01
5.615031420e-01,3.43224e-02,9.99999e-01,3.43224e-02,9.99999e-01
5.643106577e-01,3.66863e-02,9.99999e-01,3.66863e-02,9.99999e-01
5.671322110e-01,3.91614e-02,9.99999e-01,3.91614e-02,9.99999e-01
5.699678720e-01,4.17497e-02,9.99999e-01,4.17497e-02,9.99999e-01
5.728177114e-01,4.44527e-02,9.99999e-01,4.44527e-02,9.99999e-01
5.756818000e-01,4.72722e-02,9.99999e-01,4.72722e-02,9.99999e-01
5.785602090e-01,5.02095e-02,9.99999e-01,5.02095e-02,9.99999e-01
5.814530100e-01,5.32658e-02,9.99999e-01,5.32658e-02,9.99999e-01
5.843602750e-01,5.64422e-02,9.99999e-01,5.64422e-02,9.99999e-01
5.872820764e-01,5.97397e-02,9.99999e-01,5.97397e-02,9.99999e-01
5.902184868e-01,6.31590e-02,9.99999e-01,6.31590e-02,9.99999e-01
5.931695792e-01,6.67005e-02,9.99999e-01,6.67005e-02,9.99999e-01
5.961354271e-01,7.03648e-02,9.99999e-01,7.03648e-02,9.99999e-01
5.991161043e-01,7.41521e-02,9.99999e-01,7.41521e-02,9.99999e-01
6.021116848e-01,7.80623e-02,9.99999e-01,7.80623e-02,9.99999e-01
6.051222432e-01,8.20953e-02,9.99999e-01,8.20953e-02,9.99999e-01
6.081478544e-01,8.62508e-02,9.99999e-01,8.62508e-02,9.99999e-01
6.111885937e-01,9.05283e-02,9.99999e-01,9.05283e-02,9.99999e-01
6.142445367e-01,9.49272e-02,9.99999e-01,9.49272e-02,9.99999e-01
6.173157594e-01,9.94465e-02,9.99999e-01,9.94465e-02,9.99999e-01
6.204023382e-01,1.04085e-01,9.99999e-01,1.04085e-01,9.99999e-01
6.235043498e-01,1.08843e-01,9.99999e-01,1.08843e-01,9.99999e-01
6.266218716e-01,1.13717e-01,9.99999e-01,1.13717e-01,9.99999e-01
6.297549810e-01,1.18706e-01,9.99999e-01,1.18706e-01,9.99999e-01
6.329037559e-01,1.23810e-01,9.99999e-01,1.23810e-01,9.99999e-01
6.360682746e-01,1.29026e-01,9.99999e-01,1.29026e-01,9.99999e-01
6.392486160e-01,1.34351e-01,9.99999e-01,1.34351e-01,9.99999e-01
6.424448591e-01,1.39785e-01,9.99999e-01,1.39785e-01,9.99999e-01
6.456570834e-01,1.45325e-01,9.99999e-01,1.45325e-01,9.99999e-01
6.488853688e-01,1.50969e-01,9.99999e-01,1.50969e-01,9.99999e-01
6.521297956e-01,1.56713e-01,9.99999e-01,1.56713e-01,9.99999e-01
6.553904446e-01,1.62556e-01,9.99999e-01,1.62556e-01,9.99999e-01
6.586673968e-01,1.68496e-01,9.99999e-01,1.68496e-01,9.99999e-01
6.619607338e-01,1.74528e-01,9.99999e-01,1.74528e-01,9.99999e-01
6.652705375e-01,1.80651e-01,9.99999e-01,1.80651e-01,9.99999e-01
6.685968902e-01,1.86862e-01,9.99999e-01,1.86862e-01,9.99999e-01
6.719398746e-01,1.93156e-01,9.99999e-01,1.93156e-01,9.99999e-01
6.752995740e-01,1.99533e-01,9.99999e-01,1.99533e-01,9.99999e-01
6.786760719e-01,2.05987e-01,9.99999e-01,2.05987e-01,9.99999e-01
6.820694522e-01,2.12517e-01,9.99999e-01,2.12517e-01,9.99999e-01
6.854797995e-01,2.19119e-01,9.99999e-01,2.19119e-01,9.99999e-01
6.889071985e-01,2.25789e-01,9.99999e-01,2.25789e-01,9.99999e-01
6.923517345e-01,2.32525e-01,9.99999e-01,2.32525e-01,9.99999e-01
6.958134932e-01,2.39322e-01,9.99999e-01,2.39322e-01,9.99999e-01
6.992925606e-01,2.46178e-01,9.99999e-01,2.46178e-01,9.99999e-01
7.027890234e-01,2.53089e-01,9.99999e-01,2.53089e-01,9.99999e-01
7.063029686e-01,2.60052e-01,9.99999e-01,2.60052e-01,9.99999e-01
7.098344834e-01,2.67063e-01,9.99999e-01,2.67063e-01,9.99999e-01
7.133836558e-01,2.74120e-01,9.99999e-01,2.74120e-01,9.99999e-01
7.169505741e-01,2.81217e-01,9.99999e-01,2.81217e-01,9.99999e-01
7.205353270e-01,2.88353e-01,9.99999e-01,2.88353e-01,9.99999e-01
7.241380036e-01,2.95524e-01,9.99999e-01,2.95524e-01,9.99999e-01
7.277586936e-01,3.02726e-01,9.99999e-01,3.02726e-01,9.99999e-01
7.313974871e-01,3.09956e-01,9.99999e-01,3.09956e-01,9.99999e-01
7.350544745e-01,3.17211e-01,9.99999e-01,3.17211e-01,9.99999e-01
7.387297469e-01,3.24488e-01,9.99999e-01,3.24488e-01,9.99999e-01
7.424233956e-01,3.31782e-01,9.99999e-01,3.31782e-01,9.99999e-01
7.461355126e-01,3.39092e-01,9.99999e-01,3.39092e-01,9.99999e-01
7.498661902e-01,3.46414e-01,9.99999e-01,3.46414e-01,9.99999e-01
7.536155211e-01,3.53744e-01,9.99999e-01,3.53744e-01,9.99999e-01
7.573835987e-01,3.61080e-01,9.99999e-01,3.61080e-01,9.99999e-01
7.611705167e-01,3.68419e-01,9.99999e-01,3.68419e-01,9.99999e-01
7.649763693e-01,3.75758e-01,9.99999e-01,3.75758e-01,9.99999e-01
7.688012511e-01,3.83093e-01,9.99999e-01,3.83093e-01,9.99999e-01
7.726452574e-01,3.90423e-01,9.99999e-01,3.90423e-01,9.99999e-01
7.765084837e-01,3.97744e-01,9.99999e-01,3.97744e-01,9.99999e-01
7.803910261e-01,3.88929e-01,9.60193e-01,4.05053e-01,9.99999e-01
7.842929812e-01,3.40846e-01,8.26596e-01,4.12349e-01,9.99999e-01
7.882144461e-01,3.42784e-01,8.16875e-01,4.19628e-01,9.99999e-01
7.921555184e-01,3.79079e-01,8.88005e-01,4.26888e-01,9.99999e-01
7.961162960e-01,4.00663e-01,9.22918e-01,4.34126e-01,9.99999e-01
8.000968774e-01,4.22589e-01,9.57511e-01,4.41340e-01,9.99999e-01
8.040973618e-01,4.38512e-01,9.77667e-01,4.48529e-01,9.99999e-01
8.081178486e-01,4.51009e-01,9.89729e-01,4.55689e-01,9.99999e-01
8.121584379e-01,4.61333e-01,9.96790e-01,4.62818e-01,9.99999e-01
8.162192301e-01,4.69582e-01,9.99290e-01,4.69915e-01,9.99999e-01
8.203003262e-01,4.76972e-01,9.99987e-01,4.76977e-01,9.99999e-01
8.244018279e-01,4.84003e-01,9.99999e-01,4.84003e-01,9.99999e-01
8.285238370e-01,4.90991e-01,9.99999e-01,4.90991e-01,9.99999e-01
8.326664562e-01,4.97938e-01,9.99999e-01,4.97938e-01,9.99999e-01
8.368297885e-01,5.04844e-01,9.99999e-01,5.04844e-01,9.99999e-01
8.410139374e-01,5.11706e-01,9.99999e-01,5.11706e-01,9.99999e-01
8.452190071e-01,5.18523e-01,9.99999e-01,5.18523e-01,9.99999e-01
8.494451021e-01,5.25293e-01,9.99999e-01,5.25293e-01,9.99999e-01
8.536923276e-01,5.32016e-01,9.99999e-01,5.32016e-01,9.99999e-01
8.579607893e-01,5.38689e-01,9.99999e-01,5.38689e-01,9.99999e-01
8.622505932e-01,5.45312e-01,9.99999e-01,5.45312e-01,9.99999e-01
8.665618462e-01,5.06387e-01,9.17562e-01,5.51883e-01,9.99999e-01
8.708946554e-01,3.46097e-01,6.19800e-01,5.58401e-01,9.99999e-01
8.752491287e-01,3.82817e-01,6.77715e-01,5.64865e-01,9.99999e-01
8.796253743e-01,4.60775e-01,8.06574e-01,5.71274e-01,9.99999e-01
8.840235012e-01,5.16590e-01,8.94331e-01,5.77627e-01,9.99999e-01
8.884436187e-01,5.58658e-01,9.56732e-01,5.83922e-01,9.99999e-01
8.928858368e-01,5.79710e-01,9.82290e-01,5.90161e-01,9.99999e-01
8.973502660e-01,5.93742e-01,9.95642e-01,5.96340e-01,9.99999e-01
9.018370173e-01,6.02170e-01,9.99517e-01,6.02461e-01,9.99999e-01
9.063462024e-01,6.01295e-01,9.88124e-01,6.08521e-01,9.99999e-01
9.108779334e-01,5.97471e-01,9.72254e-01,6.14521e-01,9.99999e-01
9.154323231e-01,6.16338e-01,9.93355e-01,6.20460e-01,9.99999e-01
9.200094847e-01,5.70810e-01,9.11345e-01,6.26337e-01,9.99999e-01
9.246095321e-01,5.50954e-01,8.71553e-01,6.32152e-01,9.99999e-01
9.292325798e-01,5.73521e-01,8.99069e-01,6.37905e-01,9.99999e-01
9.338787427e-01,5.80020e-01,9.01218e-01,6.43595e-01,9.99999e-01
9.385481364e-01,6.01412e-01,9.26358e-01,6.49221e-01,9.99999e-01
9.432408771e-01,6.24710e-01,9.54069e-01,6.54785e-01,9.99999e-01
9.479570815e-01,6.44593e-01,9.76235e-01,6.60284e-01,9.99999e-01
9.526968669e-01,6.58033e-01,9.88452e-01,6.65720e-01,9.99999e-01
9.574603512e-01,6.67766e-01,9.95043e-01,6.71092e-01,9.99999e-01
9.622476530e-01,6.75352e-01,9.98449e-01,6.76400e-01,9.99999e-01
9.670588912e-01,6.81327e-01,9.99534e-01,6.81644e-01,9.99999e-01
9.718941857e-01,6.86800e-01,9.99966e-01,6.86823e-01,9.99999e-01
9.767536566e-01,6.91939e-01,9.99999e-01,6.91939e-01,9.99999e-01
9.816374249e-01,6.96991e-01,9.99999e-01,6.96991e-01,9.99999e-01
9.865456120e-01,7.01978e-01,9.99999e-01,7.01978e-01,9.99999e-01
9.914783401e-01,7.06902e-01,9.99999e-01,7.06902e-01,9.99999e-01
9.964357318e-01,7.11762e-01,9.99999e-01,7.11762e-01,9.99999e-01
1.001417910e+00,7.16558e-01,9.99999e-01,7.16558e-01,9.99999e-01
1.006425000e+00,7.21291e-01,9.99999e-01,7.21291e-01,9.99999e-01
1.011457125e+00,7.25961e-01,9.99999e-01,7.25961e-01,9.99999e-01
1.016514411e+00,7.30568e-01,9.99999e-01,7.30568e-01,9.99999e-01
1.021596983e+00,7.35070e-01,9.99942e-01,7.35112e-01,9.99999e-01
1.026704968e+00,7.36164e-01,9.95362e-01,7.39594e-01,9.99999e-01
1.031838492e+00,7.07928e-01,9.51498e-01,7.44014e-01,9.99999e-01
1.036997685e+00,9.35881e-02,1.25055e-01,7.48372e-01,9.99999e-01
1.042182673e+00,5.41957e-02,7.20046e-02,7.52669e-01,9.99999e-01
1.047393587e+00,7.45422e-02,9.84829e-02,7.56905e-01,9.99999e-01
1.052630555e+00,9.48431e-04,1.24616e-03,7.61081e-01,9.99999e-01
1.057893707e+00,2.65741e-03,3.47285e-03,7.65196e-01,9.99999e-01
1.063183176e+00,1.15808e-02,1.50546e-02,7.69252e-01,9.99999e-01
1.068499092e+00,4.02262e-02,5.20223e-02,7.73248e-01,9.99999e-01
1.073841587e+00,1.18940e-01,1.53040e-01,7.77186e-01,9.99999e-01
1.079210795e+00,2.37904e-01,3.04589e-01,7.81065e-01,9.99999e-01
1.084606849e+00,4.06328e-01,5.17690e-01,7.84887e-01,9.99999e-01
1.090029883e+00,5.60240e-01,7.10377e-01,7.88651e-01,9.99999e-01
1.095480033e+00,6.69280e-01,8.44668e-01,7.92358e-01,9.99999e-01
1.100957433e+00,7.33803e-01,9.21852e-01,7.96009e-01,9.99999e-01
1.106462220e+00,7.73113e-01,9.66868e-01,7.99604e-01,9.99999e-01
1.111994531e+00,7.93177e-01,9.87589e-01,8.03144e-01,9.99999e-01
1.117554504e+00,8.04164e-01,9.96942e-01,8.06630e-01,9.99999e-01
1.123142276e+00,8.09897e-01,9.99797e-01,8.10061e-01,9.99999e-01
1.128757988e+00,8.13438e-01,9.99999e-01,8.13438e-01,9.99999e-01
1.134401778e+00,8.16763e-01,9.99999e-01,8.16763e-01,9.99999e-01
1.140073787e+00,8.20035e-01,9.99999e-01,8.20035e-01,9.99999e-01
1.145774156e+00,8.23255e-01,9.99999e-01,8.23255e-01,9.99999e-01
1.151503026e+00,8.26423e-01,9.99999e-01,8.26423e-01,9.99999e-01
1.157260541e+00,8.29541e-01,9.99999e-01,8.29541e-01,9.99999e-01
1.163046844e+00,8.32609e-01,9.99999e-01,8.32609e-01,9.99999e-01
1.168862078e+00,8.35627e-01,9.99999e-01,8.35627e-01,9.99999e-01
1.174706389e+00,8.38597e-01,9.99999e-01,8.38597e-01,9.99999e-01
1.180579921e+00,8.41517e-01,9.99999e-01,8.41517e-01,9.99999e-01
1.186482820e+00,8.44385e-01,9.99993e-01,8.44390e-01,9.99999e-01
1.192415234e+00,8.33412e-01,9.83706e-01,8.47216e-01,9.99999e-01
1.198377311e+00,4.72611e-01,5.56016e-01,8.49995e-01,9.99999e-01
1.204369197e+00,1.33368e-13,1.56401e-13,8.52728e-01,9.99999e-01
1.210391043e+00,5.09628e-51,5.95765e-51,8.55416e-01,9.99999e-01
1.216442998e+00,2.49947e-44,2.91293e-44,8.58059e-01,9.99999e-01
1.222525213e+00,1.10560e-43,1.28460e-43,8.60657e-01,9.99999e-01
1.228637839e+00,7.81386e-34,9.05207e-34,8.63212e-01,9.99999e-01
1.234781029e+00,1.17832e-21,1.36108e-21,8.65724e-01,9.99999e-01
1.240954934e+00,1.35764e-14,1.56375e-14,8.68193e-01,9.99999e-01
1.247159708e+00,8.14156e-08,9.35144e-08,8.70620e-01,9.99999e-01
1.253395507e+00,3.88977e-05,4.45560e-05,8.73006e-01,9.99999e-01
1.259662485e+00,1.84946e-03,2.11281e-03,8.75351e-01,9.99999e-01
1.265960797e+00,3.15587e-02,3.59579e-02,8.77656e-01,9.99999e-01
1.272290601e+00,1.89163e-01,2.14977e-01,8.79921e-01,9.99999e-01
1.278652054e+00,1.82946e-01,2.07387e-01,8.82147e-01,9.99999e-01
1.285045314e+00,3.24184e-03,3.66585e-03,8.84335e-01,9.99999e-01
1.291470541e+00,1.24181e-06,1.40083e-06,8.86485e-01,9.99999e-01
1.297927893e+00,1.54673e-03,1.74064e-03,8.88597e-01,9.99999e-01
1.304417533e+00,6.61009e-02,7.42145e-02,8.90673e-01,9.99999e-01
1.310939621e+00,1.62610e-02,1.82153e-02,8.92712e-01,9.99999e-01
1.317494319e+00,5.91965e-18,6.61623e-18,8.94715e-01,9.99999e-01
1.324081790e+00,2.95325e-12,3.29353e-12,8.96683e-01,9.99999e-01
1.330702199e+00,2.97354e-07,3.30902e-07,8.98617e-01,9.99999e-01
1.337355710e+00,5.42243e-07,6.02147e-07,9.00516e-01,9.99999e-01
1.344042489e+00,1.82851e-07,2.02631e-07,9.02382e-01,9.99999e-01
1.350762701e+00,1.70975e-07,1.89086e-07,9.04215e-01,9.99999e-01
1.357516515e+00,5.06946e-05,5.59533e-05,9.06015e-01,9.99999e-01
1.364304097e+00,1.35934e-03,1.49743e-03,9.07783e-01,9.99999e-01
1.371125618e+00,3.10966e-02,3.41901e-02,9.09520e-01,9.99999e-01
1.377981246e+00,5.55421e-02,6.09531e-02,9.11225e-01,9.99999e-01
1.384871152e+00,1.79146e-01,1.96238e-01,9.12900e-01,9.99999e-01
1.391795508e+00,2.02765e-01,2.21712e-01,9.14544e-01,9.99999e-01
1.398754485e+00,3.60796e-01,3.93813e-01,9.16160e-01,9.99999e-01
1.405748258e+00,4.62313e-01,5.03748e-01,9.17745e-01,9.99999e-01
1.412776999e+00,5.95641e-01,6.47926e-01,9.19303e-01,9.99999e-01
1.419840884e+00,5.38989e-01,5.85328e-01,9.20832e-01,9.99999e-01
1.426940089e+00,4.23787e-02,4.59473e-02,9.22333e-01,9.99999e-01
1.434074789e+00,0.00000e+00,0.00000e+00,9.23807e-01,9.99999e-01
1.441245163e+00,0.00000e+00,0.00000e+00,9.25255e-01,9.99999e-01
1.448451389e+00,0.00000e+00,0.00000e+00,9.26675e-01,9.99999e-01
1.455693646e+00,0.00000e+00,0.00000e+00,9.28070e-01,9.99999e-01
1.462972114e+00,3.32653e-200,3.57907e-200,9.29440e-01,9.99999e-01
1.470286975e+00,1.05429e-83,1.13269e-83,9.30784e-01,9.99999e-01
1.477638409e+00,5.38764e-53,5.78008e-53,9.32104e-01,9.99999e-01
1.485026601e+00,5.78783e-30,6.20080e-30,9.33399e-01,9.99999e-01
1.492451734e+00,1.54202e-25,1.64980e-25,9.34671e-01,9.99999e-01
1.499913993e+00,1.02859e-11,1.09902e-11,9.35919e-01,9.99999e-01
1.507413563e+00,1.76743e-10,1.88597e-10,9.37144e-01,9.99999e-01
1.514950631e+00,6.91487e-12,7.36920e-12,9.38346e-01,9.99999e-01
1.522525384e+00,5.66781e-38,6.03262e-38,9.39527e-01,9.99999e-01
1.530138011e+00,3.02176e-89,3.21229e-89,9.40685e-01,9.99999e-01
1.537788701e+00,2.75024e-66,2.92013e-66,9.41822e-01,9.99999e-01
1.545477645e+00,8.19582e-15,8.69179e-15,9.42937e-01,9.99999e-01
1.553205033e+00,1.44336e-10,1.52893e-10,9.44032e-01,9.99999e-01
1.560971058e+00,4.88404e-11,5.16771e-11,9.45107e-01,9.99999e-01
1.568775913e+00,1.22781e-224,1.29767e-224,9.46162e-01,9.99999e-01
1.576619793e+00,0.00000e+00,0.00000e+00,9.47196e-01,9.99999e-01
1.584502892e+00,3.47556e-287,3.66538e-287,9.48212e-01,9.99999e-01
1.592425406e+00,2.79500e-200,2.94455e-200,9.49208e-01,9.99999e-01
1.600387533e+00,1.63042e-322,1.72923e-322,9.50186e-01,9.99999e-01
1.608389471e+00,0.00000e+00,0.00000e+00,9.51146e-01,9.99999e-01
1.616431418e+00,0.00000e+00,0.00000e+00,9.52087e-01,9.99999e-01
1.624513575e+00,2.74942e-254,2.88498e-254,9.53011e-01,9.99999e-01
1.632636143e+00,5.51650e-189,5.78299e-189,9.53917e-01,9.99999e-01
1.640799324e+00,1.27055e-77,1.33068e-77,9.54807e-01,9.99999e-01
1.649003321e+00,1.27679e-77,1.33600e-77,9.55679e-01,9.99999e-01
1.657248337e+00,3.30095e-60,3.45094e-60,9.56535e-01,9.99999e-01
1.665534579e+00,1.32986e-60,1.38907e-60,9.57375e-01,9.99999e-01
1.673862252e+00,5.29602e-39,5.52705e-39,9.58199e-01,9.99999e-01
1.682231563e+00,2.62136e-27,2.73341e-27,9.59008e-01,9.99999e-01
1.690642721e+00,1.23817e-15,1.29003e-15,9.59801e-01,9.99999e-01
1.699095934e+00,3.90241e-10,4.06255e-10,9.60579e-01,9.99999e-01
1.707591414e+00,1.12427e-05,1.16948e-05,9.61343e-01,9.99999e-01
1.716129371e+00,1.55719e-03,1.61854e-03,9.62091e-01,9.99999e-01
1.724710018e+00,2.68578e-02,2.78947e-02,9.62826e-01,9.99999e-01
1.733333568e+00,9.39004e-02,9.74528e-02,9.63547e-01,9.99999e-01
1.742000236e+00,2.42825e-01,2.51827e-01,9.64254e-01,9.99999e-01
1.750710237e+00,4.46590e-03,4.62813e-03,9.64947e-01,9.99999e-01
1.759463788e+00,3.19218e-37,3.30581e-37,9.65628e-01,9.99999e-01
1.768261107e+00,5.41087e-39,5.59960e-39,9.66295e-01,9.99999e-01
1.777102413e+00,9.84435e-38,1.01808e-37,9.66950e-01,9.99999e-01
1.785987925e+00,1.19728e-35,1.23738e-35,9.67592e-01,9.99999e-01
1.794917864e+00,5.03746e-34,5.20280e-34,9.68222e-01,9.99999e-01
1.803892454e+00,8.07851e-33,8.33833e-33,9.68839e-01,9.99999e-01
1.812911916e+00,1.71379e-31,1.76780e-31,9.69445e-01,9.99999e-01
1.821976476e+00,1.32292e-31,1.36378e-31,9.70040e-01,9.99999e-01
1.831086358e+00,1.41304e-25,1.45581e-25,9.70623e-01,9.99999e-01
1.840241790e+00,8.44110e-22,8.69146e-22,9.71195e-01,9.99999e-01
1.849442999e+00,3.10130e-15,3.19144e-15,9.71755e-01,9.99999e-01
1.858690214e+00,3.39344e-14,3.49009e-14,9.72305e-01,9.99999e-01
1.867983665e+00,6.60628e-15,6.79068e-15,9.72845e-01,9.99999e-01
1.877323583e+00,2.24153e-70,2.30284e-70,9.73374e-01,9.99999e-01
