#,Wave/freq,Total,CO2,Rayleigh,CIA
4.000000000e-01,1.16498e-04,9.99999e-01,1.16498e-04,9.99999e-01
4.020000000e-01,1.39347e-04,9.99999e-01,1.39347e-04,9.99999e-01
4.040100000e-01,1.66058e-04,9.99999e-01,1.66058e-04,9.99999e-01
4.060300500e-01,1.97206e-04,9.99999e-01,1.97206e-04,9.99999e-01
4.080602003e-01,2.33402e-04,9.99999e-01,2.33402e-04,9.99999e-01
4.101005013e-01,2.75323e-04,9.99999e-01,2.75323e-04,9.99999e-01
4.121510038e-01,3.23717e-04,9.99999e-01,3.23717e-04,9.99999e-01
4.142117588e-01,3.79400e-04,9.99999e-01,3.79400e-04,9.99999e-01
4.162828176e-01,4.43271e-04,9.99999e-01,4.43271e-04,9.99999e-01
4.183642317e-01,5.16304e-04,9.99999e-01,5.16304e-04,9.99999e-01
4.204560528e-01,5.99562e-04,9.99999e-01,5.99562e-04,9.99999e-01
4.225583331e-01,6.94192e-04,9.99999e-01,6.94192e-04,9.99999e-01
4.246711247e-01,8.01435e-04,9.99999e-01,8.01435e-04,9.99999e-01
4.267944804e-01,9.22624e-04,9.99999e-01,9.22624e-04,9.99999e-01
4.289284528e-01,1.05919e-03,9.99999e-01,1.05919e-03,9.99999e-01
4.310730950e-01,1.21265e-03,9.99999e-01,1.21265e-03,9.99999e-01
4.332284605e-01,1.38465e-03,9.99999e-01,1.38465e-03,9.99999e-01
4.353946028e-01,1.57691e-03,9.99999e-01,1.57691e-03,9.99999e-01
4.375715758e-01,1.79125e-03,9.99999e-01,1.79125e-03,9.99999e-01
4.397594337e-01,2.02961e-03,9.99999e-01,2.02961e-03,9.99999e-01
4.419582309e-01,2.29403e-03,9.99999e-01,2.29403e-03,9.99999e-01
4.441680220e-01,2.58662e-03,9.99999e-01,2.58662e-03,9.99999e-01
4.463888621e-01,2.90963e-03,9.99999e-01,2.90963e-03,9.99999e-01
4.486208064e-01,3.26538e-03,9.99999e-01,3.26538e-03,9.99999e-01
4.508639105e-01,3.65628e-03,9.99999e-01,3.65628e-03,9.99999e-01
4.531182300e-01,4.08485e-03,9.99999e-01,4.08485e-03,9.99999e-01
4.553838212e-01,4.55366e-03,9.99999e-01,4.55366e-03,9.99999e-01
4.576607403e-01,5.06540e-03,9.99999e-01,5.06540e-03,9.99999e-01
4.599490440e-01,5.62281e-03,9.99999e-01,5.62281e-03,9.99999e-01
4.622487892e-01,6.22870e-03,9.99999e-01,6.22870e-03,9.99999e-01
4.645600332e-01,6.88595e-03,9.99999e-01,6.88595e-03,9.99999e-01
4.668828333e-01,7.59747e-03,9.99999e-01,7.59747e-03,9.99999e-01
4.692172475e-01,8.36626e-03,9.99999e-01,8.36626e-03,9.99999e-01
4.715633337e-01,9.19531e-03,9.99999e-01,9.19531e-03,9.99999e-01
4.739211504e-01,1.00877e-02,9.99999e-01,1.00877e-02,9.99999e-01
4.762907561e-01,1.10464e-02,9.99999e-01,1.10464e-02,9.99999e-01
4.786722099e-01,1.20746e-02,9.99999e-01,1.20746e-02,9.99999e-01
4.810655710e-01,1.31753e-02,9.99999e-01,1.31753e-02,9.99999e-01
4.834708988e-01,1.43516e-02,9.99999e-01,1.43516e-02,9.99999e-01
4.858882533e-01,1.56065e-02,9.99999e-01,1.56065e-02,9.99999e-01
4.883176946e-01,1.69431e-02,9.99999e-01,1.69431e-02,9.99999e-01
4.907592831e-01,1.83643e-02,9.99999e-01,1.83643e-02,9.99999e-01
4.932130795e-01,1.98730e-02,9.99999e-01,1.98730e-02,9.99999e-01
4.956791449e-01,2.14723e-02,9.99999e-01,2.14723e-02,9.99999e-01
4.981575406e-01,2.31647e-02,9.99999e-01,2.31647e-02,9.99999e-01
5.006483283e-01,2.49532e-02,9.99999e-01,2.49532e-02,9.99999e-01
5.031515699e-01,2.68403e-02,9.99999e-01,2.68403e-02,9.99999e-01
5.056673278e-01,2.88285e-02,9.99999e-01,2.88285e-02,9.99999e-01
5.081956644e-01,3.09204e-02,9.99999e-01,3.09204e-02,9.99999e-01
5.107366428e-01,3.31181e-02,9.99999e-01,3.31181e-02,9.99999e-01
5.132903260e-01,3.54241e-02,9.99999e-01,3.54241e-02,9.99999e-01
5.158567776e-01,3.78402e-02,9.99999e-01,3.78402e-02,9.99999e-01
5.184360615e-01,4.03685e-02,9.99999e-01,4.03685e-02,9.99999e-01
5.210282418e-01,4.30107e-02,9.99999e-01,4.30107e-02,9.99999e-01
5.236333830e-01,4.57685e-02,9.99999e-01,4.57685e-02,9.99999e-01
5.262515499e-01,4.86434e-02,9.99999e-01,4.86434e-02,9.99999e-01
5.288828077e-01,5.16367e-02,9.99999e-01,5.16367e-02,9.99999e-01
5.315272217e-01,5.47495e-02,9.99999e-01,5.47495e-02,9.99999e-01
5.341848578e-01,5.79830e-02,9.99999e-01,5.79830e-02,9.99999e-01
5.368557821e-01,6.13378e-02,9.99999e-01,6.13378e-02,9.99999e-01
5.395400610e-01,6.48147e-02,9.99999e-01,6.48147e-02,9.99999e-01
5.422377613e-01,6.84142e-02,9.99999e-01,6.84142e-02,9.99999e-01
5.449489501e-01,7.21365e-02,9.99999e-01,7.21365e-02,9.99999e-01
5.476736949e-01,7.59817e-02,9.99999e-01,7.59817e-02,9.99999e-01
5.504120634e-01,7.99499e-02,9.99999e-01,7.99499e-02,9.99999e-01
5.531641237e-01,8.40408e-02,9.99999e-01,8.40408e-02,9.99999e-01
5.559299443e-01,8.82539e-02,9.99999e-01,8.82539e-02,9.99999e-01
5.587095940e-01,9.25888e-02,9.99999e-01,9.25888e-02,9.99999e-01
5.615031420e-01,9.70446e-02,9.99999e-01,9.70446e-02,9.99999e-01
5.643106577e-01,1.01620e-01,9.99999e-01,1.01620e-01,9.99999e-01
5.671322110e-01,1.06315e-01,9.99999e-01,1.06315e-01,9.99999e-01
5.699678720e-01,1.11128e-01,9.99999e-01,1.11128e-01,9.99999e-01
5.728177114e-01,1.16057e-01,9.99999e-01,1.16057e-01,9.99999e-01
5.756818000e-01,1.21100e-01,9.99999e-01,1.21100e-01,9.99999e-01
5.785602090e-01,1.26257e-01,9.99999e-01,1.26257e-01,9.99999e-01
5.814530100e-01,1.31525e-01,9.99999e-01,1.31525e-01,9.99999e-01
5.843602750e-01,1.36902e-01,9.99999e-01,1.36902e-01,9.99999e-01
5.872820764e-01,1.42386e-01,9.99999e-01,1.42386e-01,9.99999e-01
5.902184868e-01,1.47975e-01,9.99999e-01,1.47975e-01,9.99999e-01
5.931695792e-01,1.53667e-01,9.99999e-01,1.53667e-01,9.99999e-01
5.961354271e-01,1.59458e-01,9.99999e-01,1.59458e-01,9.99999e-01
5.991161043e-01,1.65347e-01,9.99999e-01,1.65347e-01,9.99999e-01
6.021116848e-01,1.71331e-01,9.99999e-01,1.71331e-01,9.99999e-01
6.051222432e-01,1.77406e-01,9.99999e-01,1.77406e-01,9.99999e-01
6.081478544e-01,1.83571e-01,9.99999e-01,1.83571e-01,9.99999e-01
6.111885937e-01,1.89821e-01,9.99999e-01,1.89821e-01,9.99999e-01
6.142445367e-01,1.96155e-01,9.99999e-01,1.96155e-01,9.99999e-01
6.173157594e-01,2.02569e-01,9.99999e-01,2.02569e-01,9.99999e-01
6.204023382e-01,2.09059e-01,9.99999e-01,2.09059e-01,9.99999e-01
6.235043498e-01,2.15623e-01,9.99999e-01,2.15623e-01,9.99999e-01
6.266218716e-01,2.22258e-01,9.99999e-01,2.22258e-01,9.99999e-01
6.297549810e-01,2.28959e-01,9.99999e-01,2.28959e-01,9.99999e-01
6.329037559e-01,2.35724e-01,9.99999e-01,2.35724e-01,9.99999e-01
6.360682746e-01,2.42550e-01,9.99999e-01,2.42550e-01,9.99999e-01
6.392486160e-01,2.49432e-01,9.99999e-01,2.49432e-01,9.99999e-01
6.424448591e-01,2.56368e-01,9.99999e-01,2.56368e-01,9.99999e-01
6.456570834e-01,2.63354e-01,9.99999e-01,2.63354e-01,9.99999e-01
6.488853688e-01,2.70387e-01,9.99999e-01,2.70387e-01,9.99999e-01
6.521297956e-01,2.77464e-01,9.99999e-01,2.77464e-01,9.99999e-01
6.553904446e-01,2.84580e-01,9.99999e-01,2.84580e-01,9.99999e-01
6.586673968e-01,2.91733e-01,9.99999e-01,2.91733e-01,9.99999e-01
6.619607338e-01,2.98919e-01,9.99999e-01,2.98919e-01,9.99999e-01
6.652705375e-01,3.06134e-01,9.99999e-01,3.06134e-01,9.99999e-01
6.685968902e-01,3.13377e-01,9.99999e-01,3.13377e-01,9.99999e-01
6.719398746e-01,3.20642e-01,9.99999e-01,3.20642e-01,9.99999e-01
6.752995740e-01,3.27927e-01,9.99999e-01,3.27927e-01,9.99999e-01
6.786760719e-01,3.35230e-01,9.99999e-01,3.35230e-01,9.99999e-01
6.820694522e-01,3.42545e-01,9.99999e-01,3.42545e-01,9.99999e-01
6.854797995e-01,3.49871e-01,9.99999e-01,3.49871e-01,9.99999e-01
6.889071985e-01,3.57205e-01,9.99999e-01,3.57205e-01,9.99999e-01
6.923517345e-01,3.64543e-01,9.99999e-01,3.64543e-01,9.99999e-01
6.958134932e-01,3.71882e-01,9.99999e-01,3.71882e-01,9.99999e-01
6.992925606e-01,3.79219e-01,9.99999e-01,3.79219e-01,9.99999e-01
7.027890234e-01,3.86552e-01,9.99999e-01,3.86552e-01,9.99999e-01
7.063029686e-01,3.93878e-01,9.99999e-01,3.93878e-01,9.99999e-01
7.098344834e-01,4.01194e-01,9.99999e-01,4.01194e-01,9.99999e-01
7.133836558e-01,4.08497e-01,9.99999e-01,4.08497e-01,9.99999e-01
7.169505741e-01,4.15785e-01,9.99999e-01,4.15785e-01,9.99999e-01
7.205353270e-01,4.23056e-01,9.99999e-01,4.23056e-01,9.99999e-01
7.241380036e-01,4.30306e-01,9.99999e-01,4.30306e-01,9.99999e-01
7.277586936e-01,4.37533e-01,9.99999e-01,4.37533e-01,9.99999e-01
7.313974871e-01,4.44736e-01,9.99999e-01,4.44736e-01,9.99999e-01
7.350544745e-01,4.51911e-01,9.99999e-01,4.51911e-01,9.99999e-01
7.387297469e-01,4.59057e-01,9.99999e-01,4.59057e-01,9.99999e-01
7.424233956e-01,4.66171e-01,9.99999e-01,4.66171e-01,9.99999e-01
7.461355126e-01,4.73252e-01,9.99999e-01,4.73252e-01,9.99999e-01
7.498661902e-01,4.80297e-01,9.99999e-01,4.80297e-01,9.99999e-01
7.536155211e-01,4.87305e-01,9.99999e-01,4.87305e-01,9.99999e-01
7.573835987e-01,4.94274e-01,9.99999e-01,4.94274e-01,9.99999e-01
7.611705167e-01,5.01202e-01,9.99999e-01,5.01202e-01,9.99999e-01
7.649763693e-01,5.08087e-01,9.99999e-01,5.08087e-01,9.99999e-01
7.688012511e-01,5.14928e-01,9.99999e-01,5.14928e-01,9.99999e-01
7.726452574e-01,5.21723e-01,9.99999e-01,5.21723e-01,9.99999e-01
7.765084837e-01,5.28471e-01,9.99999e-01,5.28471e-01,9.99999e-01
7.803910261e-01,5.18993e-01,9.69769e-01,5.35171e-01,9.99999e-01
7.842929812e-01,4.74622e-01,8.75976e-01,5.41820e-01,9.99999e-01
7.882144461e-01,4.75709e-01,8.67418e-01,5.48419e-01,9.99999e-01
7.921555184e-01,5.10943e-01,9.20676e-01,5.54965e-01,9.99999e-01
7.961162960e-01,5.31332e-01,9.46344e-01,5.61458e-01,9.99999e-01
8.000968774e-01,5.51164e-01,9.70536e-01,5.67896e-01,9.99999e-01
8.040973618e-01,5.65465e-01,9.84652e-01,5.74278e-01,9.99999e-01
8.081178486e-01,5.76492e-01,9.92917e-01,5.80604e-01,9.99999e-01
8.121584379e-01,5.85591e-01,9.97814e-01,5.86873e-01,9.99999e-01
8.162192301e-01,5.92797e-01,9.99516e-01,5.93084e-01,9.99999e-01
8.203003262e-01,5.99231e-01,9.99992e-01,5.99235e-01,9.99999e-01
8.244018279e-01,6.05328e-01,9.99999e-01,6.05328e-01,9.99999e-01
8.285238370e-01,6.11360e-01,9.99999e-01,6.11360e-01,9.99999e-01
8.326664562e-01,6.17331e-01,9.99999e-01,6.17331e-01,9.99999e-01
8.368297885e-01,6.23241e-01,9.99999e-01,6.23241e-01,9.99999e-01
8.410139374e-01,6.29088e-01,9.99999e-01,6.29088e-01,9.99999e-01
8.452190071e-01,6.34874e-01,9.99999e-01,6.34874e-01,9.99999e-01
8.494451021e-01,6.40597e-01,9.99999e-01,6.40597e-01,9.99999e-01
8.536923276e-01,6.46257e-01,9.99999e-01,6.46257e-01,9.99999e-01
8.579607893e-01,6.51854e-01,9.99999e-01,6.51854e-01,9.99999e-01
8.622505932e-01,6.57387e-01,9.99999e-01,6.57387e-01,9.99999e-01
8.665618462e-01,6.16872e-01,9.30626e-01,6.62857e-01,9.99999e-01
8.708946554e-01,4.76568e-01,7.13144e-01,6.68263e-01,9.99999e-01
8.752491287e-01,5.13576e-01,7.62429e-01,6.73605e-01,9.99999e-01
8.796253743e-01,5.85155e-01,8.61938e-01,6.78882e-01,9.99999e-01
8.840235012e-01,6.33430e-01,9.25937e-01,6.84096e-01,9.99999e-01
8.884436187e-01,6.68693e-01,9.70181e-01,6.89245e-01,9.99999e-01
8.928858368e-01,6.85867e-01,9.87810e-01,6.94330e-01,9.99999e-01
8.973502660e-01,6.97277e-01,9.97033e-01,6.99352e-01,9.99999e-01
9.018370173e-01,7.04079e-01,9.99672e-01,7.04309e-01,9.99999e-01
9.063462024e-01,7.03197e-01,9.91531e-01,7.09203e-01,9.99999e-01
9.108779334e-01,7.00338e-01,9.80820e-01,7.14033e-01,9.99999e-01
9.154323231e-01,7.15551e-01,9.95480e-01,7.18799e-01,9.99999e-01
9.200094847e-01,6.76614e-01,9.35193e-01,7.23502e-01,9.99999e-01
9.246095321e-01,6.62242e-01,9.09494e-01,7.28142e-01,9.99999e-01
9.292325798e-01,6.79994e-01,9.28040e-01,7.32720e-01,9.99999e-01
9.338787427e-01,6.86087e-01,9.30621e-01,7.37234e-01,9.99999e-01
9.385481364e-01,7.03533e-01,9.48557e-01,7.41687e-01,9.99999e-01
9.432408771e-01,7.22373e-01,9.68227e-01,7.46078e-01,9.99999e-01
9.479570815e-01,7.38073e-01,9.83562e-01,7.50407e-01,9.99999e-01
9.526968669e-01,7.48674e-01,9.92046e-01,7.54675e-01,9.99999e-01
9.574603512e-01,7.56298e-01,9.96593e-01,7.58883e-01,9.99999e-01
9.622476530e-01,7.62219e-01,9.98936e-01,7.63030e-01,9.99999e-01
9.670588912e-01,7.66873e-01,9.99681e-01,7.67117e-01,9.99999e-01
9.718941857e-01,7.71127e-01,9.99977e-01,7.71145e-01,9.99999e-01
9.767536566e-01,7.75113e-01,9.99999e-01,7.75113e-01,9.99999e-01
9.816374249e-01,7.79023e-01,9.99999e-01,7.79023e-01,9.99999e-01
9.865456120e-01,7.82875e-01,9.99999e-01,7.82875e-01,9.99999e-01
9.914783401e-01,7.86670e-01,9.99999e-01,7.86670e-01,9.99999e-01
9.964357318e-01,7.90407e-01,9.99999e-01,7.90407e-01,9.99999e-01
1.001417910e+00,7.94088e-01,9.99999e-01,7.94088e-01,9.99999e-01
1.006425000e+00,7.97712e-01,9.99999e-01,7.97712e-01,9.99999e-01
1.011457125e+00,8.01281e-01,9.99999e-01,8.01281e-01,9.99999e-01
1.016514411e+00,8.04796e-01,9.99999e-01,8.04796e-01,9.99999e-01
1.021596983e+00,8.08218e-01,9.99953e-01,8.08255e-01,9.99999e-01
1.026704968e+00,8.08975e-01,9.96690e-01,8.11661e-01,9.99999e-01
1.031838492e+00,7.81272e-01,9.58599e-01,8.15013e-01,9.99999e-01
1.036997685e+00,1.40710e-01,1.71951e-01,8.18313e-01,9.99999e-01
1.042182673e+00,1.26261e-01,1.53684e-01,8.21560e-01,9.99999e-01
1.047393587e+00,1.40162e-01,1.69943e-01,8.24756e-01,9.99999e-01
1.052630555e+00,5.77019e-03,6.96965e-03,8.27901e-01,9.99999e-01
1.057893707e+00,1.38841e-02,1.67078e-02,8.30995e-01,9.99999e-01
1.063183176e+00,4.11547e-02,4.93437e-02,8.34039e-01,9.99999e-01
1.068499092e+00,1.04927e-01,1.25355e-01,8.37034e-01,9.99999e-01
1.073841587e+00,2.26552e-01,2.69711e-01,8.39981e-01,9.99999e-01
1.079210795e+00,3.67749e-01,4.36301e-01,8.42879e-01,9.99999e-01
1.084606849e+00,5.36330e-01,6.34162e-01,8.45730e-01,9.99999e-01
1.090029883e+00,6.69904e-01,7.89484e-01,8.48533e-01,9.99999e-01
1.095480033e+00,7.57762e-01,8.90133e-01,8.51291e-01,9.99999e-01
1.100957433e+00,8.07448e-01,9.45486e-01,8.54002e-01,9.99999e-01
1.106462220e+00,8.37052e-01,9.77100e-01,8.56668e-01,9.99999e-01
1.111994531e+00,8.51945e-01,9.91451e-01,8.59290e-01,9.99999e-01
1.117554504e+00,8.60067e-01,9.97910e-01,8.61868e-01,9.99999e-01
1.123142276e+00,8.64284e-01,9.99862e-01,8.64402e-01,9.99999e-01
1.128757988e+00,8.66894e-01,9.99999e-01,8.66894e-01,9.99999e-01
1.134401778e+00,8.69343e-01,9.99999e-01,8.69343e-01,9.99999e-01
1.140073787e+00,8.71751e-01,9.99999e-01,8.71751e-01,9.99999e-01
1.145774156e+00,8.74117e-01,9.99999e-01,8.74117e-01,9.99999e-01
1.151503026e+00,8.76444e-01,9.99999e-01,8.76444e-01,9.99999e-01
1.157260541e+00,8.78730e-01,9.99999e-01,8.78730e-01,9.99999e-01
1.163046844e+00,8.80976e-01,9.99999e-01,8.80976e-01,9.99999e-01
1.168862078e+00,8.83184e-01,9.99999e-01,8.83184e-01,9.99999e-01
1.174706389e+00,8.85354e-01,9.99999e-01,8.85354e-01,9.99999e-01
1.180579921e+00,8.87486e-01,9.99999e-01,8.87486e-01,9.99999e-01
1.186482820e+00,8.89575e-01,9.99993e-01,8.89581e-01,9.99999e-01
1.192415234e+00,8.81113e-01,9.88194e-01,8.91639e-01,9.99999e-01
1.198377311e+00,5.04663e-01,5.64714e-01,8.93661e-01,9.99999e-01
1.204369197e+00,4.18884e-10,4.67687e-10,8.95648e-01,9.99999e-01
1.210391043e+00,5.38538e-36,5.99975e-36,8.97600e-01,9.99999e-01
1.216442998e+00,2.29459e-31,2.55091e-31,8.99517e-01,9.99999e-01
1.222525213e+00,6.43084e-31,7.13427e-31,9.01401e-01,9.99999e-01
1.228637839e+00,6.14769e-24,6.80618e-24,9.03251e-01,9.99999e-01
1.234781029e+00,1.12152e-15,1.23916e-15,9.05068e-01,9.99999e-01
1.240954934e+00,1.33112e-10,1.46785e-10,9.06853e-01,9.99999e-01
1.247159708e+00,4.86243e-06,5.35152e-06,9.08606e-01,9.99999e-01
1.253395507e+00,7.28599e-04,8.00369e-04,9.10328e-01,9.99999e-01
1.259662485e+00,1.53548e-02,1.68360e-02,9.12019e-01,9.99999e-01
1.265960797e+00,8.58555e-02,9.39667e-02,9.13679e-01,9.99999e-01
1.272290601e+00,3.38786e-01,3.70132e-01,9.15310e-01,9.99999e-01
1.278652054e+00,2.89944e-01,3.16217e-01,9.16911e-01,9.99999e-01
1.285045314e+00,7.19860e-03,7.83747e-03,9.18484e-01,9.99999e-01
1.291470541e+00,6.43392e-05,6.99317e-05,9.20028e-01,9.99999e-01
1.297927893e+00,1.35238e-02,1.46752e-02,9.21544e-01,9.99999e-01
1.304417533e+00,1.51413e-01,1.64039e-01,9.23032e-01,9.99999e-01
1.310939621e+00,3.71022e-02,4.01325e-02,9.24494e-01,9.99999e-01
1.317494319e+00,7.54014e-13,8.14333e-13,9.25928e-01,9.99999e-01
1.324081790e+00,5.37304e-09,5.79405e-09,9.27337e-01,9.99999e-01
1.330702199e+00,2.55420e-05,2.75024e-05,9.28720e-01,9.99999e-01
1.337355710e+00,2.85487e-05,3.06950e-05,9.30077e-01,9.99999e-01
1.344042489e+00,8.37732e-06,8.99422e-06,9.31410e-01,9.99999e-01
1.350762701e+00,1.66170e-05,1.78157e-05,9.32718e-01,9.99999e-01
1.357516515e+00,8.13983e-04,8.71500e-04,9.34002e-01,9.99999e-01
1.364304097e+00,9.89341e-03,1.05782e-02,9.35263e-01,9.99999e-01
1.371125618e+00,8.69270e-02,9.28211e-02,9.36500e-01,9.99999e-01
1.377981246e+00,1.34586e-01,1.43526e-01,9.37714e-01,9.99999e-01
1.384871152e+00,3.03456e-01,3.23201e-01,9.38906e-01,9.99999e-01
1.391795508e+00,3.31165e-01,3.52275e-01,9.40076e-01,9.99999e-01
1.398754485e+00,4.94556e-01,5.25439e-01,9.41224e-01,9.99999e-01
1.405748258e+00,5.86711e-01,6.22603e-01,9.42351e-01,9.99999e-01
1.412776999e+00,6.99520e-01,7.41443e-01,9.43457e-01,9.99999e-01
1.419840884e+00,6.30943e-01,6.67987e-01,9.44542e-01,9.99999e-01
1.426940089e+00,6.32480e-02,6.68861e-02,9.45607e-01,9.99999e-01
1.434074789e+00,0.00000e+00,0.00000e+00,9.46652e-01,9.99999e-01
1.441245163e+00,0.00000e+00,0.00000e+00,9.47678e-01,9.99999e-01
1.448451389e+00,0.00000e+00,0.00000e+00,9.48684e-01,9.99999e-01
1.455693646e+00,4.84653e-287,5.10336e-287,9.49672e-01,9.99999e-01
1.462972114e+00,3.17795e-139,3.34295e-139,9.50641e-01,9.99999e-01
1.470286975e+00,1.30295e-58,1.36923e-58,9.51592e-01,9.99999e-01
1.477638409e+00,2.31768e-37,2.43319e-37,9.52525e-01,9.99999e-01
1.485026601e+00,2.29411e-21,2.40613e-21,9.53441e-01,9.99999e-01
1.492451734e+00,3.30353e-18,3.46158e-18,9.54339e-01,9.99999e-01
1.499913993e+00,1.07531e-08,1.12572e-08,9.55220e-01,9.99999e-01
1.507413563e+00,1.59709e-07,1.67044e-07,9.56085e-01,9.99999e-01
1.514950631e+00,6.46370e-09,6.75458e-09,9.56934e-01,9.99999e-01
1.522525384e+00,5.73249e-27,5.98527e-27,9.57766e-01,9.99999e-01
1.530138011e+00,2.01239e-62,2.09934e-62,9.58583e-01,9.99999e-01
1.537788701e+00,1.52980e-46,1.59456e-46,9.59384e-01,9.99999e-01
1.545477645e+00,6.08157e-11,6.33384e-11,9.60170e-01,9.99999e-01
1.553205033e+00,1.28449e-07,1.33670e-07,9.60941e-01,9.99999e-01
1.560971058e+00,3.54578e-08,3.68700e-08,9.61698e-01,9.99999e-01
1.568775913e+00,3.95033e-156,4.10449e-156,9.62440e-01,9.99999e-01
1.576619793e+00,0.00000e+00,0.00000e+00,9.63168e-01,9.99999e-01
1.584502892e+00,2.07739e-199,2.15523e-199,9.63882e-01,9.99999e-01
1.592425406e+00,3.04882e-139,3.16076e-139,9.64583e-01,9.99999e-01
1.600387533e+00,7.43447e-224,7.70195e-224,9.65270e-01,9.99999e-01
1.608389471e+00,0.00000e+00,0.00000e+00,9.65944e-01,9.99999e-01
1.616431418e+00,0.00000e+00,0.00000e+00,9.66605e-01,9.99999e-01
1.624513575e+00,1.20417e-176,1.24494e-176,9.67254e-01,9.99999e-01
1.632636143e+00,1.85325e-131,1.91473e-131,9.67890e-01,9.99999e-01
1.640799324e+00,2.10329e-54,2.17166e-54,9.68515e-01,9.99999e-01
1.649003321e+00,2.15676e-54,2.22547e-54,9.69127e-01,9.99999e-01
1.657248337e+00,2.55367e-42,2.63338e-42,9.69727e-01,9.99999e-01
1.665534579e+00,1.33940e-42,1.38037e-42,9.70316e-01,9.99999e-01
1.673862252e+00,1.33792e-27,1.37803e-27,9.70894e-01,9.99999e-01
1.682231563e+00,1.60734e-19,1.65455e-19,9.71461e-01,9.99999e-01
1.690642721e+00,1.84579e-11,1.89893e-11,9.72016e-01,9.99999e-01
1.699095934e+00,1.83367e-07,1.88540e-07,9.72561e-01,9.99999e-01
1.707591414e+00,2.58370e-04,2.65514e-04,9.73096e-01,9.99999e-01
1.716129371e+00,9.93388e-03,1.02030e-02,9.73620e-01,9.99999e-01
1.724710018e+00,7.98093e-02,8.19283e-02,9.74135e-01,9.99999e-01
1.733333568e+00,1.92688e-01,1.97701e-01,9.74639e-01,9.99999e-01
1.742000236e+00,3.65480e-01,3.74800e-01,9.75134e-01,9.99999e-01
1.750710237e+00,1.21121e-02,1.24148e-02,9.75619e-01,9.99999e-01
1.759463788e+00,2.44336e-26,2.50320e-26,9.76094e-01,9.99999e-01
1.768261107e+00,1.12823e-27,1.15531e-27,9.76561e-01,9.99999e-01
1.777102413e+00,1.52291e-26,1.55873e-26,9.77019e-01,9.99999e-01
1.785987925e+00,2.66236e-25,2.72373e-25,9.77467e-01,9.99999e-01
1.794917864e+00,4.43706e-24,4.53729e-24,9.77907e-01,9.99999e-01
1.803892454e+00,2.11980e-23,2.16673e-23,9.78339e-01,9.99999e-01
1.812911916e+00,2.25557e-22,2.30451e-22,9.78762e-01,9.99999e-01
1.821976476e+00,1.54698e-22,1.57987e-22,9.79177e-01,9.99999e-01
1.831086358e+00,2.28460e-18,2.33221e-18,9.79584e-01,9.99999e-01
1.840241790e+00,1.31727e-15,1.34418e-15,9.79984e-01,9.99999e-01
1.849442999e+00,5.86622e-11,5.98364e-11,9.80375e-01,9.99999e-01
1.858690214e+00,4.22606e-10,4.30896e-10,9.80759e-01,9.99999e-01
1.867983665e+00,6.60943e-11,6.73651e-11,9.81135e-01,9.99999e-01
1.877323583e+00,2.28969e-49,2.33283e-49,9.81505e-01,9.99999e-01
