#,Wave/freq,Total,CO2,Rayleigh,CIA
4.000000000e-01,2.66160e-14,9.99999e-01,2.66160e-14,9.99999e-01
4.020000000e-01,4.93798e-14,9.99999e-01,4.93798e-14,9.99999e-01
4.040100000e-01,9.04450e-14,9.99999e-01,9.04450e-14,9.99999e-01
4.060300500e-01,1.63692e-13,9.99999e-01,1.63692e-13,9.99999e-01
4.080602003e-01,2.92808e-13,9.99999e-01,2.92808e-13,9.99999e-01
4.101005013e-01,5.17785e-13,9.99999e-01,5.17785e-13,9.99999e-01
4.121510038e-01,9.05368e-13,9.99999e-01,9.05368e-13,9.99999e-01
4.142117588e-01,1.56570e-12,9.99999e-01,1.56570e-12,9.99999e-01
4.162828176e-01,2.67850e-12,9.99999e-01,2.67850e-12,9.99999e-01
4.183642317e-01,4.53387e-12,9.99999e-01,4.53387e-12,9.99999e-01
4.204560528e-01,7.59507e-12,9.99999e-01,7.59507e-12,9.99999e-01
4.225583331e-01,1.25942e-11,9.99999e-01,1.25942e-11,9.99999e-01
4.246711247e-01,2.06761e-11,9.99999e-01,2.06761e-11,9.99999e-01
4.267944804e-01,3.36135e-11,9.99999e-01,3.36135e-11,9.99999e-01
4.289284528e-01,5.41241e-11,9.99999e-01,5.41241e-11,9.99999e-01
4.310730950e-01,8.63340e-11,9.99999e-01,8.63340e-11,9.99999e-01
4.332284605e-01,1.36448e-10,9.99999e-01,1.36448e-10,9.99999e-01
4.353946028e-01,2.13711e-10,9.99999e-01,2.13711e-10,9.99999e-01
4.375715758e-01,3.31769e-10,9.99999e-01,3.31769e-10,9.99999e-01
4.397594337e-01,5.10591e-10,9.99999e-01,5.10591e-10,9.99999e-01
4.419582309e-01,7.79133e-10,9.99999e-01,7.79133e-10,9.99999e-01
4.441680220e-01,1.17903e-09,9.99999e-01,1.17903e-09,9.99999e-01
4.463888621e-01,1.76964e-09,9.99999e-01,1.76964e-09,9.99999e-01
4.486208064e-01,2.63488e-09,9.99999e-01,2.63488e-09,9.99999e-01
4.508639105e-01,3.89244e-09,9.99999e-01,3.89244e-09,9.99999e-01
4.531182300e-01,5.70605e-09,9.99999e-01,5.70605e-09,9.99999e-01
4.553838212e-01,8.30172e-09,9.99999e-01,8.30172e-09,9.99999e-01
4.576607403e-01,1.19890e-08,9.99999e-01,1.19890e-08,9.99999e-01
4.599490440e-01,1.71889e-08,9.99999e-01,1.71889e-08,9.99999e-01
4.622487892e-01,2.44693e-08,9.99999e-01,2.44693e-08,9.99999e-01
4.645600332e-01,3.45912e-08,9.99999e-01,3.45912e-08,9.99999e-01
4.668828333e-01,4.85667e-08,9.99999e-01,4.85667e-08,9.99999e-01
4.692172475e-01,6.77332e-08,9.99999e-01,6.77332e-08,9.99999e-01
4.715633337e-01,9.38450e-08,9.99999e-01,9.38450e-08,9.99999e-01
4.739211504e-01,1.29188e-07,9.99999e-01,1.29188e-07,9.99999e-01
4.762907561e-01,1.76723e-07,9.99999e-01,1.76723e-07,9.99999e-01
4.786722099e-01,2.40257e-07,9.99999e-01,2.40257e-07,9.99999e-01
4.810655710e-01,3.24657e-07,9.99999e-01,3.24657e-07,9.99999e-01
4.834708988e-01,4.36104e-07,9.99999e-01,4.36104e-07,9.99999e-01
4.858882533e-01,5.82403e-07,9.99999e-01,5.82403e-07,9.99999e-01
4.883176946e-01,7.73350e-07,9.99999e-01,7.73350e-07,9.99999e-01
4.907592831e-01,1.02117e-06,9.99999e-01,1.02117e-06,9.99999e-01
4.932130795e-01,1.34101e-06,9.99999e-01,1.34101e-06,9.99999e-01
4.956791449e-01,1.75158e-06,9.99999e-01,1.75158e-06,9.99999e-01
4.981575406e-01,2.27581e-06,9.99999e-01,2.27581e-06,9.99999e-01
5.006483283e-01,2.94168e-06,9.99999e-01,2.94168e-06,9.99999e-01
5.031515699e-01,3.78316e-06,9.99999e-01,3.78316e-06,9.99999e-01
5.056673278e-01,4.84123e-06,9.99999e-01,4.84123e-06,9.99999e-01
5.081956644e-01,6.16511e-06,9.99999e-01,6.16511e-06,9.99999e-01
5.107366428e-01,7.81363e-06,9.99999e-01,7.81363e-06,9.99999e-01
5.132903260e-01,9.85670e-06,9.99999e-01,9.85670e-06,9.99999e-01
5.158567776e-01,1.23771e-05,9.99999e-01,1.23771e-05,9.99999e-01
5.184360615e-01,1.54721e-05,9.99999e-01,1.54721e-05,9.99999e-01
5.210282418e-01,1.92561e-05,9.99999e-01,1.92561e-05,9.99999e-01
5.236333830e-01,2.38622e-05,9.99999e-01,2.38622e-05,9.99999e-01
5.262515499e-01,2.94450e-05,9.99999e-01,2.94450e-05,9.99999e-01
5.288828077e-01,3.61835e-05,9.99999e-01,3.61835e-05,9.99999e-01
5.315272217e-01,4.42834e-05,9.99999e-01,4.42834e-05,9.99999e-01
5.341848578e-01,5.39807e-05,9.99999e-01,5.39807e-05,9.99999e-01
5.368557821e-01,6.55446e-05,9.99999e-01,6.55446e-05,9.99999e-01
5.395400610e-01,7.92813e-05,9.99999e-01,7.92813e-05,9.99999e-01
5.422377613e-01,9.55372e-05,9.99999e-01,9.55372e-05,9.99999e-01
5.449489501e-01,1.14703e-04,9.99999e-01,1.14703e-04,9.99999e-01
5.476736949e-01,1.37217e-04,9.99999e-01,1.37217e-04,9.99999e-01
5.504120634e-01,1.63570e-04,9.99999e-01,1.63570e-04,9.99999e-01
5.531641237e-01,1.94308e-04,9.99999e-01,1.94308e-04,9.99999e-01
5.559299443e-01,2.30040e-04,9.99999e-01,2.30040e-04,9.99999e-01
5.587095940e-01,2.71435e-04,9.99999e-01,2.71435e-04,9.99999e-01
5.615031420e-01,3.19235e-04,9.99999e-01,3.19235e-04,9.99999e-01
5.643106577e-01,3.74251e-04,9.99999e-01,3.74251e-04,9.99999e-01
5.671322110e-01,4.37372e-04,9.99999e-01,4.37372e-04,9.99999e-01
5.699678720e-01,5.09569e-04,9.99999e-01,5.09569e-04,9.99999e-01
5.728177114e-01,5.91894e-04,9.99999e-01,5.91894e-04,9.99999e-01
5.756818000e-01,6.85488e-04,9.99999e-01,6.85488e-04,9.99999e-01
5.785602090e-01,7.91584e-04,9.99999e-01,7.91584e-04,9.99999e-01
5.814530100e-01,9.11505e-04,9.99999e-01,9.11505e-04,9.99999e-01
5.843602750e-01,1.04667e-03,9.99999e-01,1.04667e-03,9.99999e-01
5.872820764e-01,1.19861e-03,9.99999e-01,1.19861e-03,9.99999e-01
5.902184868e-01,1.36893e-03,9.99999e-01,1.36893e-03,9.99999e-01
5.931695792e-01,1.55935e-03,9.99999e-01,1.55935e-03,9.99999e-01
5.961354271e-01,1.77170e-03,9.99999e-01,1.77170e-03,9.99999e-01
5.991161043e-01,2.00790e-03,9.99999e-01,2.00790e-03,9.99999e-01
6.021116848e-01,2.26997e-03,9.99999e-01,2.26997e-03,9.99999e-01
6.051222432e-01,2.56003e-03,9.99999e-01,2.56003e-03,9.99999e-01
6.081478544e-01,2.88030e-03,9.99999e-01,2.88030e-03,9.99999e-01
6.111885937e-01,3.23311e-03,9.99999e-01,3.23311e-03,9.99999e-01
6.142445367e-01,3.62086e-03,9.99999e-01,3.62086e-03,9.99999e-01
6.173157594e-01,4.04605e-03,9.99999e-01,4.04605e-03,9.99999e-01
6.204023382e-01,4.51126e-03,9.99999e-01,4.51126e-03,9.99999e-01
6.235043498e-01,5.01917e-03,9.99999e-01,5.01917e-03,9.99999e-01
6.266218716e-01,5.57250e-03,9.99999e-01,5.57250e-03,9.99999e-01
6.297549810e-01,6.17406e-03,9.99999e-01,6.17406e-03,9.99999e-01
6.329037559e-01,6.82673e-03,9.99999e-01,6.82673e-03,9.99999e-01
6.360682746e-01,7.53342e-03,9.99999e-01,7.53342e-03,9.99999e-01
6.392486160e-01,8.29711e-03,9.99999e-01,8.29711e-03,9.99999e-01
6.424448591e-01,9.12081e-03,9.99999e-01,9.12081e-03,9.99999e-01
6.456570834e-01,1.00075e-02,9.99999e-01,1.00075e-02,9.99999e-01
6.488853688e-01,1.09604e-02,9.99999e-01,1.09604e-02,9.99999e-01
6.521297956e-01,1.19824e-02,9.99999e-01,1.19824e-02,9.99999e-01
6.553904446e-01,1.30767e-02,9.99999e-01,1.30767e-02,9.99999e-01
6.586673968e-01,1.42463e-02,9.99999e-01,1.42463e-02,9.99999e-01
6.619607338e-01,1.54943e-02,9.99999e-01,1.54943e-02,9.99999e-01
6.652705375e-01,1.68236e-02,9.99999e-01,1.68236e-02,9.99999e-01
6.685968902e-01,1.82374e-02,9.99999e-01,1.82374e-02,9.99999e-01
6.719398746e-01,1.97384e-02,9.99999e-01,1.97384e-02,9.99999e-01
6.752995740e-01,2.13297e-02,9.99999e-01,2.13297e-02,9.99999e-01
6.786760719e-01,2.30139e-02,9.99999e-01,2.30139e-02,9.99999e-01
6.820694522e-01,2.47939e-02,9.99999e-01,2.47939e-02,9.99999e-01
6.854797995e-01,2.66723e-02,9.99999e-01,2.66723e-02,9.99999e-01
6.889071985e-01,2.86517e-02,9.99999e-01,2.86517e-02,9.99999e-01
6.923517345e-01,3.07344e-02,9.99999e-01,3.07344e-02,9.99999e-01
6.958134932e-01,3.29229e-02,9.99999e-01,3.29229e-02,9.99999e-01
6.992925606e-01,3.52194e-02,9.99999e-01,3.52194e-02,9.99999e-01
7.027890234e-01,3.76258e-02,9.99999e-01,3.76258e-02,9.99999e-01
7.063029686e-01,4.01443e-02,9.99999e-01,4.01443e-02,9.99999e-01
7.098344834e-01,4.27765e-02,9.99999e-01,4.27765e-02,9.99999e-01
7.133836558e-01,4.55242e-02,9.99999e-01,4.55242e-02,9.99999e-01
7.169505741e-01,4.83889e-02,9.99999e-01,4.83889e-02,9.99999e-01
7.205353270e-01,5.13719e-02,9.99999e-01,5.13719e-02,9.99999e-01
7.241380036e-01,5.44743e-02,9.99999e-01,5.44743e-02,9.99999e-01
7.277586936e-01,5.76972e-02,9.99999e-01,5.76972e-02,9.99999e-01
7.313974871e-01,6.10415e-02,9.99999e-01,6.10415e-02,9.99999e-01
7.350544745e-01,6.45078e-02,9.99999e-01,6.45078e-02,9.99999e-01
7.387297469e-01,6.80966e-02,9.99999e-01,6.80966e-02,9.99999e-01
7.424233956e-01,7.18082e-02,9.99999e-01,7.18082e-02,9.99999e-01
7.461355126e-01,7.56427e-02,9.99999e-01,7.56427e-02,9.99999e-01
7.498661902e-01,7.96002e-02,9.99999e-01,7.96002e-02,9.99999e-01
7.536155211e-01,8.36805e-02,9.99999e-01,8.36805e-02,9.99999e-01
7.573835987e-01,8.78830e-02,9.99999e-01,8.78830e-02,9.99999e-01
7.611705167e-01,9.22073e-02,9.99999e-01,9.22073e-02,9.99999e-01
7.649763693e-01,9.66527e-02,9.99999e-01,9.66527e-02,9.99999e-01
7.688012511e-01,1.01218e-01,9.99999e-01,1.01218e-01,9.99999e-01
7.726452574e-01,1.05903e-01,9.99999e-01,1.05903e-01,9.99999e-01
7.765084837e-01,1.10705e-01,9.99999e-01,1.10705e-01,9.99999e-01
7.803910261e-01,1.05498e-01,9.12421e-01,1.15624e-01,9.99999e-01
7.842929812e-01,7.85054e-02,6.50646e-01,1.20658e-01,9.99999e-01
7.882144461e-01,7.96629e-02,6.33227e-01,1.25805e-01,9.99999e-01
7.921555184e-01,9.90104e-02,7.55442e-01,1.31063e-01,9.99999e-01
7.961162960e-01,1.12998e-01,8.28246e-01,1.36430e-01,9.99999e-01
8.000968774e-01,1.28083e-01,9.02596e-01,1.41905e-01,9.99999e-01
8.040973618e-01,1.39877e-01,9.48411e-01,1.47485e-01,9.99999e-01
8.081178486e-01,1.49471e-01,9.75862e-01,1.53168e-01,9.99999e-01
8.121584379e-01,1.57768e-01,9.92559e-01,1.58951e-01,9.99999e-01
8.162192301e-01,1.64560e-01,9.98351e-01,1.64832e-01,9.99999e-01
8.203003262e-01,1.70803e-01,9.99977e-01,1.70807e-01,9.99999e-01
8.244018279e-01,1.76875e-01,9.99999e-01,1.76875e-01,9.99999e-01
8.285238370e-01,1.83032e-01,9.99999e-01,1.83032e-01,9.99999e-01
8.326664562e-01,1.89275e-01,9.99999e-01,1.89275e-01,9.99999e-01
8.368297885e-01,1.95602e-01,9.99999e-01,1.95602e-01,9.99999e-01
8.410139374e-01,2.02008e-01,9.99999e-01,2.02008e-01,9.99999e-01
8.452190071e-01,2.08492e-01,9.99999e-01,2.08492e-01,9.99999e-01
8.494451021e-01,2.15050e-01,9.99999e-01,2.15050e-01,9.99999e-01
8.536923276e-01,2.21679e-01,9.99999e-01,2.21679e-01,9.99999e-01
8.579607893e-01,2.28374e-01,9.99999e-01,2.28374e-01,9.99999e-01
8.622505932e-01,2.35134e-01,9.99999e-01,2.35134e-01,9.99999e-01
8.665618462e-01,2.09590e-01,8.66236e-01,2.41954e-01,9.99999e-01
8.708946554e-01,8.58995e-02,3.45210e-01,2.48832e-01,9.99999e-01
8.752491287e-01,1.05893e-01,4.14028e-01,2.55764e-01,9.99999e-01
8.796253743e-01,1.60118e-01,6.09401e-01,2.62746e-01,9.99999e-01
8.840235012e-01,2.07727e-01,7.70000e-01,2.69775e-01,9.99999e-01
8.884436187e-01,2.49691e-01,9.01907e-01,2.76847e-01,9.99999e-01
8.928858368e-01,2.72278e-01,9.58858e-01,2.83960e-01,9.99999e-01
8.973502660e-01,2.88170e-01,9.89901e-01,2.91110e-01,9.99999e-01
9.018370173e-01,2.97961e-01,9.98885e-01,2.98293e-01,9.99999e-01
9.063462024e-01,2.96733e-01,9.71281e-01,3.05506e-01,9.99999e-01
9.108779334e-01,2.92674e-01,9.35817e-01,3.12746e-01,9.99999e-01
9.154323231e-01,3.15115e-01,9.84703e-01,3.20010e-01,9.99999e-01
9.200094847e-01,2.67151e-01,8.16241e-01,3.27294e-01,9.99999e-01
9.246095321e-01,2.42189e-01,7.23828e-01,3.34594e-01,9.99999e-01
9.292325798e-01,2.65901e-01,7.77695e-01,3.41909e-01,9.99999e-01
9.338787427e-01,2.73740e-01,7.83829e-01,3.49234e-01,9.99999e-01
9.385481364e-01,2.97704e-01,8.34916e-01,3.56567e-01,9.99999e-01
9.432408771e-01,3.25754e-01,8.95162e-01,3.63905e-01,9.99999e-01
9.479570815e-01,3.50679e-01,9.44603e-01,3.71244e-01,9.99999e-01
9.526968669e-01,3.68352e-01,9.72977e-01,3.78582e-01,9.99999e-01
9.574603512e-01,3.81422e-01,9.88354e-01,3.85915e-01,9.99999e-01
9.622476530e-01,3.91810e-01,9.96357e-01,3.93242e-01,9.99999e-01
9.670588912e-01,4.00122e-01,9.98909e-01,4.00559e-01,9.99999e-01
9.718941857e-01,4.07833e-01,9.99924e-01,4.07863e-01,9.99999e-01
9.767536566e-01,4.15153e-01,9.99999e-01,4.15153e-01,9.99999e-01
9.816374249e-01,4.22425e-01,9.99999e-01,4.22425e-01,9.99999e-01
9.865456120e-01,4.29677e-01,9.99999e-01,4.29677e-01,9.99999e-01
9.914783401e-01,4.36906e-01,9.99999e-01,4.36906e-01,9.99999e-01
9.964357318e-01,4.44111e-01,9.99999e-01,4.44111e-01,9.99999e-01
1.001417910e+00,4.51288e-01,9.99999e-01,4.51288e-01,9.99999e-01
1.006425000e+00,4.58437e-01,9.99999e-01,4.58437e-01,9.99999e-01
1.011457125e+00,4.65554e-01,9.99999e-01,4.65554e-01,9.99999e-01
1.016514411e+00,4.72638e-01,9.99999e-01,4.72638e-01,9.99999e-01
1.021596983e+00,4.79602e-01,9.99822e-01,4.79686e-01,9.99999e-01
1.026704968e+00,4.81109e-01,9.88517e-01,4.86698e-01,9.99999e-01
1.031838492e+00,4.45787e-01,9.03006e-01,4.93670e-01,9.99999e-01
1.036997685e+00,2.60115e-02,5.19605e-02,5.00601e-01,9.99999e-01
1.042182673e+00,2.09327e-03,4.12475e-03,5.07490e-01,9.99999e-01
1.047393587e+00,5.17974e-03,1.00707e-02,5.14335e-01,9.99999e-01
1.052630555e+00,8.07057e-07,1.54865e-06,5.21135e-01,9.99999e-01
1.057893707e+00,3.10371e-06,5.87950e-06,5.27887e-01,9.99999e-01
1.063183176e+00,7.09868e-05,1.32787e-04,5.34591e-01,9.99999e-01
1.068499092e+00,6.67089e-04,1.23251e-03,5.41245e-01,9.99999e-01
1.073841587e+00,7.39275e-03,1.34942e-02,5.47848e-01,9.99999e-01
1.079210795e+00,3.71175e-02,6.69510e-02,5.54398e-01,9.99999e-01
1.084606849e+00,1.21346e-01,2.16343e-01,5.60896e-01,9.99999e-01
1.090029883e+00,2.54303e-01,4.48238e-01,5.67338e-01,9.99999e-01
1.095480033e+00,3.85971e-01,6.72744e-01,5.73726e-01,9.99999e-01
1.100957433e+00,4.78712e-01,8.25284e-01,5.80057e-01,9.99999e-01
1.106462220e+00,5.41568e-01,9.23655e-01,5.86331e-01,9.99999e-01
1.111994531e+00,5.75337e-01,9.70956e-01,5.92546e-01,9.99999e-01
1.117554504e+00,5.94434e-01,9.92868e-01,5.98703e-01,9.99999e-01
1.123142276e+00,6.04519e-01,9.99533e-01,6.04801e-01,9.99999e-01
1.128757988e+00,6.10838e-01,9.99999e-01,6.10838e-01,9.99999e-01
1.134401778e+00,6.16814e-01,9.99999e-01,6.16814e-01,9.99999e-01
1.140073787e+00,6.22729e-01,9.99999e-01,6.22729e-01,9.99999e-01
1.145774156e+00,6.28583e-01,9.99999e-01,6.28583e-01,9.99999e-01
1.151503026e+00,6.34374e-01,9.99999e-01,6.34374e-01,9.99999e-01
1.157260541e+00,6.40102e-01,9.99999e-01,6.40102e-01,9.99999e-01
1.163046844e+00,6.45768e-01,9.99999e-01,6.45768e-01,9.99999e-01
1.168862078e+00,6.51370e-01,9.99999e-01,6.51370e-01,9.99999e-01
1.174706389e+00,6.56909e-01,9.99999e-01,6.56909e-01,9.99999e-01
1.180579921e+00,6.62384e-01,9.99999e-01,6.62384e-01,9.99999e-01
1.186482820e+00,6.67778e-01,9.99972e-01,6.67796e-01,9.99999e-01
1.192415234e+00,6.46683e-01,9.60691e-01,6.73143e-01,9.99999e-01
1.198377311e+00,3.50877e-01,5.17192e-01,6.78426e-01,9.99999e-01
1.204369197e+00,2.35589e-29,3.44607e-29,6.83645e-01,9.99999e-01
1.210391043e+00,1.05724e-118,1.53490e-118,6.88800e-01,9.99999e-01
1.216442998e+00,1.00240e-102,1.44460e-102,6.93891e-01,9.99999e-01
1.222525213e+00,3.48545e-101,4.98692e-101,6.98918e-01,9.99999e-01
1.228637839e+00,4.59350e-78,6.52595e-78,7.03881e-01,9.99999e-01
1.234781029e+00,1.38158e-48,1.94924e-48,7.08780e-01,9.99999e-01
1.240954934e+00,3.14106e-32,4.40161e-32,7.13615e-01,9.99999e-01
1.247159708e+00,1.45740e-15,2.02871e-15,7.18387e-01,9.99999e-01
1.253395507e+00,1.45277e-10,2.00909e-10,7.23096e-01,9.99999e-01
1.259662485e+00,2.43978e-06,3.35253e-06,7.27742e-01,9.99999e-01
1.265960797e+00,7.22549e-04,9.86650e-04,7.32324e-01,9.99999e-01
1.272290601e+00,2.86379e-02,3.88655e-02,7.36845e-01,9.99999e-01
1.278652054e+00,2.56887e-02,3.46534e-02,7.41303e-01,9.99999e-01
1.285045314e+00,3.05763e-05,4.10036e-05,7.45699e-01,9.99999e-01
1.291470541e+00,4.78558e-14,6.38048e-14,7.50033e-01,9.99999e-01
1.297927893e+00,3.65184e-05,4.84131e-05,7.54307e-01,9.99999e-01
1.304417533e+00,1.89684e-03,2.50071e-03,7.58520e-01,9.99999e-01
1.310939621e+00,3.50895e-04,4.60086e-04,7.62672e-01,9.99999e-01
1.317494319e+00,5.24174e-41,6.83618e-41,7.66764e-01,9.99999e-01
1.324081790e+00,7.04027e-19,9.13375e-19,7.70797e-01,9.99999e-01
1.330702199e+00,8.86852e-16,1.14466e-15,7.74771e-01,9.99999e-01
1.337355710e+00,1.85064e-14,2.37661e-14,7.78686e-01,9.99999e-01
1.344042489e+00,9.55167e-15,1.22059e-14,7.82543e-01,9.99999e-01
1.350762701e+00,4.54021e-16,5.77383e-16,7.86342e-01,9.99999e-01
1.357516515e+00,7.50217e-10,9.49539e-10,7.90085e-01,9.99999e-01
1.364304097e+00,2.96943e-07,3.74091e-07,7.93770e-01,9.99999e-01
1.371125618e+00,4.28691e-04,5.37610e-04,7.97400e-01,9.99999e-01
1.377981246e+00,1.18893e-03,1.48435e-03,8.00974e-01,9.99999e-01
1.384871152e+00,1.79247e-02,2.22808e-02,8.04492e-01,9.99999e-01
1.391795508e+00,2.44843e-02,3.03039e-02,8.07957e-01,9.99999e-01
1.398754485e+00,8.92305e-02,1.09975e-01,8.11367e-01,9.99999e-01
1.405748258e+00,1.63710e-01,2.00939e-01,8.14724e-01,9.99999e-01
1.412776999e+00,2.94538e-01,3.60059e-01,8.18028e-01,9.99999e-01
1.419840884e+00,2.72930e-01,3.32323e-01,8.21280e-01,9.99999e-01
1.426940089e+00,1.00869e-02,1.22343e-02,8.24480e-01,9.99999e-01
1.434074789e+00,0.00000e+00,0.00000e+00,8.27630e-01,9.99999e-01
1.441245163e+00,0.00000e+00,0.00000e+00,8.30728e-01,9.99999e-01
1.448451389e+00,0.00000e+00,0.00000e+00,8.33777e-01,9.99999e-01
1.455693646e+00,0.00000e+00,0.00000e+00,8.36776e-01,9.99999e-01
1.462972114e+00,0.00000e+00,0.00000e+00,8.39727e-01,9.99999e-01
1.470286975e+00,9.83886e-197,1.16764e-196,8.42629e-01,9.99999e-01
1.477638409e+00,2.04856e-123,2.42295e-123,8.45484e-01,9.99999e-01
1.485026601e+00,1.86649e-68,2.20029e-68,8.48291e-01,9.99999e-01
1.492451734e+00,2.81085e-58,3.30279e-58,8.51053e-01,9.99999e-01
1.499913993e+00,5.98416e-25,7.00911e-25,8.53768e-01,9.99999e-01
1.507413563e+00,1.05361e-23,1.23022e-23,8.56439e-01,9.99999e-01
1.514950631e+00,2.92463e-25,3.40443e-25,8.59064e-01,9.99999e-01
1.522525384e+00,1.50647e-87,1.74836e-87,8.61646e-01,9.99999e-01
1.530138011e+00,5.28310e-210,6.11339e-210,8.64184e-01,9.99999e-01
1.537788701e+00,3.58200e-155,4.13301e-155,8.66679e-01,9.99999e-01
1.545477645e+00,3.00702e-32,3.45980e-32,8.69132e-01,9.99999e-01
1.553205033e+00,1.40973e-23,1.61751e-23,8.71543e-01,9.99999e-01
1.560971058e+00,8.14791e-24,9.32347e-24,8.73913e-01,9.99999e-01
1.568775913e+00,0.00000e+00,0.00000e+00,8.76243e-01,9.99999e-01
1.576619793e+00,0.00000e+00,0.00000e+00,8.78533e-01,9.99999e-01
1.584502892e+00,0.00000e+00,0.00000e+00,8.80783e-01,9.99999e-01
1.592425406e+00,0.00000e+00,0.00000e+00,8.82994e-01,9.99999e-01
1.600387533e+00,0.00000e+00,0.00000e+00,8.85167e-01,9.99999e-01
1.608389471e+00,0.00000e+00,0.00000e+00,8.87302e-01,9.99999e-01
1.616431418e+00,0.00000e+00,0.00000e+00,8.89400e-01,9.99999e-01
1.624513575e+00,0.00000e+00,0.00000e+00,8.91462e-01,9.99999e-01
1.632636143e+00,0.00000e+00,0.00000e+00,8.93487e-01,9.99999e-01
1.640799324e+00,3.22214e-182,3.59823e-182,8.95477e-01,9.99999e-01
1.649003321e+00,3.22729e-182,3.59613e-182,8.97432e-01,9.99999e-01
1.657248337e+00,1.15528e-140,1.28457e-140,8.99352e-01,9.99999e-01
1.665534579e+00,1.31154e-141,1.45526e-141,9.01239e-01,9.99999e-01
1.673862252e+00,4.76460e-90,5.27587e-90,9.03092e-01,9.99999e-01
1.682231563e+00,3.82255e-62,4.22422e-62,9.04912e-01,9.99999e-01
1.690642721e+00,3.17802e-34,3.50504e-34,9.06699e-01,9.99999e-01
1.699095934e+00,9.91487e-22,1.09140e-21,9.08455e-01,9.99999e-01
1.707591414e+00,5.45439e-11,5.99265e-11,9.10180e-01,9.99999e-01
1.716129371e+00,9.28604e-07,1.01835e-06,9.11873e-01,9.99999e-01
1.724710018e+00,3.09021e-04,3.38268e-04,9.13536e-01,9.99999e-01
1.733333568e+00,4.20396e-03,4.59364e-03,9.15170e-01,9.99999e-01
1.742000236e+00,3.98505e-02,4.34681e-02,9.16773e-01,9.99999e-01
1.750710237e+00,9.35840e-05,1.01905e-04,9.18348e-01,9.99999e-01
1.759463788e+00,5.79921e-86,6.30420e-86,9.19895e-01,9.99999e-01
1.768261107e+00,5.54391e-90,6.01674e-90,9.21413e-01,9.99999e-01
1.777102413e+00,1.01612e-87,1.10100e-87,9.22904e-01,9.99999e-01
1.785987925e+00,4.83599e-82,5.23166e-82,9.24368e-01,9.99999e-01
1.794917864e+00,2.53731e-78,2.74065e-78,9.25805e-01,9.99999e-01
1.803892454e+00,3.07550e-75,3.31692e-75,9.27215e-01,9.99999e-01
1.812911916e+00,2.75346e-72,2.96517e-72,9.28601e-01,9.99999e-01
1.821976476e+00,2.38369e-72,2.56322e-72,9.29960e-01,9.99999e-01
1.831086358e+00,5.93868e-58,6.37680e-58,9.31295e-01,9.99999e-01
1.840241790e+00,2.59962e-49,2.78747e-49,9.32605e-01,9.99999e-01
1.849442999e+00,3.27779e-34,3.50981e-34,9.33891e-01,9.99999e-01
1.858690214e+00,3.22466e-32,3.44827e-32,9.35154e-01,9.99999e-01
1.867983665e+00,8.78302e-33,9.37962e-33,9.36393e-01,9.99999e-01
1.877323583e+00,6.11025e-165,6.51683e-165,9.37610e-01,9.99999e-01
