#,Wave/freq,Total,CO2,Rayleigh,CIA
4.000000000e-01,3.75440e-12,9.99999e-01,3.75440e-12,9.99999e-01
4.020000000e-01,6.31621e-12,9.99999e-01,6.31621e-12,9.99999e-01
4.040100000e-01,1.05118e-11,9.99999e-01,1.05118e-11,9.99999e-01
4.060300500e-01,1.73191e-11,9.99999e-01,1.73191e-11,9.99999e-01
4.080602003e-01,2.82547e-11,9.99999e-01,2.82547e-11,9.99999e-01
4.101005013e-01,4.56517e-11,9.99999e-01,4.56517e-11,9.99999e-01
4.121510038e-01,7.30648e-11,9.99999e-01,7.30648e-11,9.99999e-01
4.142117588e-01,1.15858e-10,9.99999e-01,1.15858e-10,9.99999e-01
4.162828176e-01,1.82049e-10,9.99999e-01,1.82049e-10,9.99999e-01
4.183642317e-01,2.83513e-10,9.99999e-01,2.83513e-10,9.99999e-01
4.204560528e-01,4.37682e-10,9.99999e-01,4.37682e-10,9.99999e-01
4.225583331e-01,6.69913e-10,9.99999e-01,6.69913e-10,9.99999e-01
4.246711247e-01,1.01678e-09,9.99999e-01,1.01678e-09,9.99999e-01
4.267944804e-01,1.53058e-09,9.99999e-01,1.53058e-09,9.99999e-01
4.289284528e-01,2.28548e-09,9.99999e-01,2.28548e-09,9.99999e-01
4.310730950e-01,3.38579e-09,9.99999e-01,3.38579e-09,9.99999e-01
4.332284605e-01,4.97702e-09,9.99999e-01,4.97702e-09,9.99999e-01
4.353946028e-01,7.26064e-09,9.99999e-01,7.26064e-09,9.99999e-01
4.375715758e-01,1.05133e-08,9.99999e-01,1.05133e-08,9.99999e-01
4.397594337e-01,1.51123e-08,9.99999e-01,1.51123e-08,9.99999e-01
4.419582309e-01,2.15680e-08,9.99999e-01,2.15680e-08,9.99999e-01
4.441680220e-01,3.05658e-08,9.99999e-01,3.05658e-08,9.99999e-01
4.463888621e-01,4.30200e-08,9.99999e-01,4.30200e-08,9.99999e-01
4.486208064e-01,6.01414e-08,9.99999e-01,6.01414e-08,9.99999e-01
4.508639105e-01,8.35224e-08,9.99999e-01,8.35224e-08,9.99999e-01
4.531182300e-01,1.15243e-07,9.99999e-01,1.15243e-07,9.99999e-01
4.553838212e-01,1.58003e-07,9.99999e-01,1.58003e-07,9.99999e-01
4.576607403e-01,2.15282e-07,9.99999e-01,2.15282e-07,9.99999e-01
4.599490440e-01,2.91540e-07,9.99999e-01,2.91540e-07,9.99999e-01
4.622487892e-01,3.92452e-07,9.99999e-01,3.92452e-07,9.99999e-01
4.645600332e-01,5.25200e-07,9.99999e-01,5.25200e-07,9.99999e-01
4.668828333e-01,6.98818e-07,9.99999e-01,6.98818e-07,9.99999e-01
4.692172475e-01,9.24598e-07,9.99999e-01,9.24598e-07,9.99999e-01
4.715633337e-01,1.21658e-06,9.99999e-01,1.21658e-06,9.99999e-01
4.739211504e-01,1.59211e-06,9.99999e-01,1.59211e-06,9.99999e-01
4.762907561e-01,2.07252e-06,9.99999e-01,2.07252e-06,9.99999e-01
4.786722099e-01,2.68387e-06,9.99999e-01,2.68387e-06,9.99999e-01
4.810655710e-01,3.45786e-06,9.99999e-01,3.45786e-06,9.99999e-01
4.834708988e-01,4.43282e-06,9.99999e-01,4.43282e-06,9.99999e-01
4.858882533e-01,5.65485e-06,9.99999e-01,5.65485e-06,9.99999e-01
4.883176946e-01,7.17917e-06,9.99999e-01,7.17917e-06,9.99999e-01
4.907592831e-01,9.07150e-06,9.99999e-01,9.07150e-06,9.99999e-01
4.932130795e-01,1.14098e-05,9.99999e-01,1.14098e-05,9.99999e-01
4.956791449e-01,1.42859e-05,9.99999e-01,1.42859e-05,9.99999e-01
4.981575406e-01,1.78078e-05,9.99999e-01,1.78078e-05,9.99999e-01
5.006483283e-01,2.21016e-05,9.99999e-01,2.21016e-05,9.99999e-01
5.031515699e-01,2.73138e-05,9.99999e-01,2.73138e-05,9.99999e-01
5.056673278e-01,3.36144e-05,9.99999e-01,3.36144e-05,9.99999e-01
5.081956644e-01,4.11991e-05,9.99999e-01,4.11991e-05,9.99999e-01
5.107366428e-01,5.02926e-05,9.99999e-01,5.02926e-05,9.99999e-01
5.132903260e-01,6.11519e-05,9.99999e-01,6.11519e-05,9.99999e-01
5.158567776e-01,7.40694e-05,9.99999e-01,7.40694e-05,9.99999e-01
5.184360615e-01,8.93766e-05,9.99999e-01,8.93766e-05,9.99999e-01
5.210282418e-01,1.07448e-04,9.99999e-01,1.07448e-04,9.99999e-01
5.236333830e-01,1.28704e-04,9.99999e-01,1.28704e-04,9.99999e-01
5.262515499e-01,1.53616e-04,9.99999e-01,1.53616e-04,9.99999e-01
5.288828077e-01,1.82711e-04,9.99999e-01,1.82711e-04,9.99999e-01
5.315272217e-01,2.16572e-04,9.99999e-01,2.16572e-04,9.99999e-01
5.341848578e-01,2.55849e-04,9.99999e-01,2.55849e-04,9.99999e-01
5.368557821e-01,3.01256e-04,9.99999e-01,3.01256e-04,9.99999e-01
5.395400610e-01,3.53578e-04,9.99999e-01,3.53578e-04,9.99999e-01
5.422377613e-01,4.13676e-04,9.99999e-01,4.13676e-04,9.99999e-01
5.449489501e-01,4.82492e-04,9.99999e-01,4.82492e-04,9.99999e-01
5.476736949e-01,5.61047e-04,9.99999e-01,5.61047e-04,9.99999e-01
5.504120634e-01,6.50451e-04,9.99999e-01,6.50451e-04,9.99999e-01
5.531641237e-01,7.51903e-04,9.99999e-01,7.51903e-04,9.99999e-01
5.559299443e-01,8.66693e-04,9.99999e-01,8.66693e-04,9.99999e-01
5.587095940e-01,9.96208e-04,9.99999e-01,9.96208e-04,9.99999e-01
5.615031420e-01,1.14193e-03,9.99999e-01,1.14193e-03,9.99999e-01
5.643106577e-01,1.30545e-03,9.99999e-01,1.30545e-03,9.99999e-01
5.671322110e-01,1.48843e-03,9.99999e-01,1.48843e-03,9.99999e-01
5.699678720e-01,1.69268e-03,9.99999e-01,1.69268e-03,9.99999e-01
5.728177114e-01,1.92007e-03,9.99999e-01,1.92007e-03,9.99999e-01
5.756818000e-01,2.17260e-03,9.99999e-01,2.17260e-03,9.99999e-01
5.785602090e-01,2.45234e-03,9.99999e-01,2.45234e-03,9.99999e-01
5.814530100e-01,2.76148e-03,9.99999e-01,2.76148e-03,9.99999e-01
5.843602750e-01,3.10232e-03,9.99999e-01,3.10232e-03,9.99999e-01
5.872820764e-01,3.47722e-03,9.99999e-01,3.47722e-03,9.99999e-01
5.902184868e-01,3.88865e-03,9.99999e-01,3.88865e-03,9.99999e-01
5.931695792e-01,4.33916e-03,9.99999e-01,4.33916e-03,9.99999e-01
5.961354271e-01,4.83140e-03,9.99999e-01,4.83140e-03,9.99999e-01
5.991161043e-01,5.36807e-03,9.99999e-01,5.36807e-03,9.99999e-01
6.021116848e-01,5.95196e-03,9.99999e-01,5.95196e-03,9.99999e-01
6.051222432e-01,6.58591e-03,9.99999e-01,6.58591e-03,9.99999e-01
6.081478544e-01,7.27283e-03,9.99999e-01,7.27283e-03,9.99999e-01
6.111885937e-01,8.01568e-03,9.99999e-01,8.01568e-03,9.99999e-01
6.142445367e-01,8.81744e-03,9.99999e-01,8.81744e-03,9.99999e-01
6.173157594e-01,9.68116e-03,9.99999e-01,9.68116e-03,9.99999e-01
6.204023382e-01,1.06099e-02,9.99999e-01,1.06099e-02,9.99999e-01
6.235043498e-01,1.16067e-02,9.99999e-01,1.16067e-02,9.99999e-01
6.266218716e-01,1.26746e-02,9.99999e-01,1.26746e-02,9.99999e-01
6.297549810e-01,1.38167e-02,9.99999e-01,1.38167e-02,9.99999e-01
6.329037559e-01,1.50362e-02,9.99999e-01,1.50362e-02,9.99999e-01
6.360682746e-01,1.63359e-02,9.99999e-01,1.63359e-02,9.99999e-01
6.392486160e-01,1.77190e-02,9.99999e-01,1.77190e-02,9.99999e-01
6.424448591e-01,1.91883e-02,9.99999e-01,1.91883e-02,9.99999e-01
6.456570834e-01,2.07468e-02,9.99999e-01,2.07468e-02,9.99999e-01
6.488853688e-01,2.23972e-02,9.99999e-01,2.23972e-02,9.99999e-01
6.521297956e-01,2.41425e-02,9.99999e-01,2.41425e-02,9.99999e-01
6.553904446e-01,2.59852e-02,9.99999e-01,2.59852e-02,9.99999e-01
6.586673968e-01,2.79280e-02,9.99999e-01,2.79280e-02,9.99999e-01
6.619607338e-01,2.99733e-02,9.99999e-01,2.99733e-02,9.99999e-01
6.652705375e-01,3.21235e-02,9.99999e-01,3.21235e-02,9.99999e-01
6.685968902e-01,3.43808e-02,9.99999e-01,3.43808e-02,9.99999e-01
6.719398746e-01,3.67475e-02,9.99999e-01,3.67475e-02,9.99999e-01
6.752995740e-01,3.92255e-02,9.99999e-01,3.92255e-02,9.99999e-01
6.786760719e-01,4.18166e-02,9.99999e-01,4.18166e-02,9.99999e-01
6.820694522e-01,4.45226e-02,9.99999e-01,4.45226e-02,9.99999e-01
6.854797995e-01,4.73450e-02,9.99999e-01,4.73450e-02,9.99999e-01
6.889071985e-01,5.02853e-02,9.99999e-01,5.02853e-02,9.99999e-01
6.923517345e-01,5.33446e-02,9.99999e-01,5.33446e-02,9.99999e-01
6.958134932e-01,5.65241e-02,9.99999e-01,5.65241e-02,9.99999e-01
6.992925606e-01,5.98246e-02,9.99999e-01,5.98246e-02,9.99999e-01
7.027890234e-01,6.32470e-02,9.99999e-01,6.32470e-02,9.99999e-01
7.063029686e-01,6.67916e-02,9.99999e-01,6.67916e-02,9.99999e-01
7.098344834e-01,7.04590e-02,9.99999e-01,7.04590e-02,9.99999e-01
7.133836558e-01,7.42494e-02,9.99999e-01,7.42494e-02,9.99999e-01
7.169505741e-01,7.81627e-02,9.99999e-01,7.81627e-02,9.99999e-01
7.205353270e-01,8.21988e-02,9.99999e-01,8.21988e-02,9.99999e-01
7.241380036e-01,8.63574e-02,9.99999e-01,8.63574e-02,9.99999e-01
7.277586936e-01,9.06380e-02,9.99999e-01,9.06380e-02,9.99999e-01
7.313974871e-01,9.50399e-02,9.99999e-01,9.50399e-02,9.99999e-01
7.350544745e-01,9.95623e-02,9.99999e-01,9.95623e-02,9.99999e-01
7.387297469e-01,1.04204e-01,9.99999e-01,1.04204e-01,9.99999e-01
7.424233956e-01,1.08964e-01,9.99999e-01,1.08964e-01,9.99999e-01
7.461355126e-01,1.13841e-01,9.99999e-01,1.13841e-01,9.99999e-01
7.498661902e-01,1.18834e-01,9.99999e-01,1.18834e-01,9.99999e-01
7.536155211e-01,1.23940e-01,9.99999e-01,1.23940e-01,9.99999e-01
7.573835987e-01,1.29159e-01,9.99999e-01,1.29159e-01,9.99999e-01
7.611705167e-01,1.34487e-01,9.99999e-01,1.34487e-01,9.99999e-01
7.649763693e-01,1.39924e-01,9.99999e-01,1.39924e-01,9.99999e-01
7.688012511e-01,1.45466e-01,9.99999e-01,1.45466e-01,9.99999e-01
7.726452574e-01,1.51113e-01,9.99999e-01,1.51113e-01,9.99999e-01
7.765084837e-01,1.56860e-01,9.99999e-01,1.56860e-01,9.99999e-01
7.803910261e-01,1.50927e-01,9.27609e-01,1.62705e-01,9.99999e-01
7.842929812e-01,1.16644e-01,6.91644e-01,1.68647e-01,9.99999e-01
7.882144461e-01,1.18343e-01,6.77477e-01,1.74682e-01,9.99999e-01
7.921555184e-01,1.42751e-01,7.89519e-01,1.80807e-01,9.99999e-01
7.961162960e-01,1.59343e-01,8.52010e-01,1.87020e-01,9.99999e-01
8.000968774e-01,1.77236e-01,9.16816e-01,1.93317e-01,9.99999e-01
8.040973618e-01,1.90880e-01,9.55855e-01,1.99695e-01,9.99999e-01
8.081178486e-01,2.01930e-01,9.79521e-01,2.06152e-01,9.99999e-01
8.121584379e-01,2.11322e-01,9.93601e-01,2.12683e-01,9.99999e-01
8.162192301e-01,2.18976e-01,9.98583e-01,2.19287e-01,9.99999e-01
8.203003262e-01,2.25953e-01,9.99977e-01,2.25958e-01,9.99999e-01
8.244018279e-01,2.32696e-01,9.99999e-01,2.32696e-01,9.99999e-01
8.285238370e-01,2.39495e-01,9.99999e-01,2.39495e-01,9.99999e-01
8.326664562e-01,2.46352e-01,9.99999e-01,2.46352e-01,9.99999e-01
8.368297885e-01,2.53265e-01,9.99999e-01,2.53265e-01,9.99999e-01
8.410139374e-01,2.60229e-01,9.99999e-01,2.60229e-01,9.99999e-01
8.452190071e-01,2.67241e-01,9.99999e-01,2.67241e-01,9.99999e-01
8.494451021e-01,2.74299e-01,9.99999e-01,2.74299e-01,9.99999e-01
8.536923276e-01,2.81397e-01,9.99999e-01,2.81397e-01,9.99999e-01
8.579607893e-01,2.88534e-01,9.99999e-01,2.88534e-01,9.99999e-01
8.622505932e-01,2.95706e-01,9.99999e-01,2.95706e-01,9.99999e-01
8.665618462e-01,2.67179e-01,8.82043e-01,3.02909e-01,9.99999e-01
8.708946554e-01,1.24903e-01,4.02732e-01,3.10139e-01,9.99999e-01
8.752491287e-01,1.49365e-01,4.70595e-01,3.17395e-01,9.99999e-01
8.796253743e-01,2.12698e-01,6.55115e-01,3.24672e-01,9.99999e-01
8.840235012e-01,2.65793e-01,8.00660e-01,3.31967e-01,9.99999e-01
8.884436187e-01,3.10624e-01,9.15545e-01,3.39277e-01,9.99999e-01
8.928858368e-01,3.34424e-01,9.64873e-01,3.46599e-01,9.99999e-01
8.973502660e-01,3.50858e-01,9.91322e-01,3.53929e-01,9.99999e-01
9.018370173e-01,3.60918e-01,9.99038e-01,3.61266e-01,9.99999e-01
9.063462024e-01,3.59890e-01,9.76358e-01,3.68604e-01,9.99999e-01
9.108779334e-01,3.55369e-01,9.45274e-01,3.75943e-01,9.99999e-01
9.154323231e-01,3.78222e-01,9.86806e-01,3.83278e-01,9.99999e-01
9.200094847e-01,3.28747e-01,8.41629e-01,3.90608e-01,9.99999e-01
9.246095321e-01,3.02545e-01,7.60299e-01,3.97929e-01,9.99999e-01
9.292325798e-01,3.28213e-01,8.09926e-01,4.05238e-01,9.99999e-01
9.338787427e-01,3.35533e-01,8.13347e-01,4.12533e-01,9.99999e-01
9.385481364e-01,3.60345e-01,8.58348e-01,4.19811e-01,9.99999e-01
9.432408771e-01,3.88736e-01,9.10237e-01,4.27071e-01,9.99999e-01
9.479570815e-01,4.13865e-01,9.52928e-01,4.34309e-01,9.99999e-01
9.526968669e-01,4.31374e-01,9.77014e-01,4.41522e-01,9.99999e-01
9.574603512e-01,4.44267e-01,9.90096e-01,4.48710e-01,9.99999e-01
9.622476530e-01,4.54456e-01,9.96898e-01,4.55869e-01,9.99999e-01
9.670588912e-01,4.62567e-01,9.99068e-01,4.62998e-01,9.99999e-01
9.718941857e-01,4.70063e-01,9.99933e-01,4.70094e-01,9.99999e-01
9.767536566e-01,4.77155e-01,9.99999e-01,4.77155e-01,9.99999e-01
9.816374249e-01,4.84180e-01,9.99999e-01,4.84180e-01,9.99999e-01
9.865456120e-01,4.91167e-01,9.99999e-01,4.91167e-01,9.99999e-01
9.914783401e-01,4.98113e-01,9.99999e-01,4.98113e-01,9.99999e-01
9.964357318e-01,5.05018e-01,9.99999e-01,5.05018e-01,9.99999e-01
1.001417910e+00,5.11879e-01,9.99999e-01,5.11879e-01,9.99999e-01
1.006425000e+00,5.18694e-01,9.99999e-01,5.18694e-01,9.99999e-01
1.011457125e+00,5.25464e-01,9.99999e-01,5.25464e-01,9.99999e-01
1.016514411e+00,5.32185e-01,9.99999e-01,5.32185e-01,9.99999e-01
1.021596983e+00,5.38792e-01,9.99878e-01,5.38857e-01,9.99999e-01
1.026704968e+00,5.40378e-01,9.90648e-01,5.45479e-01,9.99999e-01
1.031838492e+00,5.07758e-01,9.19770e-01,5.52048e-01,9.99999e-01
1.036997685e+00,3.59875e-02,6.44285e-02,5.58565e-01,9.99999e-01
1.042182673e+00,4.66445e-03,8.25526e-03,5.65027e-01,9.99999e-01
1.047393587e+00,1.05867e-02,1.85265e-02,5.71435e-01,9.99999e-01
1.052630555e+00,4.99986e-06,8.65347e-06,5.77786e-01,9.99999e-01
1.057893707e+00,1.82283e-05,3.12085e-05,5.84081e-01,9.99999e-01
1.063183176e+00,2.62979e-04,4.45488e-04,5.90318e-01,9.99999e-01
1.068499092e+00,1.97592e-03,3.31255e-03,5.96496e-01,9.99999e-01
1.073841587e+00,1.54719e-02,2.56746e-02,6.02615e-01,9.99999e-01
1.079210795e+00,6.05663e-02,9.95053e-02,6.08673e-01,9.99999e-01
1.084606849e+00,1.67234e-01,2.72071e-01,6.14672e-01,9.99999e-01
1.090029883e+00,3.14309e-01,5.06452e-01,6.20609e-01,9.99999e-01
1.095480033e+00,4.47488e-01,7.14283e-01,6.26485e-01,9.99999e-01
1.100957433e+00,5.37333e-01,8.49808e-01,6.32298e-01,9.99999e-01
1.106462220e+00,5.96446e-01,9.34795e-01,6.38049e-01,9.99999e-01
1.111994531e+00,6.27835e-01,9.75295e-01,6.43738e-01,9.99999e-01
1.117554504e+00,6.45400e-01,9.93897e-01,6.49363e-01,9.99999e-01
1.123142276e+00,6.54661e-01,9.99596e-01,6.54924e-01,9.99999e-01
1.128757988e+00,6.60422e-01,9.99999e-01,6.60422e-01,9.99999e-01
1.134401778e+00,6.65857e-01,9.99999e-01,6.65857e-01,9.99999e-01
1.140073787e+00,6.71227e-01,9.99999e-01,6.71227e-01,9.99999e-01
1.145774156e+00,6.76533e-01,9.99999e-01,6.76533e-01,9.99999e-01
1.151503026e+00,6.81775e-01,9.99999e-01,6.81775e-01,9.99999e-01
1.157260541e+00,6.86954e-01,9.99999e-01,6.86954e-01,9.99999e-01
1.163046844e+00,6.92067e-01,9.99999e-01,6.92067e-01,9.99999e-01
1.168862078e+00,6.97117e-01,9.99999e-01,6.97117e-01,9.99999e-01
1.174706389e+00,7.02103e-01,9.99999e-01,7.02103e-01,9.99999e-01
1.180579921e+00,7.07025e-01,9.99999e-01,7.07025e-01,9.99999e-01
1.186482820e+00,7.11873e-01,9.99985e-01,7.11884e-01,9.99999e-01
1.192415234e+00,6.93655e-01,9.67875e-01,7.16678e-01,9.99999e-01
1.198377311e+00,3.81994e-01,5.29510e-01,7.21410e-01,9.99999e-01
1.204369197e+00,4.66804e-25,6.42912e-25,7.26078e-01,9.99999e-01
1.210391043e+00,3.07217e-100,4.20452e-100,7.30683e-01,9.99999e-01
1.216442998e+00,8.53007e-87,1.16020e-86,7.35226e-01,9.99999e-01
1.222525213e+00,1.69037e-85,2.28519e-85,7.39706e-01,9.99999e-01
1.228637839e+00,5.02865e-66,6.75779e-66,7.44125e-01,9.99999e-01
1.234781029e+00,3.06715e-41,4.09783e-41,7.48481e-01,9.99999e-01
1.240954934e+00,1.90268e-27,2.52754e-27,7.52777e-01,9.99999e-01
1.247159708e+00,1.88026e-13,2.48379e-13,7.57011e-01,9.99999e-01
1.253395507e+00,4.07307e-09,5.35095e-09,7.61185e-01,9.99999e-01
1.259662485e+00,1.52446e-05,1.99198e-05,7.65299e-01,9.99999e-01
1.265960797e+00,1.81986e-03,2.36544e-03,7.69353e-01,9.99999e-01
1.272290601e+00,3.97048e-02,5.13414e-02,7.73348e-01,9.99999e-01
1.278652054e+00,4.34997e-02,5.59636e-02,7.77284e-01,9.99999e-01
1.285045314e+00,1.17284e-04,1.50140e-04,7.81162e-01,9.99999e-01
1.291470541e+00,4.68965e-12,5.97420e-12,7.84982e-01,9.99999e-01
1.297927893e+00,1.82869e-05,2.31847e-05,7.88745e-01,9.99999e-01
1.304417533e+00,4.86991e-03,6.14536e-03,7.92451e-01,9.99999e-01
1.310939621e+00,1.22916e-03,1.54397e-03,7.96101e-01,9.99999e-01
1.317494319e+00,2.57668e-34,3.22208e-34,7.99694e-01,9.99999e-01
1.324081790e+00,1.17606e-22,1.46416e-22,8.03233e-01,9.99999e-01
1.330702199e+00,1.79471e-13,2.22470e-13,8.06717e-01,9.99999e-01
1.337355710e+00,1.89737e-12,2.34201e-12,8.10147e-01,9.99999e-01
1.344042489e+00,9.15489e-13,1.12534e-12,8.13523e-01,9.99999e-01
1.350762701e+00,9.16819e-14,1.12239e-13,8.16846e-01,9.99999e-01
1.357516515e+00,1.36889e-08,1.66914e-08,8.20117e-01,9.99999e-01
1.364304097e+00,2.75021e-06,3.34033e-06,8.23335e-01,9.99999e-01
1.371125618e+00,1.32077e-03,1.59802e-03,8.26503e-01,9.99999e-01
1.377981246e+00,3.29805e-03,3.97537e-03,8.29619e-01,9.99999e-01
1.384871152e+00,3.32257e-02,3.99018e-02,8.32686e-01,9.99999e-01
1.391795508e+00,4.26727e-02,5.10620e-02,8.35703e-01,9.99999e-01
1.398754485e+00,1.29928e-01,1.54921e-01,8.38671e-01,9.99999e-01
1.405748258e+00,2.15550e-01,2.56122e-01,8.41591e-01,9.99999e-01
1.412776999e+00,3.55073e-01,4.20472e-01,8.44462e-01,9.99999e-01
1.419840884e+00,3.29653e-01,3.89069e-01,8.47287e-01,9.99999e-01
1.426940089e+00,1.41731e-02,1.66730e-02,8.50065e-01,9.99999e-01
1.434074789e+00,0.00000e+00,0.00000e+00,8.52797e-01,9.99999e-01
1.441245163e+00,0.00000e+00,0.00000e+00,8.55483e-01,9.99999e-01
1.448451389e+00,0.00000e+00,0.00000e+00,8.58125e-01,9.99999e-01
1.455693646e+00,0.00000e+00,0.00000e+00,8.60722e-01,9.99999e-01
1.462972114e+00,0.00000e+00,0.00000e+00,8.63276e-01,9.99999e-01
1.470286975e+00,6.67732e-166,7.71242e-166,8.65787e-01,9.99999e-01
1.477638409e+00,3.31533e-104,3.81838e-104,8.68255e-01,9.99999e-01
1.485026601e+00,5.85152e-58,6.72062e-58,8.70681e-01,9.99999e-01
1.492451734e+00,2.26089e-49,2.58959e-49,8.73066e-01,9.99999e-01
1.499913993e+00,2.37832e-21,2.71680e-21,8.75410e-01,9.99999e-01
1.507413563e+00,4.17836e-20,4.76050e-20,8.77714e-01,9.99999e-01
1.514950631e+00,1.30030e-21,1.47764e-21,8.79978e-01,9.99999e-01
1.522525384e+00,5.02746e-74,5.69875e-74,8.82203e-01,9.99999e-01
1.530138011e+00,4.61240e-177,5.21534e-177,8.84390e-01,9.99999e-01
1.537788701e+00,6.32040e-131,7.12930e-131,8.86539e-01,9.99999e-01
1.545477645e+00,1.71517e-27,1.93009e-27,8.88650e-01,9.99999e-01
1.553205033e+00,4.61934e-20,5.18604e-20,8.90725e-01,9.99999e-01
1.560971058e+00,2.42026e-20,2.71098e-20,8.92763e-01,9.99999e-01
1.568775913e+00,0.00000e+00,0.00000e+00,8.94765e-01,9.99999e-01
1.576619793e+00,0.00000e+00,0.00000e+00,8.96733e-01,9.99999e-01
1.584502892e+00,0.00000e+00,0.00000e+00,8.98665e-01,9.99999e-01
1.592425406e+00,0.00000e+00,0.00000e+00,9.00564e-01,9.99999e-01
1.600387533e+00,0.00000e+00,0.00000e+00,9.02429e-01,9.99999e-01
1.608389471e+00,0.00000e+00,0.00000e+00,9.04261e-01,9.99999e-01
1.616431418e+00,0.00000e+00,0.00000e+00,9.06060e-01,9.99999e-01
1.624513575e+00,0.00000e+00,0.00000e+00,9.07827e-01,9.99999e-01
1.632636143e+00,0.00000e+00,0.00000e+00,9.09563e-01,9.99999e-01
1.640799324e+00,1.09597e-153,1.20269e-153,9.11268e-01,9.99999e-01
1.649003321e+00,1.09745e-153,1.20210e-153,9.12942e-01,9.99999e-01
1.657248337e+00,1.01845e-118,1.11356e-118,9.14586e-01,9.99999e-01
1.665534579e+00,1.63319e-119,1.78256e-119,9.16200e-01,9.99999e-01
1.673862252e+00,3.96146e-76,4.31632e-76,9.17785e-01,9.99999e-01
1.682231563e+00,1.19776e-52,1.30284e-52,9.19342e-01,9.99999e-01
1.690642721e+00,3.72564e-29,4.04577e-29,9.20870e-01,9.99999e-01
1.699095934e+00,1.33172e-18,1.44380e-18,9.22371e-01,9.99999e-01
1.707591414e+00,1.35630e-09,1.46810e-09,9.23844e-01,9.99999e-01
1.716129371e+00,6.34793e-06,6.86047e-06,9.25291e-01,9.99999e-01
1.724710018e+00,9.68349e-04,1.04493e-03,9.26711e-01,9.99999e-01
1.733333568e+00,9.58620e-03,1.03288e-02,9.28105e-01,9.99999e-01
1.742000236e+00,6.49640e-02,6.98933e-02,9.29474e-01,9.99999e-01
1.750710237e+00,2.53408e-04,2.72242e-04,9.30818e-01,9.99999e-01
1.759463788e+00,1.09840e-72,1.17836e-72,9.32137e-01,9.99999e-01
1.768261107e+00,4.49441e-76,4.81493e-76,9.33432e-01,9.99999e-01
1.777102413e+00,4.04453e-74,4.32707e-74,9.34703e-01,9.99999e-01
1.785987925e+00,2.15890e-69,2.30664e-69,9.35950e-01,9.99999e-01
1.794917864e+00,2.93525e-66,3.13202e-66,9.37175e-01,9.99999e-01
1.803892454e+00,1.14456e-63,1.21972e-63,9.38377e-01,9.99999e-01
1.812911916e+00,3.54124e-61,3.76906e-61,9.39556e-01,9.99999e-01
1.821976476e+00,3.08958e-61,3.28429e-61,9.40714e-01,9.99999e-01
1.831086358e+00,4.01821e-49,4.26629e-49,9.41850e-01,9.99999e-01
1.840241790e+00,7.77764e-42,8.24806e-42,9.42965e-01,9.99999e-01
1.849442999e+00,4.63420e-29,4.90879e-29,9.44060e-01,9.99999e-01
1.858690214e+00,2.35239e-27,2.48895e-27,9.45134e-01,9.99999e-01
1.867983665e+00,6.30753e-28,6.66625e-28,9.46188e-01,9.99999e-01
1.877323583e+00,3.81884e-139,4.03162e-139,9.47222e-01,9.99999e-01
