#,Wave/freq,Total,CO2,Rayleigh,CIA
4.000000000e-01,2.41303e-16,9.99999e-01,2.41303e-16,9.99999e-01
4.020000000e-01,4.91308e-16,9.99999e-01,4.91308e-16,9.99999e-01
4.040100000e-01,9.85684e-16,9.99999e-01,9.85684e-16,9.99999e-01
4.060300500e-01,1.95051e-15,9.99999e-01,1.95051e-15,9.99999e-01
4.080602003e-01,3.80807e-15,9.99999e-01,3.80807e-15,9.99999e-01
4.101005013e-01,7.33705e-15,9.99999e-01,7.33705e-15,9.99999e-01
4.121510038e-01,1.39544e-14,9.99999e-01,1.39544e-14,9.99999e-01
4.142117588e-01,2.62053e-14,9.99999e-01,2.62053e-14,9.99999e-01
4.162828176e-01,4.86025e-14,9.99999e-01,4.86025e-14,9.99999e-01
4.183642317e-01,8.90493e-14,9.99999e-01,8.90493e-14,9.99999e-01
4.204560528e-01,1.61216e-13,9.99999e-01,1.61216e-13,9.99999e-01
4.225583331e-01,2.88465e-13,9.99999e-01,2.88465e-13,9.99999e-01
4.246711247e-01,5.10255e-13,9.99999e-01,5.10255e-13,9.99999e-01
4.267944804e-01,8.92460e-13,9.99999e-01,8.92460e-13,9.99999e-01
4.289284528e-01,1.54381e-12,9.99999e-01,1.54381e-12,9.99999e-01
4.310730950e-01,2.64180e-12,9.99999e-01,2.64180e-12,9.99999e-01
4.332284605e-01,4.47296e-12,9.99999e-01,4.47296e-12,9.99999e-01
4.353946028e-01,7.49504e-12,9.99999e-01,7.49504e-12,9.99999e-01
4.375715758e-01,1.24315e-11,9.99999e-01,1.24315e-11,9.99999e-01
4.397594337e-01,2.04143e-11,9.99999e-01,2.04143e-11,9.99999e-01
4.419582309e-01,3.31964e-11,9.99999e-01,3.31964e-11,9.99999e-01
4.441680220e-01,5.34656e-11,9.99999e-01,5.34656e-11,9.99999e-01
4.463888621e-01,8.53043e-11,9.99999e-01,8.53043e-11,9.99999e-01
4.486208064e-01,1.34853e-10,9.99999e-01,1.34853e-10,9.99999e-01
4.508639105e-01,2.11261e-10,9.99999e-01,2.11261e-10,9.99999e-01
4.531182300e-01,3.28041e-10,9.99999e-01,3.28041e-10,9.99999e-01
4.553838212e-01,5.04965e-10,9.99999e-01,5.04965e-10,9.99999e-01
4.576607403e-01,7.70717e-10,9.99999e-01,7.70717e-10,9.99999e-01
4.599490440e-01,1.16655e-09,9.99999e-01,1.16655e-09,9.99999e-01
4.622487892e-01,1.75127e-09,9.99999e-01,1.75127e-09,9.99999e-01
4.645600332e-01,2.60806e-09,9.99999e-01,2.60806e-09,9.99999e-01
4.668828333e-01,3.85360e-09,9.99999e-01,3.85360e-09,9.99999e-01
4.692172475e-01,5.65024e-09,9.99999e-01,5.65024e-09,9.99999e-01
4.715633337e-01,8.22212e-09,9.99999e-01,8.22212e-09,9.99999e-01
4.739211504e-01,1.18764e-08,9.99999e-01,1.18764e-08,9.99999e-01
4.762907561e-01,1.70305e-08,9.99999e-01,1.70305e-08,9.99999e-01
4.786722099e-01,2.42482e-08,9.99999e-01,2.42482e-08,9.99999e-01
4.810655710e-01,3.42848e-08,9.99999e-01,3.42848e-08,9.99999e-01
4.834708988e-01,4.81451e-08,9.99999e-01,4.81451e-08,9.99999e-01
4.858882533e-01,6.71567e-08,9.99999e-01,6.71567e-08,9.99999e-01
4.883176946e-01,9.30620e-08,9.99999e-01,9.30620e-08,9.99999e-01
4.907592831e-01,1.28132e-07,9.99999e-01,1.28132e-07,9.99999e-01
4.932130795e-01,1.75306e-07,9.99999e-01,1.75306e-07,9.99999e-01
4.956791449e-01,2.38369e-07,9.99999e-01,2.38369e-07,9.99999e-01
4.981575406e-01,3.22155e-07,9.99999e-01,3.22155e-07,9.99999e-01
5.006483283e-01,4.32809e-07,9.99999e-01,4.32809e-07,9.99999e-01
5.031515699e-01,5.78090e-07,9.99999e-01,5.78090e-07,9.99999e-01
5.056673278e-01,7.67735e-07,9.99999e-01,7.67735e-07,9.99999e-01
5.081956644e-01,1.01390e-06,9.99999e-01,1.01390e-06,9.99999e-01
5.107366428e-01,1.33165e-06,9.99999e-01,1.33165e-06,9.99999e-01
5.132903260e-01,1.73959e-06,9.99999e-01,1.73959e-06,9.99999e-01
5.158567776e-01,2.26055e-06,9.99999e-01,2.26055e-06,9.99999e-01
5.184360615e-01,2.92235e-06,9.99999e-01,2.92235e-06,9.99999e-01
5.210282418e-01,3.75878e-06,9.99999e-01,3.75878e-06,9.99999e-01
5.236333830e-01,4.81065e-06,9.99999e-01,4.81065e-06,9.99999e-01
5.262515499e-01,6.12693e-06,9.99999e-01,6.12693e-06,9.99999e-01
5.288828077e-01,7.76619e-06,9.99999e-01,7.76619e-06,9.99999e-01
5.315272217e-01,9.79804e-06,9.99999e-01,9.79804e-06,9.99999e-01
5.341848578e-01,1.23049e-05,9.99999e-01,1.23049e-05,9.99999e-01
5.368557821e-01,1.53837e-05,9.99999e-01,1.53837e-05,9.99999e-01
5.395400610e-01,1.91482e-05,9.99999e-01,1.91482e-05,9.99999e-01
5.422377613e-01,2.37310e-05,9.99999e-01,2.37310e-05,9.99999e-01
5.449489501e-01,2.92864e-05,9.99999e-01,2.92864e-05,9.99999e-01
5.476736949e-01,3.59924e-05,9.99999e-01,3.59924e-05,9.99999e-01
5.504120634e-01,4.40541e-05,9.99999e-01,4.40541e-05,9.99999e-01
5.531641237e-01,5.37067e-05,9.99999e-01,5.37067e-05,9.99999e-01
5.559299443e-01,6.52185e-05,9.99999e-01,6.52185e-05,9.99999e-01
5.587095940e-01,7.88946e-05,9.99999e-01,7.88946e-05,9.99999e-01
5.615031420e-01,9.50803e-05,9.99999e-01,9.50803e-05,9.99999e-01
5.643106577e-01,1.14165e-04,9.99999e-01,1.14165e-04,9.99999e-01
5.671322110e-01,1.36586e-04,9.99999e-01,1.36586e-04,9.99999e-01
5.699678720e-01,1.62833e-04,9.99999e-01,1.62833e-04,9.99999e-01
5.728177114e-01,1.93450e-04,9.99999e-01,1.93450e-04,9.99999e-01
5.756818000e-01,2.29044e-04,9.99999e-01,2.29044e-04,9.99999e-01
5.785602090e-01,2.70284e-04,9.99999e-01,2.70284e-04,9.99999e-01
5.814530100e-01,3.17907e-04,9.99999e-01,3.17907e-04,9.99999e-01
5.843602750e-01,3.72725e-04,9.99999e-01,3.72725e-04,9.99999e-01
5.872820764e-01,4.35624e-04,9.99999e-01,4.35624e-04,9.99999e-01
5.902184868e-01,5.07572e-04,9.99999e-01,5.07572e-04,9.99999e-01
5.931695792e-01,5.89620e-04,9.99999e-01,5.89620e-04,9.99999e-01
5.961354271e-01,6.82907e-04,9.99999e-01,6.82907e-04,9.99999e-01
5.991161043e-01,7.88662e-04,9.99999e-01,7.88662e-04,9.99999e-01
6.021116848e-01,9.08207e-04,9.99999e-01,9.08207e-04,9.99999e-01
6.051222432e-01,1.04296e-03,9.99999e-01,1.04296e-03,9.99999e-01
6.081478544e-01,1.19444e-03,9.99999e-01,1.19444e-03,9.99999e-01
6.111885937e-01,1.36426e-03,9.99999e-01,1.36426e-03,9.99999e-01
6.142445367e-01,1.55414e-03,9.99999e-01,1.55414e-03,9.99999e-01
6.173157594e-01,1.76590e-03,9.99999e-01,1.76590e-03,9.99999e-01
6.204023382e-01,2.00145e-03,9.99999e-01,2.00145e-03,9.99999e-01
6.235043498e-01,2.26282e-03,9.99999e-01,2.26282e-03,9.99999e-01
6.266218716e-01,2.55213e-03,9.99999e-01,2.55213e-03,9.99999e-01
6.297549810e-01,2.87159e-03,9.99999e-01,2.87159e-03,9.99999e-01
6.329037559e-01,3.22352e-03,9.99999e-01,3.22352e-03,9.99999e-01
6.360682746e-01,3.61034e-03,9.99999e-01,3.61034e-03,9.99999e-01
6.392486160e-01,4.03452e-03,9.99999e-01,4.03452e-03,9.99999e-01
6.424448591e-01,4.49866e-03,9.99999e-01,4.49866e-03,9.99999e-01
6.456570834e-01,5.00542e-03,9.99999e-01,5.00542e-03,9.99999e-01
6.488853688e-01,5.55754e-03,9.99999e-01,5.55754e-03,9.99999e-01
6.521297956e-01,6.15782e-03,9.99999e-01,6.15782e-03,9.99999e-01
6.553904446e-01,6.80912e-03,9.99999e-01,6.80912e-03,9.99999e-01
6.586673968e-01,7.51438e-03,9.99999e-01,7.51438e-03,9.99999e-01
6.619607338e-01,8.27655e-03,9.99999e-01,8.27655e-03,9.99999e-01
6.652705375e-01,9.09865e-03,9.99999e-01,9.09865e-03,9.99999e-01
6.685968902e-01,9.98372e-03,9.99999e-01,9.98372e-03,9.99999e-01
6.719398746e-01,1.09348e-02,9.99999e-01,1.09348e-02,9.99999e-01
6.752995740e-01,1.19550e-02,9.99999e-01,1.19550e-02,9.99999e-01
6.786760719e-01,1.30474e-02,9.99999e-01,1.30474e-02,9.99999e-01
6.820694522e-01,1.42150e-02,9.99999e-01,1.42150e-02,9.99999e-01
6.854797995e-01,1.54609e-02,9.99999e-01,1.54609e-02,9.99999e-01
6.889071985e-01,1.67881e-02,9.99999e-01,1.67881e-02,9.99999e-01
6.923517345e-01,1.81996e-02,9.99999e-01,1.81996e-02,9.99999e-01
6.958134932e-01,1.96983e-02,9.99999e-01,1.96983e-02,9.99999e-01
6.992925606e-01,2.12872e-02,9.99999e-01,2.12872e-02,9.99999e-01
7.027890234e-01,2.29690e-02,9.99999e-01,2.29690e-02,9.99999e-01
7.063029686e-01,2.47465e-02,9.99999e-01,2.47465e-02,9.99999e-01
7.098344834e-01,2.66223e-02,9.99999e-01,2.66223e-02,9.99999e-01
7.133836558e-01,2.85990e-02,9.99999e-01,2.85990e-02,9.99999e-01
7.169505741e-01,3.06791e-02,9.99999e-01,3.06791e-02,9.99999e-01
7.205353270e-01,3.28648e-02,9.99999e-01,3.28648e-02,9.99999e-01
7.241380036e-01,3.51584e-02,9.99999e-01,3.51584e-02,9.99999e-01
7.277586936e-01,3.75620e-02,9.99999e-01,3.75620e-02,9.99999e-01
7.313974871e-01,4.00775e-02,9.99999e-01,4.00775e-02,9.99999e-01
7.350544745e-01,4.27068e-02,9.99999e-01,4.27068e-02,9.99999e-01
7.387297469e-01,4.54515e-02,9.99999e-01,4.54515e-02,9.99999e-01
7.424233956e-01,4.83131e-02,9.99999e-01,4.83131e-02,9.99999e-01
7.461355126e-01,5.12930e-02,9.99999e-01,5.12930e-02,9.99999e-01
7.498661902e-01,5.43923e-02,9.99999e-01,5.43923e-02,9.99999e-01
7.536155211e-01,5.76121e-02,9.99999e-01,5.76121e-02,9.99999e-01
7.573835987e-01,6.09532e-02,9.99999e-01,6.09532e-02,9.99999e-01
7.611705167e-01,6.44163e-02,9.99999e-01,6.44163e-02,9.99999e-01
7.649763693e-01,6.80019e-02,9.99999e-01,6.80019e-02,9.99999e-01
7.688012511e-01,7.17103e-02,9.99999e-01,7.17103e-02,9.99999e-01
7.726452574e-01,7.55417e-02,9.99999e-01,7.55417e-02,9.99999e-01
7.765084837e-01,7.94960e-02,9.99999e-01,7.94960e-02,9.99999e-01
7.803910261e-01,7.53949e-02,9.02143e-01,8.35730e-02,9.99999e-01
7.842929812e-01,5.38250e-02,6.13233e-01,8.77724e-02,9.99999e-01
7.882144461e-01,5.48070e-02,5.95122e-01,9.20936e-02,9.99999e-01
7.921555184e-01,6.99879e-02,7.24993e-01,9.65358e-02,9.99999e-01
7.961162960e-01,8.14321e-02,8.05475e-01,1.01098e-01,9.99999e-01
8.000968774e-01,9.40332e-02,8.88953e-01,1.05780e-01,9.99999e-01
8.040973618e-01,1.04054e-01,9.40989e-01,1.10579e-01,9.99999e-01
8.081178486e-01,1.12297e-01,9.72307e-01,1.15495e-01,9.99999e-01
8.121584379e-01,1.19498e-01,9.91471e-01,1.20526e-01,9.99999e-01
8.162192301e-01,1.25432e-01,9.98108e-01,1.25670e-01,9.99999e-01
8.203003262e-01,1.30922e-01,9.99974e-01,1.30925e-01,9.99999e-01
8.244018279e-01,1.36290e-01,9.99999e-01,1.36290e-01,9.99999e-01
8.285238370e-01,1.41762e-01,9.99999e-01,1.41762e-01,9.99999e-01
8.326664562e-01,1.47339e-01,9.99999e-01,1.47339e-01,9.99999e-01
8.368297885e-01,1.53019e-01,9.99999e-01,1.53019e-01,9.99999e-01
8.410139374e-01,1.58800e-01,9.99999e-01,1.58800e-01,9.99999e-01
8.452190071e-01,1.64678e-01,9.99999e-01,1.64678e-01,9.99999e-01
8.494451021e-01,1.70651e-01,9.99999e-01,1.70651e-01,9.99999e-01
8.536923276e-01,1.76716e-01,9.99999e-01,1.76716e-01,9.99999e-01
8.579607893e-01,1.82871e-01,9.99999e-01,1.82871e-01,9.99999e-01
8.622505932e-01,1.89112e-01,9.99999e-01,1.89112e-01,9.99999e-01
8.665618462e-01,1.67564e-01,8.57382e-01,1.95436e-01,9.99999e-01
8.708946554e-01,6.04718e-02,2.99600e-01,2.01841e-01,9.99999e-01
8.752491287e-01,7.62513e-02,3.66024e-01,2.08323e-01,9.99999e-01
8.796253743e-01,1.22021e-01,5.67859e-01,2.14879e-01,9.99999e-01
8.840235012e-01,1.64157e-01,7.41097e-01,2.21506e-01,9.99999e-01
8.884436187e-01,2.02700e-01,8.88255e-01,2.28200e-01,9.99999e-01
8.928858368e-01,2.23893e-01,9.52906e-01,2.34958e-01,9.99999e-01
8.973502660e-01,2.38977e-01,9.88420e-01,2.41777e-01,9.99999e-01
9.018370173e-01,2.48335e-01,9.98722e-01,2.48653e-01,9.99999e-01
9.063462024e-01,2.47162e-01,9.67051e-01,2.55583e-01,9.99999e-01
9.108779334e-01,2.43305e-01,9.26648e-01,2.62564e-01,9.99999e-01
9.154323231e-01,2.64871e-01,9.82490e-01,2.69592e-01,9.99999e-01
9.200094847e-01,2.20282e-01,7.96208e-01,2.76663e-01,9.99999e-01
9.246095321e-01,1.95852e-01,6.90165e-01,2.83775e-01,9.99999e-01
9.292325798e-01,2.18131e-01,7.49786e-01,2.90924e-01,9.99999e-01
9.338787427e-01,2.25488e-01,7.56401e-01,2.98106e-01,9.99999e-01
9.385481364e-01,2.48200e-01,8.12921e-01,3.05319e-01,9.99999e-01
9.432408771e-01,2.75216e-01,8.80526e-01,3.12558e-01,9.99999e-01
9.479570815e-01,2.99542e-01,9.36591e-01,3.19821e-01,9.99999e-01
9.526968669e-01,3.16971e-01,9.69019e-01,3.27104e-01,9.99999e-01
9.574603512e-01,3.29935e-01,9.86632e-01,3.34405e-01,9.99999e-01
9.622476530e-01,3.40290e-01,9.95817e-01,3.41719e-01,9.99999e-01
9.670588912e-01,3.48607e-01,9.98747e-01,3.49044e-01,9.99999e-01
9.718941857e-01,3.56346e-01,9.99913e-01,3.56377e-01,9.99999e-01
9.767536566e-01,3.63715e-01,9.99999e-01,3.63715e-01,9.99999e-01
9.816374249e-01,3.71054e-01,9.99999e-01,3.71054e-01,9.99999e-01
9.865456120e-01,3.78392e-01,9.99999e-01,3.78392e-01,9.99999e-01
9.914783401e-01,3.85725e-01,9.99999e-01,3.85725e-01,9.99999e-01
9.964357318e-01,3.93052e-01,9.99999e-01,3.93052e-01,9.99999e-01
1.001417910e+00,4.00369e-01,9.99999e-01,4.00369e-01,9.99999e-01
1.006425000e+00,4.07674e-01,9.99999e-01,4.07674e-01,9.99999e-01
1.011457125e+00,4.14964e-01,9.99999e-01,4.14964e-01,9.99999e-01
1.016514411e+00,4.22236e-01,9.99999e-01,4.22236e-01,9.99999e-01
1.021596983e+00,4.29399e-01,9.99791e-01,4.29489e-01,9.99999e-01
1.026704968e+00,4.30937e-01,9.86760e-01,4.36719e-01,9.99999e-01
1.031838492e+00,3.96578e-01,8.93345e-01,4.43924e-01,9.99999e-01
1.036997685e+00,1.99288e-02,4.41780e-02,4.51103e-01,9.99999e-01
1.042182673e+00,1.01369e-03,2.21209e-03,4.58252e-01,9.99999e-01
1.047393587e+00,2.71183e-03,5.82725e-03,4.65370e-01,9.99999e-01
1.052630555e+00,1.49645e-07,3.16740e-07,4.72455e-01,9.99999e-01
1.057893707e+00,5.78721e-07,1.20692e-06,4.79504e-01,9.99999e-01
1.063183176e+00,2.10085e-05,4.31815e-05,4.86516e-01,9.99999e-01
1.068499092e+00,2.42880e-04,4.92168e-04,4.93490e-01,9.99999e-01
1.073841587e+00,3.66376e-03,7.32132e-03,5.00422e-01,9.99999e-01
1.079210795e+00,2.33387e-02,4.60046e-02,5.07312e-01,9.99999e-01
1.084606849e+00,8.91396e-02,1.73370e-01,5.14158e-01,9.99999e-01
1.090029883e+00,2.07613e-01,3.98520e-01,5.20959e-01,9.99999e-01
1.095480033e+00,3.34891e-01,6.34609e-01,5.27712e-01,9.99999e-01
1.100957433e+00,4.28642e-01,8.02072e-01,5.34417e-01,9.99999e-01
1.106462220e+00,4.93900e-01,9.12816e-01,5.41073e-01,9.99999e-01
1.111994531e+00,5.29441e-01,9.66701e-01,5.47677e-01,9.99999e-01
1.117554504e+00,5.49695e-01,9.91817e-01,5.54229e-01,9.99999e-01
1.123142276e+00,5.60428e-01,9.99465e-01,5.60728e-01,9.99999e-01
1.128757988e+00,5.67172e-01,9.99999e-01,5.67172e-01,9.99999e-01
1.134401778e+00,5.73561e-01,9.99999e-01,5.73561e-01,9.99999e-01
1.140073787e+00,5.79893e-01,9.99999e-01,5.79893e-01,9.99999e-01
1.145774156e+00,5.86169e-01,9.99999e-01,5.86169e-01,9.99999e-01
1.151503026e+00,5.92386e-01,9.99999e-01,5.92386e-01,9.99999e-01
1.157260541e+00,5.98544e-01,9.99999e-01,5.98544e-01,9.99999e-01
1.163046844e+00,6.04643e-01,9.99999e-01,6.04643e-01,9.99999e-01
1.168862078e+00,6.10682e-01,9.99999e-01,6.10682e-01,9.99999e-01
1.174706389e+00,6.16660e-01,9.99999e-01,6.16660e-01,9.99999e-01
1.180579921e+00,6.22577e-01,9.99999e-01,6.22577e-01,9.99999e-01
1.186482820e+00,6.28412e-01,9.99967e-01,6.28432e-01,9.99999e-01
1.192415234e+00,6.05710e-01,9.55040e-01,6.34224e-01,9.99999e-01
1.198377311e+00,3.25051e-01,5.07927e-01,6.39955e-01,9.99999e-01
1.204369197e+00,1.96295e-33,3.04039e-33,6.45622e-01,9.99999e-01
1.210391043e+00,3.14634e-136,4.83140e-136,6.51226e-01,9.99999e-01
1.216442998e+00,7.57318e-118,1.15310e-117,6.56766e-01,9.99999e-01
1.222525213e+00,4.49175e-116,6.78263e-116,6.62243e-01,9.99999e-01
1.228637839e+00,1.74209e-89,2.60927e-89,6.67656e-01,9.99999e-01
1.234781029e+00,1.46778e-55,2.18093e-55,6.73005e-01,9.99999e-01
1.240954934e+00,8.92599e-37,1.31595e-36,6.78290e-01,9.99999e-01
1.247159708e+00,1.44513e-17,2.11428e-17,6.83511e-01,9.99999e-01
1.253395507e+00,6.03990e-12,8.77041e-12,6.88667e-01,9.99999e-01
1.259662485e+00,4.33671e-07,6.25102e-07,6.93760e-01,9.99999e-01
1.265960797e+00,2.95122e-04,4.22333e-04,6.98788e-01,9.99999e-01
1.272290601e+00,1.73382e-02,2.46368e-02,7.03753e-01,9.99999e-01
1.278652054e+00,1.59755e-02,2.25434e-02,7.08654e-01,9.99999e-01
1.285045314e+00,1.06033e-05,1.48611e-05,7.13491e-01,9.99999e-01
1.291470541e+00,6.37794e-16,8.87964e-16,7.18264e-01,9.99999e-01
1.297927893e+00,1.26625e-05,1.75144e-05,7.22975e-01,9.99999e-01
1.304417533e+00,7.75645e-04,1.06600e-03,7.27622e-01,9.99999e-01
1.310939621e+00,1.49787e-04,2.04569e-04,7.32206e-01,9.99999e-01
1.317494319e+00,6.87940e-47,9.33777e-47,7.36728e-01,9.99999e-01
1.324081790e+00,2.21231e-21,2.98482e-21,7.41188e-01,9.99999e-01
1.330702199e+00,5.80757e-18,7.78926e-18,7.45585e-01,9.99999e-01
1.337355710e+00,3.06523e-16,4.08740e-16,7.49922e-01,9.99999e-01
1.344042489e+00,1.70609e-19,2.26213e-19,7.54197e-01,9.99999e-01
1.350762701e+00,2.89871e-18,3.82208e-18,7.58411e-01,9.99999e-01
1.357516515e+00,4.73214e-11,6.20555e-11,7.62565e-01,9.99999e-01
1.364304097e+00,3.59341e-08,4.68711e-08,7.66659e-01,9.99999e-01
1.371125618e+00,1.46007e-04,1.89448e-04,7.70693e-01,9.99999e-01
1.377981246e+00,4.51933e-04,5.83388e-04,7.74668e-01,9.99999e-01
1.384871152e+00,9.97279e-03,1.28089e-02,7.78585e-01,9.99999e-01
1.391795508e+00,1.43971e-02,1.84001e-02,7.82444e-01,9.99999e-01
1.398754485e+00,6.22069e-02,7.91189e-02,7.86244e-01,9.99999e-01
1.405748258e+00,1.25553e-01,1.58930e-01,7.89988e-01,9.99999e-01
1.412776999e+00,2.45759e-01,3.09647e-01,7.93675e-01,9.99999e-01
1.419840884e+00,2.31473e-01,2.90318e-01,7.97306e-01,9.99999e-01
1.426940089e+00,7.71911e-03,9.63826e-03,8.00882e-01,9.99999e-01
1.434074789e+00,0.00000e+00,0.00000e+00,8.04402e-01,9.99999e-01
1.441245163e+00,0.00000e+00,0.00000e+00,8.07868e-01,9.99999e-01
1.448451389e+00,0.00000e+00,0.00000e+00,8.11279e-01,9.99999e-01
1.455693646e+00,0.00000e+00,0.00000e+00,8.14638e-01,9.99999e-01
1.462972114e+00,0.00000e+00,0.00000e+00,8.17943e-01,9.99999e-01
1.470286975e+00,5.29068e-226,6.44265e-226,8.21197e-01,9.99999e-01
1.477638409e+00,1.19161e-141,1.44543e-141,8.24398e-01,9.99999e-01
1.485026601e+00,2.02678e-78,2.44914e-78,8.27549e-01,9.99999e-01
1.492451734e+00,9.91166e-67,1.19324e-66,8.30648e-01,9.99999e-01
1.499913993e+00,2.28462e-28,2.74034e-28,8.33698e-01,9.99999e-01
1.507413563e+00,4.11605e-27,4.91939e-27,8.36699e-01,9.99999e-01
1.514950631e+00,1.00682e-28,1.19909e-28,8.39651e-01,9.99999e-01
1.522525384e+00,2.18986e-100,2.59907e-100,8.42554e-01,9.99999e-01
1.530138011e+00,2.85102e-241,3.37235e-241,8.45410e-01,9.99999e-01
1.537788701e+00,3.45690e-178,4.07548e-178,8.48219e-01,9.99999e-01
1.545477645e+00,9.18870e-37,1.07978e-36,8.50982e-01,9.99999e-01
1.553205033e+00,6.52141e-27,7.63900e-27,8.53698e-01,9.99999e-01
1.560971058e+00,4.35708e-27,5.08784e-27,8.56370e-01,9.99999e-01
1.568775913e+00,0.00000e+00,0.00000e+00,8.58997e-01,9.99999e-01
1.576619793e+00,0.00000e+00,0.00000e+00,8.61579e-01,9.99999e-01
1.584502892e+00,0.00000e+00,0.00000e+00,8.64119e-01,9.99999e-01
1.592425406e+00,0.00000e+00,0.00000e+00,8.66615e-01,9.99999e-01
1.600387533e+00,0.00000e+00,0.00000e+00,8.69069e-01,9.99999e-01
1.608389471e+00,0.00000e+00,0.00000e+00,8.71481e-01,9.99999e-01
1.616431418e+00,0.00000e+00,0.00000e+00,8.73852e-01,9.99999e-01
1.624513575e+00,0.00000e+00,0.00000e+00,8.76183e-01,9.99999e-01
1.632636143e+00,0.00000e+00,0.00000e+00,8.78474e-01,9.99999e-01
1.640799324e+00,2.64823e-209,3.00688e-209,8.80725e-01,9.99999e-01
1.649003321e+00,2.65310e-209,3.00486e-209,8.82937e-01,9.99999e-01
1.657248337e+00,1.70241e-161,1.92338e-161,8.85111e-01,9.99999e-01
1.665534579e+00,1.39288e-162,1.56989e-162,8.87247e-01,9.99999e-01
1.673862252e+00,2.90818e-103,3.27001e-103,8.89346e-01,9.99999e-01
1.682231563e+00,3.69815e-71,4.14865e-71,8.91409e-01,9.99999e-01
1.690642721e+00,4.89664e-39,5.48068e-39,8.93435e-01,9.99999e-01
1.699095934e+00,1.06208e-24,1.18612e-24,8.95426e-01,9.99999e-01
1.707591414e+00,2.53088e-12,2.82029e-12,8.97382e-01,9.99999e-01
1.716129371e+00,1.47194e-07,1.63676e-07,8.99303e-01,9.99999e-01
1.724710018e+00,1.03567e-04,1.14922e-04,9.01190e-01,9.99999e-01
1.733333568e+00,1.93394e-03,2.14158e-03,9.03044e-01,9.99999e-01
1.742000236e+00,2.52156e-02,2.78667e-02,9.04865e-01,9.99999e-01
1.750710237e+00,3.75460e-05,4.14116e-05,9.06653e-01,9.99999e-01
1.759463788e+00,1.45224e-98,1.59866e-98,9.08410e-01,9.99999e-01
1.768261107e+00,3.46768e-103,3.81007e-103,9.10135e-01,9.99999e-01
1.777102413e+00,1.27771e-100,1.40126e-100,9.11830e-01,9.99999e-01
1.785987925e+00,4.73930e-94,5.18810e-94,9.13494e-01,9.99999e-01
1.794917864e+00,9.00139e-90,9.83621e-90,9.15128e-01,9.99999e-01
1.803892454e+00,3.18617e-86,3.47558e-86,9.16732e-01,9.99999e-01
1.812911916e+00,7.88197e-83,8.58314e-83,9.18308e-01,9.99999e-01
1.821976476e+00,6.72118e-83,7.30677e-83,9.19855e-01,9.99999e-01
1.831086358e+00,2.45769e-66,2.66741e-66,9.21374e-01,9.99999e-01
1.840241790e+00,2.06844e-56,2.24133e-56,9.22866e-01,9.99999e-01
1.849442999e+00,4.27578e-39,4.62581e-39,9.24330e-01,9.99999e-01
1.858690214e+00,7.75626e-37,8.37818e-37,9.25768e-01,9.99999e-01
1.867983665e+00,2.21842e-37,2.39265e-37,9.27179e-01,9.99999e-01
1.877323583e+00,1.99700e-189,2.15063e-189,9.28565e-01,9.99999e-01
