#,Wave/freq,Total,CO2,Rayleigh,CIA
4.000000000e-01,4.57353e-10,9.99999e-01,4.57353e-10,9.99999e-01
4.020000000e-01,6.99720e-10,9.99999e-01,6.99720e-10,9.99999e-01
4.040100000e-01,1.06111e-09,9.99999e-01,1.06111e-09,9.99999e-01
4.060300500e-01,1.59596e-09,9.99999e-01,1.59596e-09,9.99999e-01
4.080602003e-01,2.38114e-09,9.99999e-01,2.38114e-09,9.99999e-01
4.101005013e-01,3.52464e-09,9.99999e-01,3.52464e-09,9.99999e-01
4.121510038e-01,5.17703e-09,9.99999e-01,5.17703e-09,9.99999e-01
4.142117588e-01,7.54654e-09,9.99999e-01,7.54654e-09,9.99999e-01
4.162828176e-01,1.09190e-08,9.99999e-01,1.09190e-08,9.99999e-01
4.183642317e-01,1.56837e-08,9.99999e-01,1.56837e-08,9.99999e-01
4.204560528e-01,2.23670e-08,9.99999e-01,2.23670e-08,9.99999e-01
4.225583331e-01,3.16754e-08,9.99999e-01,3.16754e-08,9.99999e-01
4.246711247e-01,4.45503e-08,9.99999e-01,4.45503e-08,9.99999e-01
4.267944804e-01,6.22378e-08,9.99999e-01,6.22378e-08,9.99999e-01
4.289284528e-01,8.63753e-08,9.99999e-01,8.63753e-08,9.99999e-01
4.310730950e-01,1.19100e-07,9.99999e-01,1.19100e-07,9.99999e-01
4.332284605e-01,1.63185e-07,9.99999e-01,1.63185e-07,9.99999e-01
4.353946028e-01,2.22202e-07,9.99999e-01,2.22202e-07,9.99999e-01
4.375715758e-01,3.00722e-07,9.99999e-01,3.00722e-07,9.99999e-01
4.397594337e-01,4.04565e-07,9.99999e-01,4.04565e-07,9.99999e-01
4.419582309e-01,5.41086e-07,9.99999e-01,5.41086e-07,9.99999e-01
4.441680220e-01,7.19531e-07,9.99999e-01,7.19531e-07,9.99999e-01
4.463888621e-01,9.51454e-07,9.99999e-01,9.51454e-07,9.99999e-01
4.486208064e-01,1.25121e-06,9.99999e-01,1.25121e-06,9.99999e-01
4.508639105e-01,1.63652e-06,9.99999e-01,1.63652e-06,9.99999e-01
4.531182300e-01,2.12918e-06,9.99999e-01,2.12918e-06,9.99999e-01
4.553838212e-01,2.75577e-06,9.99999e-01,2.75577e-06,9.99999e-01
4.576607403e-01,3.54864e-06,9.99999e-01,3.54864e-06,9.99999e-01
4.599490440e-01,4.54687e-06,9.99999e-01,4.54687e-06,9.99999e-01
4.622487892e-01,5.79743e-06,9.99999e-01,5.79743e-06,9.99999e-01
4.645600332e-01,7.35656e-06,9.99999e-01,7.35656e-06,9.99999e-01
4.668828333e-01,9.29117e-06,9.99999e-01,9.29117e-06,9.99999e-01
4.692172475e-01,1.16806e-05,9.99999e-01,1.16806e-05,9.99999e-01
4.715633337e-01,1.46182e-05,9.99999e-01,1.46182e-05,9.99999e-01
4.739211504e-01,1.82137e-05,9.99999e-01,1.82137e-05,9.99999e-01
4.762907561e-01,2.25953e-05,9.99999e-01,2.25953e-05,9.99999e-01
4.786722099e-01,2.79118e-05,9.99999e-01,2.79118e-05,9.99999e-01
4.810655710e-01,3.43356e-05,9.99999e-01,3.43356e-05,9.99999e-01
4.834708988e-01,4.20653e-05,9.99999e-01,4.20653e-05,9.99999e-01
4.858882533e-01,5.13290e-05,9.99999e-01,5.13290e-05,9.99999e-01
4.883176946e-01,6.23869e-05,9.99999e-01,6.23869e-05,9.99999e-01
4.907592831e-01,7.55355e-05,9.99999e-01,7.55355e-05,9.99999e-01
4.932130795e-01,9.11103e-05,9.99999e-01,9.11103e-05,9.99999e-01
4.956791449e-01,1.09490e-04,9.99999e-01,1.09490e-04,9.99999e-01
4.981575406e-01,1.31102e-04,9.99999e-01,1.31102e-04,9.99999e-01
5.006483283e-01,1.56421e-04,9.99999e-01,1.56421e-04,9.99999e-01
5.031515699e-01,1.85980e-04,9.99999e-01,1.85980e-04,9.99999e-01
5.056673278e-01,2.20371e-04,9.99999e-01,2.20371e-04,9.99999e-01
5.081956644e-01,2.60247e-04,9.99999e-01,2.60247e-04,9.99999e-01
5.107366428e-01,3.06331e-04,9.99999e-01,3.06331e-04,9.99999e-01
5.132903260e-01,3.59416e-04,9.99999e-01,3.59416e-04,9.99999e-01
5.158567776e-01,4.20371e-04,9.99999e-01,4.20371e-04,9.99999e-01
5.184360615e-01,4.90145e-04,9.99999e-01,4.90145e-04,9.99999e-01
5.210282418e-01,5.69769e-04,9.99999e-01,5.69769e-04,9.99999e-01
5.236333830e-01,6.60362e-04,9.99999e-01,6.60362e-04,9.99999e-01
5.262515499e-01,7.63131e-04,9.99999e-01,7.63131e-04,9.99999e-01
5.288828077e-01,8.79378e-04,9.99999e-01,8.79378e-04,9.99999e-01
5.315272217e-01,1.01050e-03,9.99999e-01,1.01050e-03,9.99999e-01
5.341848578e-01,1.15799e-03,9.99999e-01,1.15799e-03,9.99999e-01
5.368557821e-01,1.32344e-03,9.99999e-01,1.32344e-03,9.99999e-01
5.395400610e-01,1.50854e-03,9.99999e-01,1.50854e-03,9.99999e-01
5.422377613e-01,1.71509e-03,9.99999e-01,1.71509e-03,9.99999e-01
5.449489501e-01,1.94499e-03,9.99999e-01,1.94499e-03,9.99999e-01
5.476736949e-01,2.20022e-03,9.99999e-01,2.20022e-03,9.99999e-01
5.504120634e-01,2.48290e-03,9.99999e-01,2.48290e-03,9.99999e-01
5.531641237e-01,2.79522e-03,9.99999e-01,2.79522e-03,9.99999e-01
5.559299443e-01,3.13946e-03,9.99999e-01,3.13946e-03,9.99999e-01
5.587095940e-01,3.51802e-03,9.99999e-01,3.51802e-03,9.99999e-01
5.615031420e-01,3.93337e-03,9.99999e-01,3.93337e-03,9.99999e-01
5.643106577e-01,4.38808e-03,9.99999e-01,4.38808e-03,9.99999e-01
5.671322110e-01,4.88479e-03,9.99999e-01,4.88479e-03,9.99999e-01
5.699678720e-01,5.42621e-03,9.99999e-01,5.42621e-03,9.99999e-01
5.728177114e-01,6.01514e-03,9.99999e-01,6.01514e-03,9.99999e-01
5.756818000e-01,6.65444e-03,9.99999e-01,6.65444e-03,9.99999e-01
5.785602090e-01,7.34700e-03,9.99999e-01,7.34700e-03,9.99999e-01
5.814530100e-01,8.09580e-03,9.99999e-01,8.09580e-03,9.99999e-01
5.843602750e-01,8.90383e-03,9.99999e-01,8.90383e-03,9.99999e-01
5.872820764e-01,9.77412e-03,9.99999e-01,9.77412e-03,9.99999e-01
5.902184868e-01,1.07097e-02,9.99999e-01,1.07097e-02,9.99999e-01
5.931695792e-01,1.17137e-02,9.99999e-01,1.17137e-02,9.99999e-01
5.961354271e-01,1.27892e-02,9.99999e-01,1.27892e-02,9.99999e-01
5.991161043e-01,1.39392e-02,9.99999e-01,1.39392e-02,9.99999e-01
6.021116848e-01,1.51668e-02,9.99999e-01,1.51668e-02,9.99999e-01
6.051222432e-01,1.64750e-02,9.99999e-01,1.64750e-02,9.99999e-01
6.081478544e-01,1.78668e-02,9.99999e-01,1.78668e-02,9.99999e-01
6.111885937e-01,1.93452e-02,9.99999e-01,1.93452e-02,9.99999e-01
6.142445367e-01,2.09131e-02,9.99999e-01,2.09131e-02,9.99999e-01
6.173157594e-01,2.25733e-02,9.99999e-01,2.25733e-02,9.99999e-01
6.204023382e-01,2.43285e-02,9.99999e-01,2.43285e-02,9.99999e-01
6.235043498e-01,2.61814e-02,9.99999e-01,2.61814e-02,9.99999e-01
6.266218716e-01,2.81347e-02,9.99999e-01,2.81347e-02,9.99999e-01
6.297549810e-01,3.01907e-02,9.99999e-01,3.01907e-02,9.99999e-01
6.329037559e-01,3.23519e-02,9.99999e-01,3.23519e-02,9.99999e-01
6.360682746e-01,3.46204e-02,9.99999e-01,3.46204e-02,9.99999e-01
6.392486160e-01,3.69985e-02,9.99999e-01,3.69985e-02,9.99999e-01
6.424448591e-01,3.94881e-02,9.99999e-01,3.94881e-02,9.99999e-01
6.456570834e-01,4.20910e-02,9.99999e-01,4.20910e-02,9.99999e-01
6.488853688e-01,4.48090e-02,9.99999e-01,4.48090e-02,9.99999e-01
6.521297956e-01,4.76435e-02,9.99999e-01,4.76435e-02,9.99999e-01
6.553904446e-01,5.05961e-02,9.99999e-01,5.05961e-02,9.99999e-01
6.586673968e-01,5.36678e-02,9.99999e-01,5.36678e-02,9.99999e-01
6.619607338e-01,5.68598e-02,9.99999e-01,5.68598e-02,9.99999e-01
6.652705375e-01,6.01729e-02,9.99999e-01,6.01729e-02,9.99999e-01
6.685968902e-01,6.36078e-02,9.99999e-01,6.36078e-02,9.99999e-01
6.719398746e-01,6.71652e-02,9.99999e-01,6.71652e-02,9.99999e-01
6.752995740e-01,7.08453e-02,9.99999e-01,7.08453e-02,9.99999e-01
6.786760719e-01,7.46483e-02,9.99999e-01,7.46483e-02,9.99999e-01
6.820694522e-01,7.85743e-02,9.99999e-01,7.85743e-02,9.99999e-01
6.854797995e-01,8.26231e-02,9.99999e-01,8.26231e-02,9.99999e-01
6.889071985e-01,8.67944e-02,9.99999e-01,8.67944e-02,9.99999e-01
6.923517345e-01,9.10876e-02,9.99999e-01,9.10876e-02,9.99999e-01
6.958134932e-01,9.55020e-02,9.99999e-01,9.55020e-02,9.99999e-01
6.992925606e-01,1.00037e-01,9.99999e-01,1.00037e-01,9.99999e-01
7.027890234e-01,1.04691e-01,9.99999e-01,1.04691e-01,9.99999e-01
7.063029686e-01,1.09463e-01,9.99999e-01,1.09463e-01,9.99999e-01
7.098344834e-01,1.14352e-01,9.99999e-01,1.14352e-01,9.99999e-01
7.133836558e-01,1.19357e-01,9.99999e-01,1.19357e-01,9.99999e-01
7.169505741e-01,1.24475e-01,9.99999e-01,1.24475e-01,9.99999e-01
7.205353270e-01,1.29705e-01,9.99999e-01,1.29705e-01,9.99999e-01
7.241380036e-01,1.35045e-01,9.99999e-01,1.35045e-01,9.99999e-01
7.277586936e-01,1.40492e-01,9.99999e-01,1.40492e-01,9.99999e-01
7.313974871e-01,1.46046e-01,9.99999e-01,1.46046e-01,9.99999e-01
7.350544745e-01,1.51702e-01,9.99999e-01,1.51702e-01,9.99999e-01
7.387297469e-01,1.57460e-01,9.99999e-01,1.57460e-01,9.99999e-01
7.424233956e-01,1.63315e-01,9.99999e-01,1.63315e-01,9.99999e-01
7.461355126e-01,1.69267e-01,9.99999e-01,1.69267e-01,9.99999e-01
7.498661902e-01,1.75311e-01,9.99999e-01,1.75311e-01,9.99999e-01
7.536155211e-01,1.81445e-01,9.99999e-01,1.81445e-01,9.99999e-01
7.573835987e-01,1.87667e-01,9.99999e-01,1.87667e-01,9.99999e-01
7.611705167e-01,1.93972e-01,9.99999e-01,1.93972e-01,9.99999e-01
7.649763693e-01,2.00359e-01,9.99999e-01,2.00359e-01,9.99999e-01
7.688012511e-01,2.06823e-01,9.99999e-01,2.06823e-01,9.99999e-01
7.726452574e-01,2.13363e-01,9.99999e-01,2.13363e-01,9.99999e-01
7.765084837e-01,2.19973e-01,9.99999e-01,2.19973e-01,9.99999e-01
7.803910261e-01,2.12402e-01,9.37127e-01,2.26652e-01,9.99999e-01
7.842929812e-01,1.72180e-01,7.37714e-01,2.33396e-01,9.99999e-01
7.882144461e-01,1.73842e-01,7.23733e-01,2.40201e-01,9.99999e-01
7.921555184e-01,2.03476e-01,8.23576e-01,2.47064e-01,9.99999e-01
7.961162960e-01,2.22859e-01,8.77457e-01,2.53982e-01,9.99999e-01
8.000968774e-01,2.43088e-01,9.31542e-01,2.60952e-01,9.99999e-01
8.040973618e-01,2.58295e-01,9.63898e-01,2.67969e-01,9.99999e-01
8.081178486e-01,2.70426e-01,9.83256e-01,2.75031e-01,9.99999e-01
8.121584379e-01,2.80667e-01,9.94799e-01,2.82134e-01,9.99999e-01
8.162192301e-01,2.88941e-01,9.98849e-01,2.89274e-01,9.99999e-01
8.203003262e-01,2.96444e-01,9.99982e-01,2.96449e-01,9.99999e-01
8.244018279e-01,3.03655e-01,9.99999e-01,3.03655e-01,9.99999e-01
8.285238370e-01,3.10888e-01,9.99999e-01,3.10888e-01,9.99999e-01
8.326664562e-01,3.18146e-01,9.99999e-01,3.18146e-01,9.99999e-01
8.368297885e-01,3.25425e-01,9.99999e-01,3.25425e-01,9.99999e-01
8.410139374e-01,3.32722e-01,9.99999e-01,3.32722e-01,9.99999e-01
8.452190071e-01,3.40033e-01,9.99999e-01,3.40033e-01,9.99999e-01
8.494451021e-01,3.47356e-01,9.99999e-01,3.47356e-01,9.99999e-01
8.536923276e-01,3.54688e-01,9.99999e-01,3.54688e-01,9.99999e-01
8.579607893e-01,3.62024e-01,9.99999e-01,3.62024e-01,9.99999e-01
8.622505932e-01,3.69363e-01,9.99999e-01,3.69363e-01,9.99999e-01
8.665618462e-01,3.35431e-01,8.90441e-01,3.76702e-01,9.99999e-01
8.708946554e-01,1.80065e-01,4.68875e-01,3.84037e-01,9.99999e-01
8.752491287e-01,2.10103e-01,5.36846e-01,3.91365e-01,9.99999e-01
8.796253743e-01,2.81771e-01,7.06751e-01,3.98685e-01,9.99999e-01
8.840235012e-01,3.38520e-01,8.33806e-01,4.05993e-01,9.99999e-01
8.884436187e-01,3.84623e-01,9.30645e-01,4.13286e-01,9.99999e-01
8.928858368e-01,4.08481e-01,9.71271e-01,4.20563e-01,9.99999e-01
8.973502660e-01,4.24803e-01,9.92946e-01,4.27820e-01,9.99999e-01
9.018370173e-01,4.34717e-01,9.99220e-01,4.35056e-01,9.99999e-01
9.063462024e-01,4.33579e-01,9.80355e-01,4.42267e-01,9.99999e-01
9.108779334e-01,4.29272e-01,9.55099e-01,4.49452e-01,9.99999e-01
9.154323231e-01,4.51710e-01,9.89272e-01,4.56608e-01,9.99999e-01
9.200094847e-01,4.00666e-01,8.64000e-01,4.63733e-01,9.99999e-01
9.246095321e-01,3.76287e-01,7.99206e-01,4.70826e-01,9.99999e-01
9.292325798e-01,4.01583e-01,8.40337e-01,4.77884e-01,9.99999e-01
9.338787427e-01,4.09407e-01,8.44303e-01,4.84905e-01,9.99999e-01
9.385481364e-01,4.34126e-01,8.82573e-01,4.91887e-01,9.99999e-01
9.432408771e-01,4.62005e-01,9.26179e-01,4.98829e-01,9.99999e-01
9.479570815e-01,4.86210e-01,9.61404e-01,5.05729e-01,9.99999e-01
9.526968669e-01,5.02955e-01,9.81211e-01,5.12585e-01,9.99999e-01
9.574603512e-01,5.15200e-01,9.91919e-01,5.19397e-01,9.99999e-01
9.622476530e-01,5.24832e-01,9.97472e-01,5.26161e-01,9.99999e-01
9.670588912e-01,5.32474e-01,9.99242e-01,5.32877e-01,9.99999e-01
9.718941857e-01,5.39515e-01,9.99946e-01,5.39544e-01,9.99999e-01
9.767536566e-01,5.46160e-01,9.99999e-01,5.46160e-01,9.99999e-01
9.816374249e-01,5.52725e-01,9.99999e-01,5.52725e-01,9.99999e-01
9.865456120e-01,5.59236e-01,9.99999e-01,5.59236e-01,9.99999e-01
9.914783401e-01,5.65693e-01,9.99999e-01,5.65693e-01,9.99999e-01
9.964357318e-01,5.72094e-01,9.99999e-01,5.72094e-01,9.99999e-01
1.001417910e+00,5.78440e-01,9.99999e-01,5.78440e-01,9.99999e-01
1.006425000e+00,5.84728e-01,9.99999e-01,5.84728e-01,9.99999e-01
1.011457125e+00,5.90959e-01,9.99999e-01,5.90959e-01,9.99999e-01
1.016514411e+00,5.97131e-01,9.99999e-01,5.97131e-01,9.99999e-01
1.021596983e+00,6.03180e-01,9.99894e-01,6.03244e-01,9.99999e-01
1.026704968e+00,6.04574e-01,9.92248e-01,6.09297e-01,9.99999e-01
1.031838492e+00,5.70764e-01,9.27636e-01,6.15289e-01,9.99999e-01
1.036997685e+00,4.82842e-02,7.77247e-02,6.21219e-01,9.99999e-01
1.042182673e+00,1.09094e-02,1.73969e-02,6.27089e-01,9.99999e-01
1.047393587e+00,2.08921e-02,3.30102e-02,6.32896e-01,9.99999e-01
1.052630555e+00,3.06933e-05,4.80603e-05,6.38640e-01,9.99999e-01
1.057893707e+00,1.07985e-04,1.67595e-04,6.44322e-01,9.99999e-01
1.063183176e+00,9.98639e-04,1.53651e-03,6.49941e-01,9.99999e-01
1.068499092e+00,5.78335e-03,8.82285e-03,6.55496e-01,9.99999e-01
1.073841587e+00,3.23211e-02,4.88982e-02,6.60987e-01,9.99999e-01
1.079210795e+00,9.90260e-02,1.48595e-01,6.66415e-01,9.99999e-01
1.084606849e+00,2.30997e-01,3.43858e-01,6.71779e-01,9.99999e-01
1.090029883e+00,3.87875e-01,5.72865e-01,6.77078e-01,9.99999e-01
1.095480033e+00,5.18221e-01,7.59504e-01,6.82314e-01,9.99999e-01
1.100957433e+00,6.01928e-01,8.75549e-01,6.87485e-01,9.99999e-01
1.106462220e+00,6.55524e-01,9.46478e-01,6.92593e-01,9.99999e-01
1.111994531e+00,6.83548e-01,9.79805e-01,6.97636e-01,9.99999e-01
1.117554504e+00,6.99126e-01,9.95032e-01,7.02615e-01,9.99999e-01
1.123142276e+00,7.07300e-01,9.99673e-01,7.07531e-01,9.99999e-01
1.128757988e+00,7.12382e-01,9.99999e-01,7.12382e-01,9.99999e-01
1.134401778e+00,7.17170e-01,9.99999e-01,7.17170e-01,9.99999e-01
1.140073787e+00,7.21895e-01,9.99999e-01,7.21895e-01,9.99999e-01
1.145774156e+00,7.26557e-01,9.99999e-01,7.26557e-01,9.99999e-01
1.151503026e+00,7.31156e-01,9.99999e-01,7.31156e-01,9.99999e-01
1.157260541e+00,7.35692e-01,9.99999e-01,7.35692e-01,9.99999e-01
1.163046844e+00,7.40166e-01,9.99999e-01,7.40166e-01,9.99999e-01
1.168862078e+00,7.44578e-01,9.99999e-01,7.44578e-01,9.99999e-01
1.174706389e+00,7.48928e-01,9.99999e-01,7.48928e-01,9.99999e-01
1.180579921e+00,7.53217e-01,9.99999e-01,7.53217e-01,9.99999e-01
1.186482820e+00,7.57435e-01,9.99985e-01,7.57446e-01,9.99999e-01
1.192415234e+00,7.41097e-01,9.73061e-01,7.61613e-01,9.99999e-01
1.198377311e+00,4.11888e-01,5.37909e-01,7.65721e-01,9.99999e-01
1.204369197e+00,6.76406e-21,8.78712e-21,7.69769e-01,9.99999e-01
1.210391043e+00,2.32026e-82,2.99869e-82,7.73758e-01,9.99999e-01
1.216442998e+00,2.27062e-71,2.91970e-71,7.77688e-01,9.99999e-01
1.222525213e+00,2.60991e-70,3.33935e-70,7.81560e-01,9.99999e-01
1.228637839e+00,2.34815e-54,2.98985e-54,7.85374e-01,9.99999e-01
1.234781029e+00,3.98466e-34,5.04942e-34,7.89131e-01,9.99999e-01
1.240954934e+00,8.76881e-23,1.10601e-22,7.92831e-01,9.99999e-01
1.247159708e+00,2.08099e-11,2.61275e-11,7.96475e-01,9.99999e-01
1.253395507e+00,1.11490e-07,1.39351e-07,8.00063e-01,9.99999e-01
1.259662485e+00,9.73604e-05,1.21156e-04,8.03596e-01,9.99999e-01
1.265960797e+00,4.99097e-03,6.18402e-03,8.07074e-01,9.99999e-01
1.272290601e+00,8.23944e-02,1.01659e-01,8.10498e-01,9.99999e-01
1.278652054e+00,7.16052e-02,8.79812e-02,8.13869e-01,9.99999e-01
1.285045314e+00,2.94796e-04,3.60744e-04,8.17187e-01,9.99999e-01
1.291470541e+00,4.15720e-10,5.06696e-10,8.20452e-01,9.99999e-01
1.297927893e+00,8.82742e-05,1.07172e-04,8.23665e-01,9.99999e-01
1.304417533e+00,1.24889e-02,1.51046e-02,8.26827e-01,9.99999e-01
1.310939621e+00,2.98365e-03,3.59502e-03,8.29939e-01,9.99999e-01
1.317494319e+00,2.05795e-28,2.47052e-28,8.33000e-01,9.99999e-01
1.324081790e+00,6.72980e-19,8.04987e-19,8.36012e-01,9.99999e-01
1.330702199e+00,3.16354e-11,3.77072e-11,8.38975e-01,9.99999e-01
1.337355710e+00,1.78056e-10,2.11496e-10,8.41890e-01,9.99999e-01
1.344042489e+00,7.60356e-11,9.00088e-11,8.44757e-01,9.99999e-01
1.350762701e+00,1.69443e-11,1.99915e-11,8.47576e-01,9.99999e-01
1.357516515e+00,2.54087e-07,2.98803e-07,8.50349e-01,9.99999e-01
1.364304097e+00,2.55438e-05,2.99431e-05,8.53077e-01,9.99999e-01
1.371125618e+00,4.11707e-03,4.81101e-03,8.55759e-01,9.99999e-01
1.377981246e+00,9.14119e-03,1.06491e-02,8.58396e-01,9.99999e-01
1.384871152e+00,6.11244e-02,7.09932e-02,8.60988e-01,9.99999e-01
1.391795508e+00,7.50466e-02,8.69059e-02,8.63538e-01,9.99999e-01
1.398754485e+00,1.88558e-01,2.17723e-01,8.66044e-01,9.99999e-01
1.405748258e+00,2.84641e-01,3.27736e-01,8.68507e-01,9.99999e-01
1.412776999e+00,4.29028e-01,4.92609e-01,8.70929e-01,9.99999e-01
1.419840884e+00,3.89531e-01,4.46040e-01,8.73310e-01,9.99999e-01
1.426940089e+00,1.98471e-02,2.26655e-02,8.75650e-01,9.99999e-01
1.434074789e+00,0.00000e+00,0.00000e+00,8.77950e-01,9.99999e-01
1.441245163e+00,0.00000e+00,0.00000e+00,8.80210e-01,9.99999e-01
1.448451389e+00,0.00000e+00,0.00000e+00,8.82431e-01,9.99999e-01
1.455693646e+00,0.00000e+00,0.00000e+00,8.84614e-01,9.99999e-01
1.462972114e+00,0.00000e+00,0.00000e+00,8.86759e-01,9.99999e-01
1.470286975e+00,4.79659e-136,5.39630e-136,8.88866e-01,9.99999e-01
1.477638409e+00,1.32306e-85,1.48502e-85,8.90937e-01,9.99999e-01
1.485026601e+00,8.56451e-48,9.59101e-48,8.92972e-01,9.99999e-01
1.492451734e+00,9.98267e-41,1.11542e-40,8.94970e-01,9.99999e-01
1.499913993e+00,7.40224e-18,8.25281e-18,8.96934e-01,9.99999e-01
1.507413563e+00,1.28287e-16,1.42721e-16,8.98863e-01,9.99999e-01
1.514950631e+00,4.43217e-18,4.92048e-18,9.00758e-01,9.99999e-01
1.522525384e+00,6.25795e-61,6.93309e-61,9.02620e-01,9.99999e-01
1.530138011e+00,3.62862e-145,4.01197e-145,9.04448e-01,9.99999e-01
1.537788701e+00,1.89791e-107,2.09426e-107,9.06244e-01,9.99999e-01
1.545477645e+00,6.91494e-23,7.61549e-23,9.08008e-01,9.99999e-01
1.553205033e+00,1.25879e-16,1.38368e-16,9.09741e-01,9.99999e-01
1.560971058e+00,5.45485e-17,5.98485e-17,9.11442e-01,9.99999e-01
1.568775913e+00,0.00000e+00,0.00000e+00,9.13113e-01,9.99999e-01
1.576619793e+00,0.00000e+00,0.00000e+00,9.14754e-01,9.99999e-01
1.584502892e+00,0.00000e+00,0.00000e+00,9.16365e-01,9.99999e-01
1.592425406e+00,0.00000e+00,0.00000e+00,9.17947e-01,9.99999e-01
1.600387533e+00,0.00000e+00,0.00000e+00,9.19501e-01,9.99999e-01
1.608389471e+00,0.00000e+00,0.00000e+00,9.21027e-01,9.99999e-01
1.616431418e+00,0.00000e+00,0.00000e+00,9.22524e-01,9.99999e-01
1.624513575e+00,0.00000e+00,0.00000e+00,9.23995e-01,9.99999e-01
1.632636143e+00,5.49827e-309,5.94126e-309,9.25439e-01,9.99999e-01
1.640799324e+00,4.65838e-126,5.02599e-126,9.26856e-01,9.99999e-01
1.649003321e+00,4.66377e-126,5.02426e-126,9.28248e-01,9.99999e-01
1.657248337e+00,1.81134e-97,1.94848e-97,9.29614e-01,9.99999e-01
1.665534579e+00,4.05606e-98,4.35688e-98,9.30955e-01,9.99999e-01
1.673862252e+00,1.20230e-62,1.28965e-62,9.32272e-01,9.99999e-01
1.682231563e+00,1.88665e-43,2.02091e-43,9.33564e-01,9.99999e-01
1.690642721e+00,3.02423e-24,3.23504e-24,9.34833e-01,9.99999e-01
1.699095934e+00,1.52622e-15,1.63044e-15,9.36078e-01,9.99999e-01
1.707591414e+00,3.36428e-08,3.58933e-08,9.37300e-01,9.99999e-01
1.716129371e+00,4.51302e-05,4.80876e-05,9.38500e-01,9.99999e-01
1.724710018e+00,3.19223e-03,3.39715e-03,9.39677e-01,9.99999e-01
1.733333568e+00,2.17635e-02,2.31322e-02,9.40832e-01,9.99999e-01
1.742000236e+00,1.04196e-01,1.10615e-01,9.41967e-01,9.99999e-01
1.750710237e+00,6.75734e-04,7.16518e-04,9.43080e-01,9.99999e-01
1.759463788e+00,8.02356e-60,8.49798e-60,9.44172e-01,9.99999e-01
1.768261107e+00,1.32211e-62,1.39870e-62,9.45244e-01,9.99999e-01
1.777102413e+00,6.24941e-61,6.60407e-61,9.46296e-01,9.99999e-01
1.785987925e+00,3.84961e-57,4.06364e-57,9.47328e-01,9.99999e-01
1.794917864e+00,1.42792e-54,1.50571e-54,9.48341e-01,9.99999e-01
1.803892454e+00,1.83445e-52,1.93235e-52,9.49335e-01,9.99999e-01
1.812911916e+00,2.05985e-50,2.16755e-50,9.50311e-01,9.99999e-01
1.821976476e+00,1.78390e-50,1.87528e-50,9.51268e-01,9.99999e-01
1.831086358e+00,1.43006e-40,1.50184e-40,9.52207e-01,9.99999e-01
1.840241790e+00,1.42913e-34,1.49941e-34,9.53129e-01,9.99999e-01
1.849442999e+00,4.70504e-24,4.93173e-24,9.54033e-01,9.99999e-01
1.858690214e+00,1.34311e-22,1.40652e-22,9.54920e-01,9.99999e-01
1.867983665e+00,3.16089e-23,3.30709e-23,9.55790e-01,9.99999e-01
1.877323583e+00,3.62511e-114,3.78940e-114,9.56644e-01,9.99999e-01
