#,Wave/freq,Total,CO2,Rayleigh,CIA
4.000000000e-01,3.36656e-03,9.99999e-01,3.36656e-03,9.99999e-01
4.020000000e-01,3.76774e-03,9.99999e-01,3.76774e-03,9.99999e-01
4.040100000e-01,4.20688e-03,9.99999e-01,4.20688e-03,9.99999e-01
4.060300500e-01,4.68697e-03,9.99999e-01,4.68697e-03,9.99999e-01
4.080602003e-01,5.21072e-03,9.99999e-01,5.21072e-03,9.99999e-01
4.101005013e-01,5.78089e-03,9.99999e-01,5.78089e-03,9.99999e-01
4.121510038e-01,6.40031e-03,9.99999e-01,6.40031e-03,9.99999e-01
4.142117588e-01,7.07187e-03,9.99999e-01,7.07187e-03,9.99999e-01
4.162828176e-01,7.79850e-03,9.99999e-01,7.79850e-03,9.99999e-01
4.183642317e-01,8.58320e-03,9.99999e-01,8.58320e-03,9.99999e-01
4.204560528e-01,9.42898e-03,9.99999e-01,9.42898e-03,9.99999e-01
4.225583331e-01,1.03389e-02,9.99999e-01,1.03389e-02,9.99999e-01
4.246711247e-01,1.13160e-02,9.99999e-01,1.13160e-02,9.99999e-01
4.267944804e-01,1.23634e-02,9.99999e-01,1.23634e-02,9.99999e-01
4.289284528e-01,1.34841e-02,9.99999e-01,1.34841e-02,9.99999e-01
4.310730950e-01,1.46813e-02,9.99999e-01,1.46813e-02,9.99999e-01
4.332284605e-01,1.59578e-02,9.99999e-01,1.59578e-02,9.99999e-01
4.353946028e-01,1.73169e-02,9.99999e-01,1.73169e-02,9.99999e-01
4.375715758e-01,1.87614e-02,9.99999e-01,1.87614e-02,9.99999e-01
4.397594337e-01,2.02942e-02,9.99999e-01,2.02942e-02,9.99999e-01
4.419582309e-01,2.19182e-02,9.99999e-01,2.19182e-02,9.99999e-01
4.441680220e-01,2.36362e-02,9.99999e-01,2.36362e-02,9.99999e-01
4.463888621e-01,2.54510e-02,9.99999e-01,2.54510e-02,9.99999e-01
4.486208064e-01,2.73650e-02,9.99999e-01,2.73650e-02,9.99999e-01
4.508639105e-01,2.93809e-02,9.99999e-01,2.93809e-02,9.99999e-01
4.531182300e-01,3.15010e-02,9.99999e-01,3.15010e-02,9.99999e-01
4.553838212e-01,3.37277e-02,9.99999e-01,3.37277e-02,9.99999e-01
4.576607403e-01,3.60630e-02,9.99999e-01,3.60630e-02,9.99999e-01
4.599490440e-01,3.85091e-02,9.99999e-01,3.85091e-02,9.99999e-01
4.622487892e-01,4.10679e-02,9.99999e-01,4.10679e-02,9.99999e-01
4.645600332e-01,4.37410e-02,9.99999e-01,4.37410e-02,9.99999e-01
4.668828333e-01,4.65302e-02,9.99999e-01,4.65302e-02,9.99999e-01
4.692172475e-01,4.94368e-02,9.99999e-01,4.94368e-02,9.99999e-01
4.715633337e-01,5.24621e-02,9.99999e-01,5.24621e-02,9.99999e-01
4.739211504e-01,5.56074e-02,9.99999e-01,5.56074e-02,9.99999e-01
4.762907561e-01,5.88734e-02,9.99999e-01,5.88734e-02,9.99999e-01
4.786722099e-01,6.22610e-02,9.99999e-01,6.22610e-02,9.99999e-01
4.810655710e-01,6.57708e-02,9.99999e-01,6.57708e-02,9.99999e-01
4.834708988e-01,6.94033e-02,9.99999e-01,6.94033e-02,9.99999e-01
4.858882533e-01,7.31587e-02,9.99999e-01,7.31587e-02,9.99999e-01
4.883176946e-01,7.70370e-02,9.99999e-01,7.70370e-02,9.99999e-01
4.907592831e-01,8.10382e-02,9.99999e-01,8.10382e-02,9.99999e-01
4.932130795e-01,8.51620e-02,9.99999e-01,8.51620e-02,9.99999e-01
4.956791449e-01,8.94079e-02,9.99999e-01,8.94079e-02,9.99999e-01
4.981575406e-01,9.37754e-02,9.99999e-01,9.37754e-02,9.99999e-01
5.006483283e-01,9.82636e-02,9.99999e-01,9.82636e-02,9.99999e-01
5.031515699e-01,1.02872e-01,9.99999e-01,1.02872e-01,9.99999e-01
5.056673278e-01,1.07598e-01,9.99999e-01,1.07598e-01,9.99999e-01
5.081956644e-01,1.12442e-01,9.99999e-01,1.12442e-01,9.99999e-01
5.107366428e-01,1.17402e-01,9.99999e-01,1.17402e-01,9.99999e-01
5.132903260e-01,1.22476e-01,9.99999e-01,1.22476e-01,9.99999e-01
5.158567776e-01,1.27663e-01,9.99999e-01,1.27663e-01,9.99999e-01
5.184360615e-01,1.32961e-01,9.99999e-01,1.32961e-01,9.99999e-01
5.210282418e-01,1.38367e-01,9.99999e-01,1.38367e-01,9.99999e-01
5.236333830e-01,1.43879e-01,9.99999e-01,1.43879e-01,9.99999e-01
5.262515499e-01,1.49496e-01,9.99999e-01,1.49496e-01,9.99999e-01
5.288828077e-01,1.55215e-01,9.99999e-01,1.55215e-01,9.99999e-01
5.315272217e-01,1.61033e-01,9.99999e-01,1.61033e-01,9.99999e-01
5.341848578e-01,1.66947e-01,9.99999e-01,1.66947e-01,9.99999e-01
5.368557821e-01,1.72956e-01,9.99999e-01,1.72956e-01,9.99999e-01
5.395400610e-01,1.79056e-01,9.99999e-01,1.79056e-01,9.99999e-01
5.422377613e-01,1.85244e-01,9.99999e-01,1.85244e-01,9.99999e-01
5.449489501e-01,1.91517e-01,9.99999e-01,1.91517e-01,9.99999e-01
5.476736949e-01,1.97872e-01,9.99999e-01,1.97872e-01,9.99999e-01
5.504120634e-01,2.04307e-01,9.99999e-01,2.04307e-01,9.99999e-01
5.531641237e-01,2.10818e-01,9.99999e-01,2.10818e-01,9.99999e-01
5.559299443e-01,2.17401e-01,9.99999e-01,2.17401e-01,9.99999e-01
5.587095940e-01,2.24054e-01,9.99999e-01,2.24054e-01,9.99999e-01
5.615031420e-01,2.30773e-01,9.99999e-01,2.30773e-01,9.99999e-01
5.643106577e-01,2.37554e-01,9.99999e-01,2.37554e-01,9.99999e-01
5.671322110e-01,2.44396e-01,9.99999e-01,2.44396e-01,9.99999e-01
5.699678720e-01,2.51293e-01,9.99999e-01,2.51293e-01,9.99999e-01
5.728177114e-01,2.58243e-01,9.99999e-01,2.58243e-01,9.99999e-01
5.756818000e-01,2.65242e-01,9.99999e-01,2.65242e-01,9.99999e-01
5.785602090e-01,2.72287e-01,9.99999e-01,2.72287e-01,9.99999e-01
5.814530100e-01,2.79374e-01,9.99999e-01,2.79374e-01,9.99999e-01
5.843602750e-01,2.86500e-01,9.99999e-01,2.86500e-01,9.99999e-01
5.872820764e-01,2.93662e-01,9.99999e-01,2.93662e-01,9.99999e-01
5.902184868e-01,3.00857e-01,9.99999e-01,3.00857e-01,9.99999e-01
5.931695792e-01,3.08080e-01,9.99999e-01,3.08080e-01,9.99999e-01
5.961354271e-01,3.15329e-01,9.99999e-01,3.15329e-01,9.99999e-01
5.991161043e-01,3.22600e-01,9.99999e-01,3.22600e-01,9.99999e-01
6.021116848e-01,3.29890e-01,9.99999e-01,3.29890e-01,9.99999e-01
6.051222432e-01,3.37196e-01,9.99999e-01,3.37196e-01,9.99999e-01
6.081478544e-01,3.44515e-01,9.99999e-01,3.44515e-01,9.99999e-01
6.111885937e-01,3.51843e-01,9.99999e-01,3.51843e-01,9.99999e-01
6.142445367e-01,3.59178e-01,9.99999e-01,3.59178e-01,9.99999e-01
6.173157594e-01,3.66517e-01,9.99999e-01,3.66517e-01,9.99999e-01
6.204023382e-01,3.73856e-01,9.99999e-01,3.73856e-01,9.99999e-01
6.235043498e-01,3.81192e-01,9.99999e-01,3.81192e-01,9.99999e-01
6.266218716e-01,3.88524e-01,9.99999e-01,3.88524e-01,9.99999e-01
6.297549810e-01,3.95847e-01,9.99999e-01,3.95847e-01,9.99999e-01
6.329037559e-01,4.03160e-01,9.99999e-01,4.03160e-01,9.99999e-01
6.360682746e-01,4.10459e-01,9.99999e-01,4.10459e-01,9.99999e-01
6.392486160e-01,4.17743e-01,9.99999e-01,4.17743e-01,9.99999e-01
6.424448591e-01,4.25008e-01,9.99999e-01,4.25008e-01,9.99999e-01
6.456570834e-01,4.32252e-01,9.99999e-01,4.32252e-01,9.99999e-01
6.488853688e-01,4.39473e-01,9.99999e-01,4.39473e-01,9.99999e-01
6.521297956e-01,4.46668e-01,9.99999e-01,4.46668e-01,9.99999e-01
6.553904446e-01,4.53836e-01,9.99999e-01,4.53836e-01,9.99999e-01
6.586673968e-01,4.60973e-01,9.99999e-01,4.60973e-01,9.99999e-01
6.619607338e-01,4.68079e-01,9.99999e-01,4.68079e-01,9.99999e-01
6.652705375e-01,4.75150e-01,9.99999e-01,4.75150e-01,9.99999e-01
6.685968902e-01,4.82186e-01,9.99999e-01,4.82186e-01,9.99999e-01
6.719398746e-01,4.89183e-01,9.99999e-01,4.89183e-01,9.99999e-01
6.752995740e-01,4.96141e-01,9.99999e-01,4.96141e-01,9.99999e-01
6.786760719e-01,5.03058e-01,9.99999e-01,5.03058e-01,9.99999e-01
6.820694522e-01,5.09931e-01,9.99999e-01,5.09931e-01,9.99999e-01
6.854797995e-01,5.16760e-01,9.99999e-01,5.16760e-01,9.99999e-01
6.889071985e-01,5.23543e-01,9.99999e-01,5.23543e-01,9.99999e-01
6.923517345e-01,5.30278e-01,9.99999e-01,5.30278e-01,9.99999e-01
6.958134932e-01,5.36964e-01,9.99999e-01,5.36964e-01,9.99999e-01
6.992925606e-01,5.43600e-01,9.99999e-01,5.43600e-01,9.99999e-01
7.027890234e-01,5.50185e-01,9.99999e-01,5.50185e-01,9.99999e-01
7.063029686e-01,5.56717e-01,9.99999e-01,5.56717e-01,9.99999e-01
7.098344834e-01,5.63195e-01,9.99999e-01,5.63195e-01,9.99999e-01
7.133836558e-01,5.69618e-01,9.99999e-01,5.69618e-01,9.99999e-01
7.169505741e-01,5.75985e-01,9.99999e-01,5.75985e-01,9.99999e-01
7.205353270e-01,5.82296e-01,9.99999e-01,5.82296e-01,9.99999e-01
7.241380036e-01,5.88549e-01,9.99999e-01,5.88549e-01,9.99999e-01
7.277586936e-01,5.94744e-01,9.99999e-01,5.94744e-01,9.99999e-01
7.313974871e-01,6.00880e-01,9.99999e-01,6.00880e-01,9.99999e-01
7.350544745e-01,6.06956e-01,9.99999e-01,6.06956e-01,9.99999e-01
7.387297469e-01,6.12972e-01,9.99999e-01,6.12972e-01,9.99999e-01
7.424233956e-01,6.18926e-01,9.99999e-01,6.18926e-01,9.99999e-01
7.461355126e-01,6.24820e-01,9.99999e-01,6.24820e-01,9.99999e-01
7.498661902e-01,6.30651e-01,9.99999e-01,6.30651e-01,9.99999e-01
7.536155211e-01,6.36420e-01,9.99999e-01,6.36420e-01,9.99999e-01
7.573835987e-01,6.42126e-01,9.99999e-01,6.42126e-01,9.99999e-01
7.611705167e-01,6.47769e-01,9.99999e-01,6.47769e-01,9.99999e-01
7.649763693e-01,6.53349e-01,9.99999e-01,6.53349e-01,9.99999e-01
7.688012511e-01,6.58865e-01,9.99999e-01,6.58865e-01,9.99999e-01
7.726452574e-01,6.64317e-01,9.99999e-01,6.64317e-01,9.99999e-01
7.765084837e-01,6.69706e-01,9.99999e-01,6.69706e-01,9.99999e-01
7.803910261e-01,6.62392e-01,9.81276e-01,6.75030e-01,9.99999e-01
7.842929812e-01,6.25050e-01,9.18798e-01,6.80291e-01,9.99999e-01
7.882144461e-01,6.26228e-01,9.13551e-01,6.85487e-01,9.99999e-01
7.921555184e-01,6.55638e-01,9.49347e-01,6.90619e-01,9.99999e-01
7.961162960e-01,6.71793e-01,9.65653e-01,6.95687e-01,9.99999e-01
8.000968774e-01,6.87570e-01,9.81273e-01,7.00691e-01,9.99999e-01
8.040973618e-01,6.98734e-01,9.90223e-01,7.05632e-01,9.99999e-01
8.081178486e-01,7.07325e-01,9.95519e-01,7.10508e-01,9.99999e-01
8.121584379e-01,7.14322e-01,9.98603e-01,7.15321e-01,9.99999e-01
8.162192301e-01,7.19848e-01,9.99691e-01,7.20070e-01,9.99999e-01
8.203003262e-01,7.24753e-01,9.99994e-01,7.24756e-01,9.99999e-01
8.244018279e-01,7.29380e-01,9.99999e-01,7.29380e-01,9.99999e-01
8.285238370e-01,7.33940e-01,9.99999e-01,7.33940e-01,9.99999e-01
8.326664562e-01,7.38438e-01,9.99999e-01,7.38438e-01,9.99999e-01
8.368297885e-01,7.42874e-01,9.99999e-01,7.42874e-01,9.99999e-01
8.410139374e-01,7.47248e-01,9.99999e-01,7.47248e-01,9.99999e-01
8.452190071e-01,7.51561e-01,9.99999e-01,7.51561e-01,9.99999e-01
8.494451021e-01,7.55813e-01,9.99999e-01,7.55813e-01,9.99999e-01
8.536923276e-01,7.60004e-01,9.99999e-01,7.60004e-01,9.99999e-01
8.579607893e-01,7.64135e-01,9.99999e-01,7.64135e-01,9.99999e-01
8.622505932e-01,7.68206e-01,9.99999e-01,7.68206e-01,9.99999e-01
8.665618462e-01,7.34668e-01,9.51373e-01,7.72218e-01,9.99999e-01
8.708946554e-01,6.24770e-01,8.04939e-01,7.76171e-01,9.99999e-01
8.752491287e-01,6.55845e-01,8.40755e-01,7.80065e-01,9.99999e-01
8.796253743e-01,7.13222e-01,9.09835e-01,7.83902e-01,9.99999e-01
8.840235012e-01,7.50204e-01,9.52421e-01,7.87681e-01,9.99999e-01
8.884436187e-01,7.76312e-01,9.80931e-01,7.91403e-01,9.99999e-01
8.928858368e-01,7.88913e-01,9.92257e-01,7.95068e-01,9.99999e-01
8.973502660e-01,7.97163e-01,9.98103e-01,7.98678e-01,9.99999e-01
9.018370173e-01,8.02064e-01,9.99790e-01,8.02232e-01,9.99999e-01
9.063462024e-01,8.01522e-01,9.94775e-01,8.05731e-01,9.99999e-01
9.108779334e-01,7.99325e-01,9.87824e-01,8.09177e-01,9.99999e-01
9.154323231e-01,8.10216e-01,9.97104e-01,8.12568e-01,9.99999e-01
9.200094847e-01,7.81989e-01,9.58430e-01,8.15906e-01,9.99999e-01
9.246095321e-01,7.71489e-01,9.41768e-01,8.19192e-01,9.99999e-01
9.292325798e-01,7.84849e-01,9.54310e-01,8.22425e-01,9.99999e-01
9.338787427e-01,7.88884e-01,9.55519e-01,8.25607e-01,9.99999e-01
9.385481364e-01,8.01553e-01,9.67196e-01,8.28738e-01,9.99999e-01
9.432408771e-01,8.14978e-01,9.79753e-01,8.31819e-01,9.99999e-01
9.479570815e-01,8.26162e-01,9.89593e-01,8.34850e-01,9.99999e-01
9.526968669e-01,8.33609e-01,9.94959e-01,8.37832e-01,9.99999e-01
9.574603512e-01,8.38950e-01,9.97841e-01,8.40765e-01,9.99999e-01
9.622476530e-01,8.43082e-01,9.99325e-01,8.43650e-01,9.99999e-01
9.670588912e-01,8.46317e-01,9.99797e-01,8.46488e-01,9.99999e-01
9.718941857e-01,8.49267e-01,9.99984e-01,8.49279e-01,9.99999e-01
9.767536566e-01,8.52024e-01,9.99999e-01,8.52024e-01,9.99999e-01
9.816374249e-01,8.54724e-01,9.99999e-01,8.54724e-01,9.99999e-01
9.865456120e-01,8.57378e-01,9.99999e-01,8.57378e-01,9.99999e-01
9.914783401e-01,8.59988e-01,9.99999e-01,8.59988e-01,9.99999e-01
9.964357318e-01,8.62554e-01,9.99999e-01,8.62554e-01,9.99999e-01
1.001417910e+00,8.65077e-01,9.99999e-01,8.65077e-01,9.99999e-01
1.006425000e+00,8.67557e-01,9.99999e-01,8.67557e-01,9.99999e-01
1.011457125e+00,8.69995e-01,9.99999e-01,8.69995e-01,9.99999e-01
1.016514411e+00,8.72391e-01,9.99999e-01,8.72391e-01,9.99999e-01
1.021596983e+00,8.74725e-01,9.99974e-01,8.74747e-01,9.99999e-01
1.026704968e+00,8.75285e-01,9.97972e-01,8.77062e-01,9.99999e-01
1.031838492e+00,8.55572e-01,9.72972e-01,8.79338e-01,9.99999e-01
1.036997685e+00,2.29461e-01,2.60285e-01,8.81574e-01,9.99999e-01
1.042182673e+00,2.61553e-01,2.95951e-01,8.83772e-01,9.99999e-01
1.047393587e+00,2.53359e-01,2.85981e-01,8.85931e-01,9.99999e-01
1.052630555e+00,3.00012e-02,3.37831e-02,8.88053e-01,9.99999e-01
1.057893707e+00,5.86381e-02,6.58752e-02,8.90138e-01,9.99999e-01
1.063183176e+00,1.23889e-01,1.38859e-01,8.92187e-01,9.99999e-01
1.068499092e+00,2.38159e-01,2.66338e-01,8.94199e-01,9.99999e-01
1.073841587e+00,3.88087e-01,4.33047e-01,8.96177e-01,9.99999e-01
1.079210795e+00,5.29744e-01,5.89836e-01,8.98119e-01,9.99999e-01
1.084606849e+00,6.74231e-01,7.49122e-01,9.00027e-01,9.99999e-01
1.090029883e+00,7.76724e-01,8.61206e-01,9.01902e-01,9.99999e-01
1.095480033e+00,8.39570e-01,9.28991e-01,9.03743e-01,9.99999e-01
1.100957433e+00,8.74029e-01,9.65189e-01,9.05552e-01,9.99999e-01
1.106462220e+00,8.94123e-01,9.85446e-01,9.07328e-01,9.99999e-01
1.111994531e+00,9.04148e-01,9.94582e-01,9.09072e-01,9.99999e-01
1.117554504e+00,9.09574e-01,9.98669e-01,9.10786e-01,9.99999e-01
1.123142276e+00,9.12388e-01,9.99911e-01,9.12469e-01,9.99999e-01
1.128757988e+00,9.14121e-01,9.99999e-01,9.14121e-01,9.99999e-01
1.134401778e+00,9.15744e-01,9.99999e-01,9.15744e-01,9.99999e-01
1.140073787e+00,9.17337e-01,9.99999e-01,9.17337e-01,9.99999e-01
1.145774156e+00,9.18902e-01,9.99999e-01,9.18902e-01,9.99999e-01
1.151503026e+00,9.20438e-01,9.99999e-01,9.20438e-01,9.99999e-01
1.157260541e+00,9.21947e-01,9.99999e-01,9.21947e-01,9.99999e-01
1.163046844e+00,9.23428e-01,9.99999e-01,9.23428e-01,9.99999e-01
1.168862078e+00,9.24882e-01,9.99999e-01,9.24882e-01,9.99999e-01
1.174706389e+00,9.26310e-01,9.99999e-01,9.26310e-01,9.99999e-01
1.180579921e+00,9.27711e-01,9.99999e-01,9.27711e-01,9.99999e-01
1.186482820e+00,9.29085e-01,9.99996e-01,9.29087e-01,9.99999e-01
1.192415234e+00,9.23710e-01,9.92768e-01,9.30438e-01,9.99999e-01
1.198377311e+00,5.41732e-01,5.81404e-01,9.31764e-01,9.99999e-01
1.204369197e+00,3.47635e-07,3.72573e-07,9.33066e-01,9.99999e-01
1.210391043e+00,1.85418e-23,1.98447e-23,9.34343e-01,9.99999e-01
1.216442998e+00,1.51283e-20,1.61696e-20,9.35598e-01,9.99999e-01
1.222525213e+00,2.96168e-20,3.16139e-20,9.36829e-01,9.99999e-01
1.228637839e+00,1.30664e-15,1.39295e-15,9.38037e-01,9.99999e-01
1.234781029e+00,1.11857e-10,1.19095e-10,9.39223e-01,9.99999e-01
1.240954934e+00,2.83060e-07,3.01003e-07,9.40387e-01,9.99999e-01
1.247159708e+00,2.19275e-04,2.32892e-04,9.41529e-01,9.99999e-01
1.253395507e+00,8.87949e-03,9.41970e-03,9.42650e-01,9.99999e-01
1.259662485e+00,5.34948e-02,5.66831e-02,9.43751e-01,9.99999e-01
1.265960797e+00,2.01902e-01,2.13691e-01,9.44830e-01,9.99999e-01
1.272290601e+00,4.76636e-01,5.03902e-01,9.45890e-01,9.99999e-01
1.278652054e+00,4.45062e-01,4.70004e-01,9.46930e-01,9.99999e-01
1.285045314e+00,3.10816e-02,3.27881e-02,9.47950e-01,9.99999e-01
1.291470541e+00,1.89329e-03,1.99513e-03,9.48952e-01,9.99999e-01
1.297927893e+00,3.06580e-02,3.22737e-02,9.49934e-01,9.99999e-01
1.304417533e+00,3.00866e-01,3.16401e-01,9.50899e-01,9.99999e-01
1.310939621e+00,8.51554e-02,8.94634e-02,9.51845e-01,9.99999e-01
1.317494319e+00,1.62810e-08,1.70880e-08,9.52773e-01,9.99999e-01
1.324081790e+00,3.12790e-06,3.27980e-06,9.53684e-01,9.99999e-01
1.330702199e+00,1.11265e-03,1.16559e-03,9.54578e-01,9.99999e-01
1.337355710e+00,8.32310e-04,8.71113e-04,9.55455e-01,9.99999e-01
1.344042489e+00,2.78368e-04,2.91083e-04,9.56315e-01,9.99999e-01
1.350762701e+00,8.17716e-04,8.54315e-04,9.57159e-01,9.99999e-01
1.357516515e+00,9.19831e-03,9.60169e-03,9.57987e-01,9.99999e-01
1.364304097e+00,5.25471e-02,5.48050e-02,9.58800e-01,9.99999e-01
1.371125618e+00,2.06550e-01,2.15246e-01,9.59597e-01,9.99999e-01
1.377981246e+00,2.81524e-01,2.93139e-01,9.60379e-01,9.99999e-01
1.384871152e+00,4.70170e-01,4.89176e-01,9.61146e-01,9.99999e-01
1.391795508e+00,4.96966e-01,5.16650e-01,9.61899e-01,9.99999e-01
1.398754485e+00,6.41434e-01,6.66329e-01,9.62637e-01,9.99999e-01
1.405748258e+00,7.13756e-01,7.40901e-01,9.63361e-01,9.99999e-01
1.412776999e+00,7.97909e-01,8.27644e-01,9.64072e-01,9.99999e-01
1.419840884e+00,7.39017e-01,7.66004e-01,9.64769e-01,9.99999e-01
1.426940089e+00,9.50446e-02,9.84456e-02,9.65453e-01,9.99999e-01
1.434074789e+00,0.00000e+00,0.00000e+00,9.66123e-01,9.99999e-01
1.441245163e+00,0.00000e+00,0.00000e+00,9.66781e-01,9.99999e-01
1.448451389e+00,0.00000e+00,0.00000e+00,9.67427e-01,9.99999e-01
1.455693646e+00,3.07311e-181,3.17450e-181,9.68060e-01,9.99999e-01
1.462972114e+00,2.44990e-88,2.52911e-88,9.68680e-01,9.99999e-01
1.470286975e+00,1.13290e-37,1.16879e-37,9.69289e-01,9.99999e-01
1.477638409e+00,2.63930e-24,2.72124e-24,9.69887e-01,9.99999e-01
1.485026601e+00,3.54815e-14,3.65610e-14,9.70473e-01,9.99999e-01
1.492451734e+00,4.54890e-12,4.68452e-12,9.71047e-01,9.99999e-01
1.499913993e+00,3.57348e-06,3.67789e-06,9.71611e-01,9.99999e-01
1.507413563e+00,4.89542e-05,5.03558e-05,9.72164e-01,9.99999e-01
1.514950631e+00,2.06170e-06,2.11954e-06,9.72706e-01,9.99999e-01
1.522525384e+00,8.79252e-18,9.03428e-18,9.73238e-01,9.99999e-01
1.530138011e+00,5.50452e-40,5.65285e-40,9.73760e-01,9.99999e-01
1.537788701e+00,5.14772e-30,5.28366e-30,9.74271e-01,9.99999e-01
1.545477645e+00,1.03552e-07,1.06232e-07,9.74773e-01,9.99999e-01
1.553205033e+00,3.82889e-05,3.92599e-05,9.75265e-01,9.99999e-01
1.560971058e+00,1.04689e-05,1.07291e-05,9.75748e-01,9.99999e-01
1.568775913e+00,5.81310e-99,5.95469e-99,9.76221e-01,9.99999e-01
1.576619793e+00,2.18304e-230,2.23515e-230,9.76685e-01,9.99999e-01
1.584502892e+00,3.66532e-126,3.75107e-126,9.77140e-01,9.99999e-01
1.592425406e+00,3.00878e-88,3.07776e-88,9.77587e-01,9.99999e-01
1.600387533e+00,1.58454e-141,1.62014e-141,9.78024e-01,9.99999e-01
1.608389471e+00,4.59929e-237,4.70057e-237,9.78454e-01,9.99999e-01
1.616431418e+00,1.49352e-238,1.52575e-238,9.78875e-01,9.99999e-01
1.624513575e+00,7.41925e-112,7.57617e-112,9.79288e-01,9.99999e-01
1.632636143e+00,1.92087e-83,1.96069e-83,9.79693e-01,9.99999e-01
1.640799324e+00,4.99543e-35,5.09690e-35,9.80090e-01,9.99999e-01
1.649003321e+00,5.72657e-35,5.84058e-35,9.80479e-01,9.99999e-01
1.657248337e+00,2.42487e-27,2.47219e-27,9.80861e-01,9.99999e-01
1.665534579e+00,1.62502e-27,1.65609e-27,9.81235e-01,9.99999e-01
1.673862252e+00,4.35585e-18,4.43748e-18,9.81603e-01,9.99999e-01
1.682231563e+00,5.79161e-13,5.89798e-13,9.81963e-01,9.99999e-01
1.690642721e+00,6.23325e-08,6.34545e-08,9.82316e-01,9.99999e-01
1.699095934e+00,3.50851e-05,3.57041e-05,9.82662e-01,9.99999e-01
1.707591414e+00,4.03380e-03,4.10355e-03,9.83002e-01,9.99999e-01
1.716129371e+00,4.91000e-02,4.99321e-02,9.83334e-01,9.99999e-01
1.724710018e+00,1.97844e-01,2.01130e-01,9.83661e-01,9.99999e-01
1.733333568e+00,3.52663e-01,3.58404e-01,9.83981e-01,9.99999e-01
1.742000236e+00,5.22924e-01,5.31267e-01,9.84295e-01,9.99999e-01
1.750710237e+00,3.30360e-02,3.35526e-02,9.84603e-01,9.99999e-01
1.759463788e+00,3.45192e-17,3.50483e-17,9.84905e-01,9.99999e-01
1.768261107e+00,3.17311e-18,3.22078e-18,9.85200e-01,9.99999e-01
1.777102413e+00,3.81703e-17,3.87323e-17,9.85491e-01,9.99999e-01
1.785987925e+00,1.24946e-16,1.26749e-16,9.85775e-01,9.99999e-01
1.794917864e+00,1.19556e-15,1.21247e-15,9.86054e-01,9.99999e-01
1.803892454e+00,1.60697e-15,1.62924e-15,9.86328e-01,9.99999e-01
1.812911916e+00,1.06838e-14,1.08290e-14,9.86596e-01,9.99999e-01
1.821976476e+00,6.23361e-15,6.31661e-15,9.86859e-01,9.99999e-01
1.831086358e+00,2.69208e-12,2.72721e-12,9.87117e-01,9.99999e-01
1.840241790e+00,2.11364e-10,2.14068e-10,9.87370e-01,9.99999e-01
1.849442999e+00,2.34178e-07,2.37114e-07,9.87618e-01,9.99999e-01
1.858690214e+00,1.16129e-06,1.17556e-06,9.87861e-01,9.99999e-01
1.867983665e+00,1.93193e-07,1.95520e-07,9.88099e-01,9.99999e-01
1.877323583e+00,8.95478e-32,9.06048e-32,9.88333e-01,9.99999e-01
