#,Wave/freq,Total,CO2,Rayleigh,CIA
4.000000000e-01,9.65217e-08,9.99999e-01,9.65217e-08,9.99999e-01
4.020000000e-01,1.32842e-07,9.99999e-01,1.32842e-07,9.99999e-01
4.040100000e-01,1.81621e-07,9.99999e-01,1.81621e-07,9.99999e-01
4.060300500e-01,2.46783e-07,9.99999e-01,2.46783e-07,9.99999e-01
4.080602003e-01,3.33299e-07,9.99999e-01,3.33299e-07,9.99999e-01
4.101005013e-01,4.47480e-07,9.99999e-01,4.47480e-07,9.99999e-01
4.121510038e-01,5.97292e-07,9.99999e-01,5.97292e-07,9.99999e-01
4.142117588e-01,7.92724e-07,9.99999e-01,7.92724e-07,9.99999e-01
4.162828176e-01,1.04624e-06,9.99999e-01,1.04624e-06,9.99999e-01
4.183642317e-01,1.37327e-06,9.99999e-01,1.37327e-06,9.99999e-01
4.204560528e-01,1.79288e-06,9.99999e-01,1.79288e-06,9.99999e-01
4.225583331e-01,2.32840e-06,9.99999e-01,2.32840e-06,9.99999e-01
4.246711247e-01,3.00830e-06,9.99999e-01,3.00830e-06,9.99999e-01
4.267944804e-01,3.86713e-06,9.99999e-01,3.86713e-06,9.99999e-01
4.289284528e-01,4.94653e-06,9.99999e-01,4.94653e-06,9.99999e-01
4.310730950e-01,6.29654e-06,9.99999e-01,6.29654e-06,9.99999e-01
4.332284605e-01,7.97687e-06,9.99999e-01,7.97687e-06,9.99999e-01
4.353946028e-01,1.00585e-05,9.99999e-01,1.00585e-05,9.99999e-01
4.375715758e-01,1.26254e-05,9.99999e-01,1.26254e-05,9.99999e-01
4.397594337e-01,1.57764e-05,9.99999e-01,1.57764e-05,9.99999e-01
4.419582309e-01,1.96273e-05,9.99999e-01,1.96273e-05,9.99999e-01
4.441680220e-01,2.43129e-05,9.99999e-01,2.43129e-05,9.99999e-01
4.463888621e-01,2.99902e-05,9.99999e-01,2.99902e-05,9.99999e-01
4.486208064e-01,3.68400e-05,9.99999e-01,3.68400e-05,9.99999e-01
4.508639105e-01,4.50708e-05,9.99999e-01,4.50708e-05,9.99999e-01
4.531182300e-01,5.49215e-05,9.99999e-01,5.49215e-05,9.99999e-01
4.553838212e-01,6.66642e-05,9.99999e-01,6.66642e-05,9.99999e-01
4.576607403e-01,8.06086e-05,9.99999e-01,8.06086e-05,9.99999e-01
4.599490440e-01,9.71047e-05,9.99999e-01,9.71047e-05,9.99999e-01
4.622487892e-01,1.16547e-04,9.99999e-01,1.16547e-04,9.99999e-01
4.645600332e-01,1.39379e-04,9.99999e-01,1.39379e-04,9.99999e-01
4.668828333e-01,1.66096e-04,9.99999e-01,1.66096e-04,9.99999e-01
4.692172475e-01,1.97250e-04,9.99999e-01,1.97250e-04,9.99999e-01
4.715633337e-01,2.33453e-04,9.99999e-01,2.33453e-04,9.99999e-01
4.739211504e-01,2.75383e-04,9.99999e-01,2.75383e-04,9.99999e-01
4.762907561e-01,3.23785e-04,9.99999e-01,3.23785e-04,9.99999e-01
4.786722099e-01,3.79479e-04,9.99999e-01,3.79479e-04,9.99999e-01
4.810655710e-01,4.43361e-04,9.99999e-01,4.43361e-04,9.99999e-01
4.834708988e-01,5.16407e-04,9.99999e-01,5.16407e-04,9.99999e-01
4.858882533e-01,5.99679e-04,9.99999e-01,5.99679e-04,9.99999e-01
4.883176946e-01,6.94325e-04,9.99999e-01,6.94325e-04,9.99999e-01
4.907592831e-01,8.01586e-04,9.99999e-01,8.01586e-04,9.99999e-01
4.932130795e-01,9.22794e-04,9.99999e-01,9.22794e-04,9.99999e-01
4.956791449e-01,1.05938e-03,9.99999e-01,1.05938e-03,9.99999e-01
4.981575406e-01,1.21287e-03,9.99999e-01,1.21287e-03,9.99999e-01
5.006483283e-01,1.38489e-03,9.99999e-01,1.38489e-03,9.99999e-01
5.031515699e-01,1.57718e-03,9.99999e-01,1.57718e-03,9.99999e-01
5.056673278e-01,1.79155e-03,9.99999e-01,1.79155e-03,9.99999e-01
5.081956644e-01,2.02995e-03,9.99999e-01,2.02995e-03,9.99999e-01
5.107366428e-01,2.29439e-03,9.99999e-01,2.29439e-03,9.99999e-01
5.132903260e-01,2.58703e-03,9.99999e-01,2.58703e-03,9.99999e-01
5.158567776e-01,2.91008e-03,9.99999e-01,2.91008e-03,9.99999e-01
5.184360615e-01,3.26587e-03,9.99999e-01,3.26587e-03,9.99999e-01
5.210282418e-01,3.65682e-03,9.99999e-01,3.65682e-03,9.99999e-01
5.236333830e-01,4.08544e-03,9.99999e-01,4.08544e-03,9.99999e-01
5.262515499e-01,4.55431e-03,9.99999e-01,4.55431e-03,9.99999e-01
5.288828077e-01,5.06611e-03,9.99999e-01,5.06611e-03,9.99999e-01
5.315272217e-01,5.62358e-03,9.99999e-01,5.62358e-03,9.99999e-01
5.341848578e-01,6.22954e-03,9.99999e-01,6.22954e-03,9.99999e-01
5.368557821e-01,6.88685e-03,9.99999e-01,6.88685e-03,9.99999e-01
5.395400610e-01,7.59845e-03,9.99999e-01,7.59845e-03,9.99999e-01
5.422377613e-01,8.36731e-03,9.99999e-01,8.36731e-03,9.99999e-01
5.449489501e-01,9.19645e-03,9.99999e-01,9.19645e-03,9.99999e-01
5.476736949e-01,1.00889e-02,9.99999e-01,1.00889e-02,9.99999e-01
5.504120634e-01,1.10477e-02,9.99999e-01,1.10477e-02,9.99999e-01
5.531641237e-01,1.20760e-02,9.99999e-01,1.20760e-02,9.99999e-01
5.559299443e-01,1.31768e-02,9.99999e-01,1.31768e-02,9.99999e-01
5.587095940e-01,1.43532e-02,9.99999e-01,1.43532e-02,9.99999e-01
5.615031420e-01,1.56082e-02,9.99999e-01,1.56082e-02,9.99999e-01
5.643106577e-01,1.69449e-02,9.99999e-01,1.69449e-02,9.99999e-01
5.671322110e-01,1.83662e-02,9.99999e-01,1.83662e-02,9.99999e-01
5.699678720e-01,1.98751e-02,9.99999e-01,1.98751e-02,9.99999e-01
5.728177114e-01,2.14744e-02,9.99999e-01,2.14744e-02,9.99999e-01
5.756818000e-01,2.31670e-02,9.99999e-01,2.31670e-02,9.99999e-01
5.785602090e-01,2.49556e-02,9.99999e-01,2.49556e-02,9.99999e-01
5.814530100e-01,2.68428e-02,9.99999e-01,2.68428e-02,9.99999e-01
5.843602750e-01,2.88312e-02,9.99999e-01,2.88312e-02,9.99999e-01
5.872820764e-01,3.09232e-02,9.99999e-01,3.09232e-02,9.99999e-01
5.902184868e-01,3.31211e-02,9.99999e-01,3.31211e-02,9.99999e-01
5.931695792e-01,3.54272e-02,9.99999e-01,3.54272e-02,9.99999e-01
5.961354271e-01,3.78435e-02,9.99999e-01,3.78435e-02,9.99999e-01
5.991161043e-01,4.03719e-02,9.99999e-01,4.03719e-02,9.99999e-01
6.021116848e-01,4.30143e-02,9.99999e-01,4.30143e-02,9.99999e-01
6.051222432e-01,4.57722e-02,9.99999e-01,4.57722e-02,9.99999e-01
6.081478544e-01,4.86473e-02,9.99999e-01,4.86473e-02,9.99999e-01
6.111885937e-01,5.16407e-02,9.99999e-01,5.16407e-02,9.99999e-01
6.142445367e-01,5.47537e-02,9.99999e-01,5.47537e-02,9.99999e-01
6.173157594e-01,5.79873e-02,9.99999e-01,5.79873e-02,9.99999e-01
6.204023382e-01,6.13424e-02,9.99999e-01,6.13424e-02,9.99999e-01
6.235043498e-01,6.48194e-02,9.99999e-01,6.48194e-02,9.99999e-01
6.266218716e-01,6.84190e-02,9.99999e-01,6.84190e-02,9.99999e-01
6.297549810e-01,7.21415e-02,9.99999e-01,7.21415e-02,9.99999e-01
6.329037559e-01,7.59869e-02,9.99999e-01,7.59869e-02,9.99999e-01
6.360682746e-01,7.99552e-02,9.99999e-01,7.99552e-02,9.99999e-01
6.392486160e-01,8.40463e-02,9.99999e-01,8.40463e-02,9.99999e-01
6.424448591e-01,8.82596e-02,9.99999e-01,8.82596e-02,9.99999e-01
6.456570834e-01,9.25946e-02,9.99999e-01,9.25946e-02,9.99999e-01
6.488853688e-01,9.70506e-02,9.99999e-01,9.70506e-02,9.99999e-01
6.521297956e-01,1.01627e-01,9.99999e-01,1.01627e-01,9.99999e-01
6.553904446e-01,1.06322e-01,9.99999e-01,1.06322e-01,9.99999e-01
6.586673968e-01,1.11134e-01,9.99999e-01,1.11134e-01,9.99999e-01
6.619607338e-01,1.16063e-01,9.99999e-01,1.16063e-01,9.99999e-01
6.652705375e-01,1.21107e-01,9.99999e-01,1.21107e-01,9.99999e-01
6.685968902e-01,1.26264e-01,9.99999e-01,1.26264e-01,9.99999e-01
6.719398746e-01,1.31532e-01,9.99999e-01,1.31532e-01,9.99999e-01
6.752995740e-01,1.36909e-01,9.99999e-01,1.36909e-01,9.99999e-01
6.786760719e-01,1.42393e-01,9.99999e-01,1.42393e-01,9.99999e-01
6.820694522e-01,1.47983e-01,9.99999e-01,1.47983e-01,9.99999e-01
6.854797995e-01,1.53674e-01,9.99999e-01,1.53674e-01,9.99999e-01
6.889071985e-01,1.59466e-01,9.99999e-01,1.59466e-01,9.99999e-01
6.923517345e-01,1.65355e-01,9.99999e-01,1.65355e-01,9.99999e-01
6.958134932e-01,1.71339e-01,9.99999e-01,1.71339e-01,9.99999e-01
6.992925606e-01,1.77414e-01,9.99999e-01,1.77414e-01,9.99999e-01
7.027890234e-01,1.83579e-01,9.99999e-01,1.83579e-01,9.99999e-01
7.063029686e-01,1.89830e-01,9.99999e-01,1.89830e-01,9.99999e-01
7.098344834e-01,1.96163e-01,9.99999e-01,1.96163e-01,9.99999e-01
7.133836558e-01,2.02577e-01,9.99999e-01,2.02577e-01,9.99999e-01
7.169505741e-01,2.09068e-01,9.99999e-01,2.09068e-01,9.99999e-01
7.205353270e-01,2.15632e-01,9.99999e-01,2.15632e-01,9.99999e-01
7.241380036e-01,2.22267e-01,9.99999e-01,2.22267e-01,9.99999e-01
7.277586936e-01,2.28968e-01,9.99999e-01,2.28968e-01,9.99999e-01
7.313974871e-01,2.35733e-01,9.99999e-01,2.35733e-01,9.99999e-01
7.350544745e-01,2.42559e-01,9.99999e-01,2.42559e-01,9.99999e-01
7.387297469e-01,2.49441e-01,9.99999e-01,2.49441e-01,9.99999e-01
7.424233956e-01,2.56378e-01,9.99999e-01,2.56378e-01,9.99999e-01
7.461355126e-01,2.63364e-01,9.99999e-01,2.63364e-01,9.99999e-01
7.498661902e-01,2.70397e-01,9.99999e-01,2.70397e-01,9.99999e-01
7.536155211e-01,2.77473e-01,9.99999e-01,2.77473e-01,9.99999e-01
7.573835987e-01,2.84589e-01,9.99999e-01,2.84589e-01,9.99999e-01
7.611705167e-01,2.91742e-01,9.99999e-01,2.91742e-01,9.99999e-01
7.649763693e-01,2.98928e-01,9.99999e-01,2.98928e-01,9.99999e-01
7.688012511e-01,3.06144e-01,9.99999e-01,3.06144e-01,9.99999e-01
7.726452574e-01,3.13386e-01,9.99999e-01,3.13386e-01,9.99999e-01
7.765084837e-01,3.20652e-01,9.99999e-01,3.20652e-01,9.99999e-01
7.803910261e-01,3.11175e-01,9.48885e-01,3.27937e-01,9.99999e-01
7.842929812e-01,2.66142e-01,7.93887e-01,3.35239e-01,9.99999e-01
7.882144461e-01,2.67458e-01,7.80772e-01,3.42555e-01,9.99999e-01
7.921555184e-01,3.02160e-01,8.63606e-01,3.49881e-01,9.99999e-01
7.961162960e-01,3.23898e-01,9.06732e-01,3.57215e-01,9.99999e-01
8.000968774e-01,3.45676e-01,9.48218e-01,3.64552e-01,9.99999e-01
8.040973618e-01,3.61816e-01,9.72906e-01,3.71891e-01,9.99999e-01
8.081178486e-01,3.74462e-01,9.87429e-01,3.79229e-01,9.99999e-01
8.121584379e-01,3.85067e-01,9.96130e-01,3.86562e-01,9.99999e-01
8.162192301e-01,3.93551e-01,9.99144e-01,3.93888e-01,9.99999e-01
8.203003262e-01,4.01199e-01,9.99987e-01,4.01204e-01,9.99999e-01
8.244018279e-01,4.08507e-01,9.99999e-01,4.08507e-01,9.99999e-01
8.285238370e-01,4.15795e-01,9.99999e-01,4.15795e-01,9.99999e-01
8.326664562e-01,4.23065e-01,9.99999e-01,4.23065e-01,9.99999e-01
8.368297885e-01,4.30315e-01,9.99999e-01,4.30315e-01,9.99999e-01
8.410139374e-01,4.37543e-01,9.99999e-01,4.37543e-01,9.99999e-01
8.452190071e-01,4.44745e-01,9.99999e-01,4.44745e-01,9.99999e-01
8.494451021e-01,4.51920e-01,9.99999e-01,4.51920e-01,9.99999e-01
8.536923276e-01,4.59066e-01,9.99999e-01,4.59066e-01,9.99999e-01
8.579607893e-01,4.66180e-01,9.99999e-01,4.66180e-01,9.99999e-01
8.622505932e-01,4.73261e-01,9.99999e-01,4.73261e-01,9.99999e-01
8.665618462e-01,4.33326e-01,9.02185e-01,4.80306e-01,9.99999e-01
8.708946554e-01,2.72275e-01,5.58725e-01,4.87314e-01,9.99999e-01
8.752491287e-01,3.08162e-01,6.23452e-01,4.94283e-01,9.99999e-01
8.796253743e-01,3.85839e-01,7.69812e-01,5.01211e-01,9.99999e-01
8.840235012e-01,4.43322e-01,8.72516e-01,5.08096e-01,9.99999e-01
8.884436187e-01,4.88041e-01,9.47767e-01,5.14937e-01,9.99999e-01
8.928858368e-01,5.10490e-01,9.78452e-01,5.21732e-01,9.99999e-01
8.973502660e-01,5.25705e-01,9.94747e-01,5.28480e-01,9.99999e-01
9.018370173e-01,5.34870e-01,9.99420e-01,5.35180e-01,9.99999e-01
9.063462024e-01,5.33659e-01,9.84919e-01,5.41829e-01,9.99999e-01
9.108779334e-01,5.29873e-01,9.66167e-01,5.48428e-01,9.99999e-01
9.154323231e-01,5.50544e-01,9.92017e-01,5.54974e-01,9.99999e-01
9.200094847e-01,5.00599e-01,8.91591e-01,5.61466e-01,9.99999e-01
9.246095321e-01,4.79918e-01,8.45068e-01,5.67904e-01,9.99999e-01
9.292325798e-01,5.03132e-01,8.76098e-01,5.74287e-01,9.99999e-01
9.338787427e-01,5.11191e-01,8.80433e-01,5.80613e-01,9.99999e-01
9.385481364e-01,5.34322e-01,9.10442e-01,5.86881e-01,9.99999e-01
9.432408771e-01,5.60005e-01,9.44212e-01,5.93092e-01,9.99999e-01
9.479570815e-01,5.81823e-01,9.70927e-01,5.99244e-01,9.99999e-01
9.526968669e-01,5.96803e-01,9.85903e-01,6.05336e-01,9.99999e-01
9.574603512e-01,6.07670e-01,9.93951e-01,6.11368e-01,9.99999e-01
9.622476530e-01,6.16173e-01,9.98111e-01,6.17339e-01,9.99999e-01
9.670588912e-01,6.22896e-01,9.99434e-01,6.23248e-01,9.99999e-01
9.718941857e-01,6.29072e-01,9.99960e-01,6.29096e-01,9.99999e-01
9.767536566e-01,6.34882e-01,9.99999e-01,6.34882e-01,9.99999e-01
9.816374249e-01,6.40605e-01,9.99999e-01,6.40605e-01,9.99999e-01
9.865456120e-01,6.46265e-01,9.99999e-01,6.46265e-01,9.99999e-01
9.914783401e-01,6.51862e-01,9.99999e-01,6.51862e-01,9.99999e-01
9.964357318e-01,6.57395e-01,9.99999e-01,6.57395e-01,9.99999e-01
1.001417910e+00,6.62864e-01,9.99999e-01,6.62864e-01,9.99999e-01
1.006425000e+00,6.68270e-01,9.99999e-01,6.68270e-01,9.99999e-01
1.011457125e+00,6.73612e-01,9.99999e-01,6.73612e-01,9.99999e-01
1.016514411e+00,6.78889e-01,9.99999e-01,6.78889e-01,9.99999e-01
1.021596983e+00,6.84042e-01,9.99910e-01,6.84103e-01,9.99999e-01
1.026704968e+00,6.85156e-01,9.94057e-01,6.89252e-01,9.99999e-01
1.031838492e+00,6.50798e-01,9.37293e-01,6.94337e-01,9.99999e-01
1.036997685e+00,7.00545e-02,1.00170e-01,6.99358e-01,9.99999e-01
1.042182673e+00,2.99945e-02,4.25866e-02,7.04316e-01,9.99999e-01
1.047393587e+00,4.56314e-02,6.43412e-02,7.09209e-01,9.99999e-01
1.052630555e+00,2.57644e-04,3.60826e-04,7.14039e-01,9.99999e-01
1.057893707e+00,8.27091e-04,1.15065e-03,7.18805e-01,9.99999e-01
1.063183176e+00,4.70191e-03,6.49876e-03,7.23508e-01,9.99999e-01
1.068499092e+00,1.96583e-02,2.69976e-02,7.28148e-01,9.99999e-01
1.073841587e+00,7.42335e-02,1.01311e-01,7.32726e-01,9.99999e-01
1.079210795e+00,1.73035e-01,2.34706e-01,7.37240e-01,9.99999e-01
1.084606849e+00,3.31844e-01,4.47414e-01,7.41693e-01,9.99999e-01
1.090029883e+00,4.90676e-01,6.57668e-01,7.46084e-01,9.99999e-01
1.095480033e+00,6.10420e-01,8.13445e-01,7.50413e-01,9.99999e-01
1.100957433e+00,6.83101e-01,9.05151e-01,7.54681e-01,9.99999e-01
1.106462220e+00,7.28274e-01,9.59658e-01,7.58888e-01,9.99999e-01
1.111994531e+00,7.51474e-01,9.84848e-01,7.63035e-01,9.99999e-01
1.117554504e+00,7.64280e-01,9.96294e-01,7.67122e-01,9.99999e-01
1.123142276e+00,7.70963e-01,9.99757e-01,7.71150e-01,9.99999e-01
1.128757988e+00,7.75118e-01,9.99999e-01,7.75119e-01,9.99999e-01
1.134401778e+00,7.79029e-01,9.99999e-01,7.79029e-01,9.99999e-01
1.140073787e+00,7.82880e-01,9.99999e-01,7.82880e-01,9.99999e-01
1.145774156e+00,7.86675e-01,9.99999e-01,7.86675e-01,9.99999e-01
1.151503026e+00,7.90412e-01,9.99999e-01,7.90412e-01,9.99999e-01
1.157260541e+00,7.94093e-01,9.99999e-01,7.94093e-01,9.99999e-01
1.163046844e+00,7.97717e-01,9.99999e-01,7.97717e-01,9.99999e-01
1.168862078e+00,8.01286e-01,9.99999e-01,8.01286e-01,9.99999e-01
1.174706389e+00,8.04800e-01,9.99999e-01,8.04800e-01,9.99999e-01
1.180579921e+00,8.08260e-01,9.99999e-01,8.08260e-01,9.99999e-01
1.186482820e+00,8.11655e-01,9.99986e-01,8.11665e-01,9.99999e-01
1.192415234e+00,7.97957e-01,9.79066e-01,8.15018e-01,9.99999e-01
1.198377311e+00,4.48151e-01,5.47649e-01,8.18317e-01,9.99999e-01
1.204369197e+00,2.93667e-16,3.57449e-16,8.21565e-01,9.99999e-01
1.210391043e+00,1.95540e-62,2.37087e-62,8.24760e-01,9.99999e-01
1.216442998e+00,3.53192e-54,4.26609e-54,8.27905e-01,9.99999e-01
1.222525213e+00,2.21234e-53,2.66226e-53,8.30999e-01,9.99999e-01
1.228637839e+00,2.52611e-41,3.02875e-41,8.34043e-01,9.99999e-01
1.234781029e+00,3.37898e-26,4.03682e-26,8.37038e-01,9.99999e-01
1.240954934e+00,1.45672e-17,1.73423e-17,8.39985e-01,9.99999e-01
1.247159708e+00,3.96706e-09,4.70653e-09,8.42883e-01,9.99999e-01
1.253395507e+00,4.66497e-06,5.51588e-06,8.45733e-01,9.99999e-01
1.259662485e+00,8.17483e-04,9.63402e-04,8.48537e-01,9.99999e-01
1.265960797e+00,1.62551e-02,1.90945e-02,8.51294e-01,9.99999e-01
1.272290601e+00,1.50557e-01,1.76295e-01,8.54006e-01,9.99999e-01
1.278652054e+00,1.27140e-01,1.48411e-01,8.56672e-01,9.99999e-01
1.285045314e+00,1.06721e-03,1.24196e-03,8.59294e-01,9.99999e-01
1.291470541e+00,6.58400e-08,7.63918e-08,8.61871e-01,9.99999e-01
1.297927893e+00,1.50306e-03,1.73883e-03,8.64406e-01,9.99999e-01
1.304417533e+00,3.61330e-02,4.16808e-02,8.66897e-01,9.99999e-01
1.310939621e+00,5.86409e-03,6.74539e-03,8.69346e-01,9.99999e-01
1.317494319e+00,5.47257e-22,6.27765e-22,8.71754e-01,9.99999e-01
1.324081790e+00,1.11221e-14,1.27237e-14,8.74121e-01,9.99999e-01
1.330702199e+00,1.04775e-08,1.19545e-08,8.76447e-01,9.99999e-01
1.337355710e+00,2.94353e-08,3.34974e-08,8.78733e-01,9.99999e-01
1.344042489e+00,1.05585e-08,1.19850e-08,8.80979e-01,9.99999e-01
1.350762701e+00,6.01113e-09,6.80617e-09,8.83187e-01,9.99999e-01
1.357516515e+00,7.35263e-06,8.30470e-06,8.85357e-01,9.99999e-01
1.364304097e+00,3.20744e-04,3.61405e-04,8.87489e-01,9.99999e-01
1.371125618e+00,1.49977e-02,1.68592e-02,8.89584e-01,9.99999e-01
1.377981246e+00,2.88602e-02,3.23674e-02,8.91642e-01,9.99999e-01
1.384871152e+00,1.21411e-01,1.35857e-01,8.93664e-01,9.99999e-01
1.391795508e+00,1.41798e-01,1.58318e-01,8.95651e-01,9.99999e-01
1.398754485e+00,2.85672e-01,3.18260e-01,8.97603e-01,9.99999e-01
1.405748258e+00,3.88667e-01,4.32083e-01,8.99520e-01,9.99999e-01
1.412776999e+00,5.29892e-01,5.87852e-01,9.01403e-01,9.99999e-01
1.419840884e+00,4.72174e-01,5.22747e-01,9.03253e-01,9.99999e-01
1.426940089e+00,3.05435e-02,3.37471e-02,9.05071e-01,9.99999e-01
1.434074789e+00,0.00000e+00,0.00000e+00,9.06856e-01,9.99999e-01
1.441245163e+00,0.00000e+00,0.00000e+00,9.08609e-01,9.99999e-01
1.448451389e+00,0.00000e+00,0.00000e+00,9.10330e-01,9.99999e-01
1.455693646e+00,0.00000e+00,0.00000e+00,9.12021e-01,9.99999e-01
1.462972114e+00,1.53480e-246,1.67979e-246,9.13682e-01,9.99999e-01
1.470286975e+00,9.05289e-103,9.89049e-103,9.15312e-01,9.99999e-01
1.477638409e+00,7.12956e-65,7.77560e-65,9.16914e-01,9.99999e-01
1.485026601e+00,1.86839e-36,2.03420e-36,9.18486e-01,9.99999e-01
1.492451734e+00,4.55009e-31,4.94558e-31,9.20030e-01,9.99999e-01
1.499913993e+00,6.08545e-14,6.60352e-14,9.21546e-01,9.99999e-01
1.507413563e+00,1.01011e-12,1.09434e-12,9.23034e-01,9.99999e-01
1.514950631e+00,3.83525e-14,4.14848e-14,9.24495e-01,9.99999e-01
1.522525384e+00,2.46220e-46,2.65916e-46,9.25930e-01,9.99999e-01
1.530138011e+00,1.28789e-109,1.38880e-109,9.27339e-01,9.99999e-01
1.537788701e+00,2.78938e-81,3.00346e-81,9.28721e-01,9.99999e-01
1.545477645e+00,9.39167e-18,1.00977e-17,9.30079e-01,9.99999e-01
1.553205033e+00,8.97606e-13,9.63704e-13,9.31412e-01,9.99999e-01
1.560971058e+00,3.08071e-13,3.30293e-13,9.32720e-01,9.99999e-01
1.568775913e+00,1.07995e-276,1.15626e-276,9.34004e-01,9.99999e-01
1.576619793e+00,0.00000e+00,0.00000e+00,9.35264e-01,9.99999e-01
1.584502892e+00,0.00000e+00,0.00000e+00,9.36501e-01,9.99999e-01
1.592425406e+00,1.21123e-246,1.29168e-246,9.37716e-01,9.99999e-01
1.600387533e+00,0.00000e+00,0.00000e+00,9.38908e-01,9.99999e-01
1.608389471e+00,0.00000e+00,0.00000e+00,9.40077e-01,9.99999e-01
1.616431418e+00,0.00000e+00,0.00000e+00,9.41225e-01,9.99999e-01
1.624513575e+00,2.77344e-313,2.94310e-313,9.42352e-01,9.99999e-01
1.632636143e+00,1.07422e-232,1.13860e-232,9.43458e-01,9.99999e-01
1.640799324e+00,2.89082e-95,3.06054e-95,9.44543e-01,9.99999e-01
1.649003321e+00,2.89511e-95,3.06164e-95,9.45608e-01,9.99999e-01
1.657248337e+00,8.80211e-74,9.29812e-74,9.46654e-01,9.99999e-01
1.665534579e+00,2.85222e-74,3.00969e-74,9.47679e-01,9.99999e-01
1.673862252e+00,1.31995e-47,1.39134e-47,9.48686e-01,9.99999e-01
1.682231563e+00,3.42795e-33,3.60960e-33,9.49673e-01,9.99999e-01
1.690642721e+00,9.08188e-19,9.55340e-19,9.50642e-01,9.99999e-01
1.699095934e+00,4.20954e-12,4.42367e-12,9.51593e-01,9.99999e-01
1.707591414e+00,1.37230e-06,1.44069e-06,9.52526e-01,9.99999e-01
1.716129371e+00,4.31114e-04,4.52165e-04,9.53442e-01,9.99999e-01
1.724710018e+00,1.24928e-02,1.30904e-02,9.54340e-01,9.99999e-01
1.733333568e+00,5.50480e-02,5.76284e-02,9.55222e-01,9.99999e-01
1.742000236e+00,1.77189e-01,1.85327e-01,9.56086e-01,9.99999e-01
1.750710237e+00,2.13024e-03,2.22610e-03,9.56935e-01,9.99999e-01
1.759463788e+00,1.81524e-45,1.89528e-45,9.57767e-01,9.99999e-01
1.768261107e+00,1.35661e-47,1.41523e-47,9.58584e-01,9.99999e-01
1.777102413e+00,3.38167e-46,3.52482e-46,9.59385e-01,9.99999e-01
1.785987925e+00,1.76761e-43,1.84093e-43,9.60171e-01,9.99999e-01
1.794917864e+00,1.58649e-41,1.65097e-41,9.60942e-01,9.99999e-01
1.803892454e+00,5.64561e-40,5.87045e-40,9.61699e-01,9.99999e-01
1.812911916e+00,2.13590e-38,2.21925e-38,9.62441e-01,9.99999e-01
1.821976476e+00,1.76638e-38,1.83392e-38,9.63169e-01,9.99999e-01
1.831086358e+00,4.86748e-31,5.04986e-31,9.63883e-01,9.99999e-01
1.840241790e+00,1.90426e-26,1.97418e-26,9.64584e-01,9.99999e-01
1.849442999e+00,1.88600e-18,1.95385e-18,9.65271e-01,9.99999e-01
1.858690214e+00,2.93497e-17,3.03844e-17,9.65945e-01,9.99999e-01
1.867983665e+00,5.57794e-18,5.77063e-18,9.66606e-01,9.99999e-01
1.877323583e+00,2.50310e-86,2.58783e-86,9.67255e-01,9.99999e-01
