#,Wave/freq,Total,CO2,Rayleigh,CIA
4.000000000e-01,7.10253e-05,9.99999e-01,7.10253e-05,9.99999e-01
4.020000000e-01,8.57914e-05,9.99999e-01,8.57914e-05,9.99999e-01
4.040100000e-01,1.03221e-04,9.99999e-01,1.03221e-04,9.99999e-01
4.060300500e-01,1.23739e-04,9.99999e-01,1.23739e-04,9.99999e-01
4.080602003e-01,1.47805e-04,9.99999e-01,1.47805e-04,9.99999e-01
4.101005013e-01,1.75933e-04,9.99999e-01,1.75933e-04,9.99999e-01
4.121510038e-01,2.08694e-04,9.99999e-01,2.08694e-04,9.99999e-01
4.142117588e-01,2.46723e-04,9.99999e-01,2.46723e-04,9.99999e-01
4.162828176e-01,2.90718e-04,9.99999e-01,2.90718e-04,9.99999e-01
4.183642317e-01,3.41450e-04,9.99999e-01,3.41450e-04,9.99999e-01
4.204560528e-01,3.99763e-04,9.99999e-01,3.99763e-04,9.99999e-01
4.225583331e-01,4.66579e-04,9.99999e-01,4.66579e-04,9.99999e-01
4.246711247e-01,5.42903e-04,9.99999e-01,5.42903e-04,9.99999e-01
4.267944804e-01,6.29825e-04,9.99999e-01,6.29825e-04,9.99999e-01
4.289284528e-01,7.28523e-04,9.99999e-01,7.28523e-04,9.99999e-01
4.310730950e-01,8.40268e-04,9.99999e-01,8.40268e-04,9.99999e-01
4.332284605e-01,9.66425e-04,9.99999e-01,9.66425e-04,9.99999e-01
4.353946028e-01,1.10846e-03,9.99999e-01,1.10846e-03,9.99999e-01
4.375715758e-01,1.26792e-03,9.99999e-01,1.26792e-03,9.99999e-01
4.397594337e-01,1.44648e-03,9.99999e-01,1.44648e-03,9.99999e-01
4.419582309e-01,1.64590e-03,9.99999e-01,1.64590e-03,9.99999e-01
4.441680220e-01,1.86805e-03,9.99999e-01,1.86805e-03,9.99999e-01
4.463888621e-01,2.11487e-03,9.99999e-01,2.11487e-03,9.99999e-01
4.486208064e-01,2.38845e-03,9.99999e-01,2.38845e-03,9.99999e-01
4.508639105e-01,2.69095e-03,9.99999e-01,2.69095e-03,9.99999e-01
4.531182300e-01,3.02462e-03,9.99999e-01,3.02462e-03,9.99999e-01
4.553838212e-01,3.39183e-03,9.99999e-01,3.39183e-03,9.99999e-01
4.576607403e-01,3.79502e-03,9.99999e-01,3.79502e-03,9.99999e-01
4.599490440e-01,4.23673e-03,9.99999e-01,4.23673e-03,9.99999e-01
4.622487892e-01,4.71957e-03,9.99999e-01,4.71957e-03,9.99999e-01
4.645600332e-01,5.24625e-03,9.99999e-01,5.24625e-03,9.99999e-01
4.668828333e-01,5.81952e-03,9.99999e-01,5.81952e-03,9.99999e-01
4.692172475e-01,6.44223e-03,9.99999e-01,6.44223e-03,9.99999e-01
4.715633337e-01,7.11727e-03,9.99999e-01,7.11727e-03,9.99999e-01
4.739211504e-01,7.84757e-03,9.99999e-01,7.84757e-03,9.99999e-01
4.762907561e-01,8.63614e-03,9.99999e-01,8.63614e-03,9.99999e-01
4.786722099e-01,9.48598e-03,9.99999e-01,9.48598e-03,9.99999e-01
4.810655710e-01,1.04002e-02,9.99999e-01,1.04002e-02,9.99999e-01
4.834708988e-01,1.13817e-02,9.99999e-01,1.13817e-02,9.99999e-01
4.858882533e-01,1.24338e-02,9.99999e-01,1.24338e-02,9.99999e-01
4.883176946e-01,1.35594e-02,9.99999e-01,1.35594e-02,9.99999e-01
4.907592831e-01,1.47616e-02,9.99999e-01,1.47616e-02,9.99999e-01
4.932130795e-01,1.60434e-02,9.99999e-01,1.60434e-02,9.99999e-01
4.956791449e-01,1.74079e-02,9.99999e-01,1.74079e-02,9.99999e-01
4.981575406e-01,1.88580e-02,9.99999e-01,1.88580e-02,9.99999e-01
5.006483283e-01,2.03967e-02,9.99999e-01,2.03967e-02,9.99999e-01
5.031515699e-01,2.20267e-02,9.99999e-01,2.20267e-02,9.99999e-01
5.056673278e-01,2.37509e-02,9.99999e-01,2.37509e-02,9.99999e-01
5.081956644e-01,2.55720e-02,9.99999e-01,2.55720e-02,9.99999e-01
5.107366428e-01,2.74926e-02,9.99999e-01,2.74926e-02,9.99999e-01
5.132903260e-01,2.95151e-02,9.99999e-01,2.95151e-02,9.99999e-01
5.158567776e-01,3.16421e-02,9.99999e-01,3.16421e-02,9.99999e-01
5.184360615e-01,3.38757e-02,9.99999e-01,3.38757e-02,9.99999e-01
5.210282418e-01,3.62182e-02,9.99999e-01,3.62182e-02,9.99999e-01
5.236333830e-01,3.86716e-02,9.99999e-01,3.86716e-02,9.99999e-01
5.262515499e-01,4.12377e-02,9.99999e-01,4.12377e-02,9.99999e-01
5.288828077e-01,4.39183e-02,9.99999e-01,4.39183e-02,9.99999e-01
5.315272217e-01,4.67150e-02,9.99999e-01,4.67150e-02,9.99999e-01
5.341848578e-01,4.96293e-02,9.99999e-01,4.96293e-02,9.99999e-01
5.368557821e-01,5.26624e-02,9.99999e-01,5.26624e-02,9.99999e-01
5.395400610e-01,5.58154e-02,9.99999e-01,5.58154e-02,9.99999e-01
5.422377613e-01,5.90893e-02,9.99999e-01,5.90893e-02,9.99999e-01
5.449489501e-01,6.24848e-02,9.99999e-01,6.24848e-02,9.99999e-01
5.476736949e-01,6.60026e-02,9.99999e-01,6.60026e-02,9.99999e-01
5.504120634e-01,6.96430e-02,9.99999e-01,6.96430e-02,9.99999e-01
5.531641237e-01,7.34063e-02,9.99999e-01,7.34063e-02,9.99999e-01
5.559299443e-01,7.72926e-02,9.99999e-01,7.72926e-02,9.99999e-01
5.587095940e-01,8.13018e-02,9.99999e-01,8.13018e-02,9.99999e-01
5.615031420e-01,8.54335e-02,9.99999e-01,8.54335e-02,9.99999e-01
5.643106577e-01,8.96874e-02,9.99999e-01,8.96874e-02,9.99999e-01
5.671322110e-01,9.40627e-02,9.99999e-01,9.40627e-02,9.99999e-01
5.699678720e-01,9.85587e-02,9.99999e-01,9.85587e-02,9.99999e-01
5.728177114e-01,1.03174e-01,9.99999e-01,1.03174e-01,9.99999e-01
5.756818000e-01,1.07909e-01,9.99999e-01,1.07909e-01,9.99999e-01
5.785602090e-01,1.12760e-01,9.99999e-01,1.12760e-01,9.99999e-01
5.814530100e-01,1.17728e-01,9.99999e-01,1.17728e-01,9.99999e-01
5.843602750e-01,1.22809e-01,9.99999e-01,1.22809e-01,9.99999e-01
5.872820764e-01,1.28003e-01,9.99999e-01,1.28003e-01,9.99999e-01
5.902184868e-01,1.33308e-01,9.99999e-01,1.33308e-01,9.99999e-01
5.931695792e-01,1.38721e-01,9.99999e-01,1.38721e-01,9.99999e-01
5.961354271e-01,1.44240e-01,9.99999e-01,1.44240e-01,9.99999e-01
5.991161043e-01,1.49864e-01,9.99999e-01,1.49864e-01,9.99999e-01
6.021116848e-01,1.55589e-01,9.99999e-01,1.55589e-01,9.99999e-01
6.051222432e-01,1.61413e-01,9.99999e-01,1.61413e-01,9.99999e-01
6.081478544e-01,1.67334e-01,9.99999e-01,1.67334e-01,9.99999e-01
6.111885937e-01,1.73349e-01,9.99999e-01,1.73349e-01,9.99999e-01
6.142445367e-01,1.79454e-01,9.99999e-01,1.79454e-01,9.99999e-01
6.173157594e-01,1.85648e-01,9.99999e-01,1.85648e-01,9.99999e-01
6.204023382e-01,1.91926e-01,9.99999e-01,1.91926e-01,9.99999e-01
6.235043498e-01,1.98287e-01,9.99999e-01,1.98287e-01,9.99999e-01
6.266218716e-01,2.04727e-01,9.99999e-01,2.04727e-01,9.99999e-01
6.297549810e-01,2.11242e-01,9.99999e-01,2.11242e-01,9.99999e-01
6.329037559e-01,2.17830e-01,9.99999e-01,2.17830e-01,9.99999e-01
6.360682746e-01,2.24487e-01,9.99999e-01,2.24487e-01,9.99999e-01
6.392486160e-01,2.31210e-01,9.99999e-01,2.31210e-01,9.99999e-01
6.424448591e-01,2.37996e-01,9.99999e-01,2.37996e-01,9.99999e-01
6.456570834e-01,2.44841e-01,9.99999e-01,2.44841e-01,9.99999e-01
6.488853688e-01,2.51742e-01,9.99999e-01,2.51742e-01,9.99999e-01
6.521297956e-01,2.58695e-01,9.99999e-01,2.58695e-01,9.99999e-01
6.553904446e-01,2.65697e-01,9.99999e-01,2.65697e-01,9.99999e-01
6.586673968e-01,2.72745e-01,9.99999e-01,2.72745e-01,9.99999e-01
6.619607338e-01,2.79835e-01,9.99999e-01,2.79835e-01,9.99999e-01
6.652705375e-01,2.86964e-01,9.99999e-01,2.86964e-01,9.99999e-01
6.685968902e-01,2.94128e-01,9.99999e-01,2.94128e-01,9.99999e-01
6.719398746e-01,3.01324e-01,9.99999e-01,3.01324e-01,9.99999e-01
6.752995740e-01,3.08549e-01,9.99999e-01,3.08549e-01,9.99999e-01
6.786760719e-01,3.15799e-01,9.99999e-01,3.15799e-01,9.99999e-01
6.820694522e-01,3.23072e-01,9.99999e-01,3.23072e-01,9.99999e-01
6.854797995e-01,3.30363e-01,9.99999e-01,3.30363e-01,9.99999e-01
6.889071985e-01,3.37670e-01,9.99999e-01,3.37670e-01,9.99999e-01
6.923517345e-01,3.44990e-01,9.99999e-01,3.44990e-01,9.99999e-01
6.958134932e-01,3.52319e-01,9.99999e-01,3.52319e-01,9.99999e-01
6.992925606e-01,3.59654e-01,9.99999e-01,3.59654e-01,9.99999e-01
7.027890234e-01,3.66992e-01,9.99999e-01,3.66992e-01,9.99999e-01
7.063029686e-01,3.74331e-01,9.99999e-01,3.74331e-01,9.99999e-01
7.098344834e-01,3.81668e-01,9.99999e-01,3.81668e-01,9.99999e-01
7.133836558e-01,3.88999e-01,9.99999e-01,3.88999e-01,9.99999e-01
7.169505741e-01,3.96322e-01,9.99999e-01,3.96322e-01,9.99999e-01
7.205353270e-01,4.03634e-01,9.99999e-01,4.03634e-01,9.99999e-01
7.241380036e-01,4.10932e-01,9.99999e-01,4.10932e-01,9.99999e-01
7.277586936e-01,4.18214e-01,9.99999e-01,4.18214e-01,9.99999e-01
7.313974871e-01,4.25478e-01,9.99999e-01,4.25478e-01,9.99999e-01
7.350544745e-01,4.32721e-01,9.99999e-01,4.32721e-01,9.99999e-01
7.387297469e-01,4.39940e-01,9.99999e-01,4.39940e-01,9.99999e-01
7.424233956e-01,4.47134e-01,9.99999e-01,4.47134e-01,9.99999e-01
7.461355126e-01,4.54299e-01,9.99999e-01,4.54299e-01,9.99999e-01
7.498661902e-01,4.61435e-01,9.99999e-01,4.61435e-01,9.99999e-01
7.536155211e-01,4.68538e-01,9.99999e-01,4.68538e-01,9.99999e-01
7.573835987e-01,4.75608e-01,9.99999e-01,4.75608e-01,9.99999e-01
7.611705167e-01,4.82641e-01,9.99999e-01,4.82641e-01,9.99999e-01
7.649763693e-01,4.89636e-01,9.99999e-01,4.89636e-01,9.99999e-01
7.688012511e-01,4.96591e-01,9.99999e-01,4.96591e-01,9.99999e-01
7.726452574e-01,5.03505e-01,9.99999e-01,5.03505e-01,9.99999e-01
7.765084837e-01,5.10375e-01,9.99999e-01,5.10375e-01,9.99999e-01
7.803910261e-01,5.01560e-01,9.69756e-01,5.17201e-01,9.99999e-01
7.842929812e-01,4.55385e-01,8.69086e-01,5.23981e-01,9.99999e-01
7.882144461e-01,4.57019e-01,8.61140e-01,5.30713e-01,9.99999e-01
7.921555184e-01,4.92652e-01,9.16739e-01,5.37396e-01,9.99999e-01
7.961162960e-01,5.13094e-01,9.43136e-01,5.44029e-01,9.99999e-01
8.000968774e-01,5.33439e-01,9.68814e-01,5.50610e-01,9.99999e-01
8.040973618e-01,5.48039e-01,9.83668e-01,5.57138e-01,9.99999e-01
8.081178486e-01,5.59385e-01,9.92498e-01,5.63613e-01,9.99999e-01
8.121584379e-01,5.68699e-01,9.97660e-01,5.70032e-01,9.99999e-01
8.162192301e-01,5.76098e-01,9.99482e-01,5.76396e-01,9.99999e-01
8.203003262e-01,5.82698e-01,9.99991e-01,5.82703e-01,9.99999e-01
8.244018279e-01,5.88953e-01,9.99999e-01,5.88953e-01,9.99999e-01
8.285238370e-01,5.95144e-01,9.99999e-01,5.95144e-01,9.99999e-01
8.326664562e-01,6.01276e-01,9.99999e-01,6.01276e-01,9.99999e-01
8.368297885e-01,6.07348e-01,9.99999e-01,6.07348e-01,9.99999e-01
8.410139374e-01,6.13360e-01,9.99999e-01,6.13360e-01,9.99999e-01
8.452190071e-01,6.19310e-01,9.99999e-01,6.19310e-01,9.99999e-01
8.494451021e-01,6.25199e-01,9.99999e-01,6.25199e-01,9.99999e-01
8.536923276e-01,6.31027e-01,9.99999e-01,6.31027e-01,9.99999e-01
8.579607893e-01,6.36791e-01,9.99999e-01,6.36791e-01,9.99999e-01
8.622505932e-01,6.42494e-01,9.99999e-01,6.42494e-01,9.99999e-01
8.665618462e-01,6.03478e-01,9.31102e-01,6.48133e-01,9.99999e-01
8.708946554e-01,4.58094e-01,7.00761e-01,6.53708e-01,9.99999e-01
8.752491287e-01,4.94781e-01,7.50554e-01,6.59220e-01,9.99999e-01
8.796253743e-01,5.67785e-01,8.54237e-01,6.64669e-01,9.99999e-01
8.840235012e-01,6.17556e-01,9.21651e-01,6.70053e-01,9.99999e-01
8.884436187e-01,6.53938e-01,9.68261e-01,6.75373e-01,9.99999e-01
8.928858368e-01,6.71819e-01,9.87054e-01,6.80630e-01,9.99999e-01
8.973502660e-01,6.83644e-01,9.96823e-01,6.85822e-01,9.99999e-01
9.018370173e-01,6.90707e-01,9.99648e-01,6.90950e-01,9.99999e-01
9.063462024e-01,6.89938e-01,9.91269e-01,6.96014e-01,9.99999e-01
9.108779334e-01,6.86769e-01,9.79679e-01,7.01014e-01,9.99999e-01
9.154323231e-01,7.02530e-01,9.95155e-01,7.05950e-01,9.99999e-01
9.200094847e-01,6.63136e-01,9.32913e-01,7.10822e-01,9.99999e-01
9.246095321e-01,6.47250e-01,9.04447e-01,7.15631e-01,9.99999e-01
9.292325798e-01,6.66277e-01,9.24901e-01,7.20376e-01,9.99999e-01
9.338787427e-01,6.71948e-01,9.26749e-01,7.25058e-01,9.99999e-01
9.385481364e-01,6.90033e-01,9.45668e-01,7.29677e-01,9.99999e-01
9.432408771e-01,7.09487e-01,9.66295e-01,7.34233e-01,9.99999e-01
9.479570815e-01,7.25881e-01,9.82609e-01,7.38728e-01,9.99999e-01
9.526968669e-01,7.36891e-01,9.91564e-01,7.43159e-01,9.99999e-01
9.574603512e-01,7.44826e-01,9.96383e-01,7.47530e-01,9.99999e-01
9.622476530e-01,7.50989e-01,9.98869e-01,7.51839e-01,9.99999e-01
9.670588912e-01,7.55830e-01,9.99660e-01,7.56086e-01,9.99999e-01
9.718941857e-01,7.60255e-01,9.99975e-01,7.60274e-01,9.99999e-01
9.767536566e-01,7.64401e-01,9.99999e-01,7.64401e-01,9.99999e-01
9.816374249e-01,7.68468e-01,9.99999e-01,7.68468e-01,9.99999e-01
9.865456120e-01,7.72476e-01,9.99999e-01,7.72476e-01,9.99999e-01
9.914783401e-01,7.76425e-01,9.99999e-01,7.76425e-01,9.99999e-01
9.964357318e-01,7.80316e-01,9.99999e-01,7.80316e-01,9.99999e-01
1.001417910e+00,7.84148e-01,9.99999e-01,7.84148e-01,9.99999e-01
1.006425000e+00,7.87924e-01,9.99999e-01,7.87924e-01,9.99999e-01
1.011457125e+00,7.91642e-01,9.99999e-01,7.91642e-01,9.99999e-01
1.016514411e+00,7.95304e-01,9.99999e-01,7.95304e-01,9.99999e-01
1.021596983e+00,7.98876e-01,9.99956e-01,7.98910e-01,9.99999e-01
1.026704968e+00,7.99733e-01,9.96600e-01,8.02461e-01,9.99999e-01
1.031838492e+00,7.74329e-01,9.60757e-01,8.05956e-01,9.99999e-01
1.036997685e+00,1.34394e-01,1.66042e-01,8.09398e-01,9.99999e-01
1.042182673e+00,1.12867e-01,1.38864e-01,8.12786e-01,9.99999e-01
1.047393587e+00,1.30821e-01,1.60296e-01,8.16121e-01,9.99999e-01
1.052630555e+00,4.60557e-03,5.62064e-03,8.19403e-01,9.99999e-01
1.057893707e+00,1.11410e-02,1.35431e-02,8.22633e-01,9.99999e-01
1.063183176e+00,3.48773e-02,4.22339e-02,8.25811e-01,9.99999e-01
1.068499092e+00,9.32656e-02,1.12512e-01,8.28939e-01,9.99999e-01
1.073841587e+00,2.08540e-01,2.50644e-01,8.32017e-01,9.99999e-01
1.079210795e+00,3.47858e-01,4.16573e-01,8.35045e-01,9.99999e-01
1.084606849e+00,5.17440e-01,6.17452e-01,8.38023e-01,9.99999e-01
1.090029883e+00,6.54942e-01,7.78809e-01,8.40953e-01,9.99999e-01
1.095480033e+00,7.45945e-01,8.83992e-01,8.43836e-01,9.99999e-01
1.100957433e+00,7.97860e-01,9.42350e-01,8.46671e-01,9.99999e-01
1.106462220e+00,8.28837e-01,9.75723e-01,8.49459e-01,9.99999e-01
1.111994531e+00,8.44475e-01,9.90933e-01,8.52201e-01,9.99999e-01
1.117554504e+00,8.52992e-01,9.97770e-01,8.54897e-01,9.99999e-01
1.123142276e+00,8.57422e-01,9.99852e-01,8.57549e-01,9.99999e-01
1.128757988e+00,8.60156e-01,9.99999e-01,8.60156e-01,9.99999e-01
1.134401778e+00,8.62719e-01,9.99999e-01,8.62719e-01,9.99999e-01
1.140073787e+00,8.65239e-01,9.99999e-01,8.65239e-01,9.99999e-01
1.145774156e+00,8.67716e-01,9.99999e-01,8.67716e-01,9.99999e-01
1.151503026e+00,8.70152e-01,9.99999e-01,8.70152e-01,9.99999e-01
1.157260541e+00,8.72545e-01,9.99999e-01,8.72545e-01,9.99999e-01
1.163046844e+00,8.74898e-01,9.99999e-01,8.74898e-01,9.99999e-01
1.168862078e+00,8.77211e-01,9.99999e-01,8.77211e-01,9.99999e-01
1.174706389e+00,8.79484e-01,9.99999e-01,8.79484e-01,9.99999e-01
1.180579921e+00,8.81718e-01,9.99999e-01,8.81718e-01,9.99999e-01
1.186482820e+00,8.83909e-01,9.99994e-01,8.83913e-01,9.99999e-01
1.192415234e+00,8.75403e-01,9.87960e-01,8.86070e-01,9.99999e-01
1.198377311e+00,5.01311e-01,5.64419e-01,8.88189e-01,9.99999e-01
1.204369197e+00,1.56553e-10,1.75848e-10,8.90272e-01,9.99999e-01
1.210391043e+00,7.85396e-38,8.80175e-38,8.92318e-01,9.99999e-01
1.216442998e+00,5.97629e-33,6.68243e-33,8.94329e-01,9.99999e-01
1.222525213e+00,1.77054e-32,1.97538e-32,8.96304e-01,9.99999e-01
1.228637839e+00,3.77836e-25,4.20638e-25,8.98244e-01,9.99999e-01
1.234781029e+00,2.08451e-16,2.31574e-16,9.00150e-01,9.99999e-01
1.240954934e+00,4.10580e-11,4.55177e-11,9.02022e-01,9.99999e-01
1.247159708e+00,2.89150e-06,3.19904e-06,9.03861e-01,9.99999e-01
1.253395507e+00,4.97709e-04,5.49549e-04,9.05668e-01,9.99999e-01
1.259662485e+00,8.85814e-03,9.76165e-03,9.07442e-01,9.99999e-01
1.265960797e+00,7.46873e-02,8.21475e-02,9.09184e-01,9.99999e-01
1.272290601e+00,2.93072e-01,3.21740e-01,9.10896e-01,9.99999e-01
1.278652054e+00,2.76129e-01,3.02582e-01,9.12577e-01,9.99999e-01
1.285045314e+00,8.66753e-03,9.48071e-03,9.14227e-01,9.99999e-01
1.291470541e+00,3.92954e-05,4.29060e-05,9.15848e-01,9.99999e-01
1.297927893e+00,5.86636e-03,6.39427e-03,9.17439e-01,9.99999e-01
1.304417533e+00,1.35848e-01,1.47821e-01,9.19002e-01,9.99999e-01
1.310939621e+00,3.44469e-02,3.74204e-02,9.20537e-01,9.99999e-01
1.317494319e+00,1.77531e-13,1.92541e-13,9.22044e-01,9.99999e-01
1.324081790e+00,2.08128e-09,2.25363e-09,9.23523e-01,9.99999e-01
1.330702199e+00,1.47353e-05,1.59304e-05,9.24975e-01,9.99999e-01
1.337355710e+00,1.71378e-05,1.84993e-05,9.26401e-01,9.99999e-01
1.344042489e+00,5.25006e-06,5.65860e-06,9.27801e-01,9.99999e-01
1.350762701e+00,9.23271e-06,9.93644e-06,9.29176e-01,9.99999e-01
1.357516515e+00,5.59504e-04,6.01278e-04,9.30525e-01,9.99999e-01
1.364304097e+00,7.66476e-03,8.22532e-03,9.31849e-01,9.99999e-01
1.371125618e+00,7.57761e-02,8.12046e-02,9.33149e-01,9.99999e-01
1.377981246e+00,1.20380e-01,1.28828e-01,9.34425e-01,9.99999e-01
1.384871152e+00,2.83754e-01,3.03260e-01,9.35678e-01,9.99999e-01
1.391795508e+00,3.10918e-01,3.31855e-01,9.36908e-01,9.99999e-01
1.398754485e+00,4.75117e-01,5.06459e-01,9.38114e-01,9.99999e-01
1.405748258e+00,5.68889e-01,6.05652e-01,9.39299e-01,9.99999e-01
1.412776999e+00,6.85061e-01,7.28430e-01,9.40461e-01,9.99999e-01
1.419840884e+00,6.22134e-01,6.60718e-01,9.41602e-01,9.99999e-01
1.426940089e+00,6.10836e-02,6.47949e-02,9.42722e-01,9.99999e-01
1.434074789e+00,0.00000e+00,0.00000e+00,9.43821e-01,9.99999e-01
1.441245163e+00,0.00000e+00,0.00000e+00,9.44900e-01,9.99999e-01
1.448451389e+00,0.00000e+00,0.00000e+00,9.45958e-01,9.99999e-01
1.455693646e+00,1.54634e-302,1.63289e-302,9.46997e-01,9.99999e-01
1.462972114e+00,1.11912e-146,1.18049e-146,9.48016e-01,9.99999e-01
1.470286975e+00,1.11695e-61,1.17696e-61,9.49016e-01,9.99999e-01
1.477638409e+00,2.84328e-39,2.99293e-39,9.49998e-01,9.99999e-01
1.485026601e+00,1.94807e-22,2.04853e-22,9.50961e-01,9.99999e-01
1.492451734e+00,4.09217e-19,4.29892e-19,9.51906e-01,9.99999e-01
1.499913993e+00,4.33197e-09,4.54641e-09,9.52833e-01,9.99999e-01
1.507413563e+00,6.96330e-08,7.30102e-08,9.53742e-01,9.99999e-01
1.514950631e+00,2.80063e-09,2.93371e-09,9.54635e-01,9.99999e-01
1.522525384e+00,2.59024e-28,2.71084e-28,9.55511e-01,9.99999e-01
1.530138011e+00,1.05820e-65,1.10647e-65,9.56370e-01,9.99999e-01
1.537788701e+00,5.89123e-49,6.15456e-49,9.57213e-01,9.99999e-01
1.545477645e+00,2.04596e-11,2.13557e-11,9.58040e-01,9.99999e-01
1.553205033e+00,5.50062e-08,5.73666e-08,9.58852e-01,9.99999e-01
1.560971058e+00,1.64720e-08,1.71646e-08,9.59648e-01,9.99999e-01
1.568775913e+00,1.67387e-164,1.74283e-164,9.60429e-01,9.99999e-01
1.576619793e+00,0.00000e+00,0.00000e+00,9.61195e-01,9.99999e-01
1.584502892e+00,3.89005e-210,4.04393e-210,9.61947e-01,9.99999e-01
1.592425406e+00,1.05043e-146,1.09114e-146,9.62684e-01,9.99999e-01
1.600387533e+00,6.51017e-236,6.75743e-236,9.63408e-01,9.99999e-01
1.608389471e+00,0.00000e+00,0.00000e+00,9.64117e-01,9.99999e-01
1.616431418e+00,0.00000e+00,0.00000e+00,9.64814e-01,9.99999e-01
1.624513575e+00,3.90412e-186,4.04364e-186,9.65496e-01,9.99999e-01
1.632636143e+00,1.72487e-138,1.78527e-138,9.66166e-01,9.99999e-01
1.640799324e+00,3.05536e-57,3.16020e-57,9.66823e-01,9.99999e-01
1.649003321e+00,3.12637e-57,3.23149e-57,9.67468e-01,9.99999e-01
1.657248337e+00,1.64343e-44,1.69758e-44,9.68100e-01,9.99999e-01
1.665534579e+00,8.47018e-45,8.74367e-45,9.68720e-01,9.99999e-01
1.673862252e+00,5.04607e-29,5.20573e-29,9.69329e-01,9.99999e-01
1.682231563e+00,1.75541e-20,1.80983e-20,9.69925e-01,9.99999e-01
1.690642721e+00,5.45794e-12,5.62378e-12,9.70510e-01,9.99999e-01
1.699095934e+00,8.33156e-08,8.57964e-08,9.71084e-01,9.99999e-01
1.707591414e+00,1.65971e-04,1.70814e-04,9.71647e-01,9.99999e-01
1.716129371e+00,7.73374e-03,7.95488e-03,9.72199e-01,9.99999e-01
1.724710018e+00,6.89750e-02,7.09079e-02,9.72741e-01,9.99999e-01
1.733333568e+00,1.76148e-01,1.80986e-01,9.73272e-01,9.99999e-01
1.742000236e+00,3.48816e-01,3.58203e-01,9.73793e-01,9.99999e-01
1.750710237e+00,1.08506e-02,1.11368e-02,9.74304e-01,9.99999e-01
1.759463788e+00,1.13802e-27,1.16743e-27,9.74805e-01,9.99999e-01
1.768261107e+00,4.66607e-29,4.78426e-29,9.75297e-01,9.99999e-01
1.777102413e+00,6.45484e-28,6.61506e-28,9.75779e-01,9.99999e-01
1.785987925e+00,1.41356e-26,1.44795e-26,9.76251e-01,9.99999e-01
1.794917864e+00,2.66252e-25,2.72599e-25,9.76715e-01,9.99999e-01
1.803892454e+00,1.49485e-24,1.52978e-24,9.77169e-01,9.99999e-01
1.812911916e+00,1.72664e-23,1.76618e-23,9.77615e-01,9.99999e-01
1.821976476e+00,1.18781e-23,1.21446e-23,9.78052e-01,9.99999e-01
1.831086358e+00,2.96437e-19,3.02956e-19,9.78481e-01,9.99999e-01
1.840241790e+00,2.22282e-16,2.27072e-16,9.78902e-01,9.99999e-01
1.849442999e+00,1.72926e-11,1.76579e-11,9.79314e-01,9.99999e-01
1.858690214e+00,1.30962e-10,1.33673e-10,9.79719e-01,9.99999e-01
1.867983665e+00,2.26595e-11,2.31192e-11,9.80115e-01,9.99999e-01
1.877323583e+00,6.17196e-52,6.29468e-52,9.80504e-01,9.99999e-01
