#,Wave/freq,Total,CO2,Rayleigh,CIA
4.000000000e-01,4.12177e-04,9.99999e-01,4.12177e-04,9.99999e-01
4.020000000e-01,4.80855e-04,9.99999e-01,4.80855e-04,9.99999e-01
4.040100000e-01,5.59181e-04,9.99999e-01,5.59181e-04,9.99999e-01
4.060300500e-01,6.48331e-04,9.99999e-01,6.48331e-04,9.99999e-01
4.080602003e-01,7.49500e-04,9.99999e-01,7.49500e-04,9.99999e-01
4.101005013e-01,8.63977e-04,9.99999e-01,8.63977e-04,9.99999e-01
4.121510038e-01,9.93148e-04,9.99999e-01,9.93148e-04,9.99999e-01
4.142117588e-01,1.13849e-03,9.99999e-01,1.13849e-03,9.99999e-01
4.162828176e-01,1.30159e-03,9.99999e-01,1.30159e-03,9.99999e-01
4.183642317e-01,1.48413e-03,9.99999e-01,1.48413e-03,9.99999e-01
4.204560528e-01,1.68788e-03,9.99999e-01,1.68788e-03,9.99999e-01
4.225583331e-01,1.91474e-03,9.99999e-01,1.91474e-03,9.99999e-01
4.246711247e-01,2.16668e-03,9.99999e-01,2.16668e-03,9.99999e-01
4.267944804e-01,2.44579e-03,9.99999e-01,2.44579e-03,9.99999e-01
4.289284528e-01,2.75425e-03,9.99999e-01,2.75425e-03,9.99999e-01
4.310730950e-01,3.09435e-03,9.99999e-01,3.09435e-03,9.99999e-01
4.332284605e-01,3.46847e-03,9.99999e-01,3.46847e-03,9.99999e-01
4.353946028e-01,3.87905e-03,9.99999e-01,3.87905e-03,9.99999e-01
4.375715758e-01,4.32867e-03,9.99999e-01,4.32867e-03,9.99999e-01
4.397594337e-01,4.81995e-03,9.99999e-01,4.81995e-03,9.99999e-01
4.419582309e-01,5.35560e-03,9.99999e-01,5.35560e-03,9.99999e-01
4.441680220e-01,5.93840e-03,9.99999e-01,5.93840e-03,9.99999e-01
4.463888621e-01,6.57121e-03,9.99999e-01,6.57121e-03,9.99999e-01
4.486208064e-01,7.25692e-03,9.99999e-01,7.25692e-03,9.99999e-01
4.508639105e-01,7.99848e-03,9.99999e-01,7.99848e-03,9.99999e-01
4.531182300e-01,8.79890e-03,9.99999e-01,8.79890e-03,9.99999e-01
4.553838212e-01,9.66120e-03,9.99999e-01,9.66120e-03,9.99999e-01
4.576607403e-01,1.05884e-02,9.99999e-01,1.05884e-02,9.99999e-01
4.599490440e-01,1.15837e-02,9.99999e-01,1.15837e-02,9.99999e-01
4.622487892e-01,1.26500e-02,9.99999e-01,1.26500e-02,9.99999e-01
4.645600332e-01,1.37904e-02,9.99999e-01,1.37904e-02,9.99999e-01
4.668828333e-01,1.50081e-02,9.99999e-01,1.50081e-02,9.99999e-01
4.692172475e-01,1.63060e-02,9.99999e-01,1.63060e-02,9.99999e-01
4.715633337e-01,1.76872e-02,9.99999e-01,1.76872e-02,9.99999e-01
4.739211504e-01,1.91545e-02,9.99999e-01,1.91545e-02,9.99999e-01
4.762907561e-01,2.07110e-02,9.99999e-01,2.07110e-02,9.99999e-01
4.786722099e-01,2.23594e-02,9.99999e-01,2.23594e-02,9.99999e-01
4.810655710e-01,2.41025e-02,9.99999e-01,2.41025e-02,9.99999e-01
4.834708988e-01,2.59430e-02,9.99999e-01,2.59430e-02,9.99999e-01
4.858882533e-01,2.78835e-02,9.99999e-01,2.78835e-02,9.99999e-01
4.883176946e-01,2.99265e-02,9.99999e-01,2.99265e-02,9.99999e-01
4.907592831e-01,3.20743e-02,9.99999e-01,3.20743e-02,9.99999e-01
4.932130795e-01,3.43293e-02,9.99999e-01,3.43293e-02,9.99999e-01
4.956791449e-01,3.66935e-02,9.99999e-01,3.66935e-02,9.99999e-01
4.981575406e-01,3.91690e-02,9.99999e-01,3.91690e-02,9.99999e-01
5.006483283e-01,4.17575e-02,9.99999e-01,4.17575e-02,9.99999e-01
5.031515699e-01,4.44610e-02,9.99999e-01,4.44610e-02,9.99999e-01
5.056673278e-01,4.72808e-02,9.99999e-01,4.72808e-02,9.99999e-01
5.081956644e-01,5.02184e-02,9.99999e-01,5.02184e-02,9.99999e-01
5.107366428e-01,5.32751e-02,9.99999e-01,5.32751e-02,9.99999e-01
5.132903260e-01,5.64519e-02,9.99999e-01,5.64519e-02,9.99999e-01
5.158567776e-01,5.97497e-02,9.99999e-01,5.97497e-02,9.99999e-01
5.184360615e-01,6.31693e-02,9.99999e-01,6.31693e-02,9.99999e-01
5.210282418e-01,6.67113e-02,9.99999e-01,6.67113e-02,9.99999e-01
5.236333830e-01,7.03759e-02,9.99999e-01,7.03759e-02,9.99999e-01
5.262515499e-01,7.41635e-02,9.99999e-01,7.41635e-02,9.99999e-01
5.288828077e-01,7.80741e-02,9.99999e-01,7.80741e-02,9.99999e-01
5.315272217e-01,8.21074e-02,9.99999e-01,8.21074e-02,9.99999e-01
5.341848578e-01,8.62633e-02,9.99999e-01,8.62633e-02,9.99999e-01
5.368557821e-01,9.05412e-02,9.99999e-01,9.05412e-02,9.99999e-01
5.395400610e-01,9.49404e-02,9.99999e-01,9.49404e-02,9.99999e-01
5.422377613e-01,9.94601e-02,9.99999e-01,9.94601e-02,9.99999e-01
5.449489501e-01,1.04099e-01,9.99999e-01,1.04099e-01,9.99999e-01
5.476736949e-01,1.08857e-01,9.99999e-01,1.08857e-01,9.99999e-01
5.504120634e-01,1.13731e-01,9.99999e-01,1.13731e-01,9.99999e-01
5.531641237e-01,1.18721e-01,9.99999e-01,1.18721e-01,9.99999e-01
5.559299443e-01,1.23825e-01,9.99999e-01,1.23825e-01,9.99999e-01
5.587095940e-01,1.29041e-01,9.99999e-01,1.29041e-01,9.99999e-01
5.615031420e-01,1.34367e-01,9.99999e-01,1.34367e-01,9.99999e-01
5.643106577e-01,1.39802e-01,9.99999e-01,1.39802e-01,9.99999e-01
5.671322110e-01,1.45342e-01,9.99999e-01,1.45342e-01,9.99999e-01
5.699678720e-01,1.50986e-01,9.99999e-01,1.50986e-01,9.99999e-01
5.728177114e-01,1.56730e-01,9.99999e-01,1.56730e-01,9.99999e-01
5.756818000e-01,1.62574e-01,9.99999e-01,1.62574e-01,9.99999e-01
5.785602090e-01,1.68514e-01,9.99999e-01,1.68514e-01,9.99999e-01
5.814530100e-01,1.74546e-01,9.99999e-01,1.74546e-01,9.99999e-01
5.843602750e-01,1.80669e-01,9.99999e-01,1.80669e-01,9.99999e-01
5.872820764e-01,1.86880e-01,9.99999e-01,1.86880e-01,9.99999e-01
5.902184868e-01,1.93175e-01,9.99999e-01,1.93175e-01,9.99999e-01
5.931695792e-01,1.99552e-01,9.99999e-01,1.99552e-01,9.99999e-01
5.961354271e-01,2.06007e-01,9.99999e-01,2.06007e-01,9.99999e-01
5.991161043e-01,2.12537e-01,9.99999e-01,2.12537e-01,9.99999e-01
6.021116848e-01,2.19139e-01,9.99999e-01,2.19139e-01,9.99999e-01
6.051222432e-01,2.25809e-01,9.99999e-01,2.25809e-01,9.99999e-01
6.081478544e-01,2.32545e-01,9.99999e-01,2.32545e-01,9.99999e-01
6.111885937e-01,2.39342e-01,9.99999e-01,2.39342e-01,9.99999e-01
6.142445367e-01,2.46198e-01,9.99999e-01,2.46198e-01,9.99999e-01
6.173157594e-01,2.53110e-01,9.99999e-01,2.53110e-01,9.99999e-01
6.204023382e-01,2.60073e-01,9.99999e-01,2.60073e-01,9.99999e-01
6.235043498e-01,2.67084e-01,9.99999e-01,2.67084e-01,9.99999e-01
6.266218716e-01,2.74141e-01,9.99999e-01,2.74141e-01,9.99999e-01
6.297549810e-01,2.81239e-01,9.99999e-01,2.81239e-01,9.99999e-01
6.329037559e-01,2.88375e-01,9.99999e-01,2.88375e-01,9.99999e-01
6.360682746e-01,2.95545e-01,9.99999e-01,2.95545e-01,9.99999e-01
6.392486160e-01,3.02748e-01,9.99999e-01,3.02748e-01,9.99999e-01
6.424448591e-01,3.09978e-01,9.99999e-01,3.09978e-01,9.99999e-01
6.456570834e-01,3.17233e-01,9.99999e-01,3.17233e-01,9.99999e-01
6.488853688e-01,3.24509e-01,9.99999e-01,3.24509e-01,9.99999e-01
6.521297956e-01,3.31804e-01,9.99999e-01,3.31804e-01,9.99999e-01
6.553904446e-01,3.39114e-01,9.99999e-01,3.39114e-01,9.99999e-01
6.586673968e-01,3.46435e-01,9.99999e-01,3.46435e-01,9.99999e-01
6.619607338e-01,3.53766e-01,9.99999e-01,3.53766e-01,9.99999e-01
6.652705375e-01,3.61102e-01,9.99999e-01,3.61102e-01,9.99999e-01
6.685968902e-01,3.68441e-01,9.99999e-01,3.68441e-01,9.99999e-01
6.719398746e-01,3.75779e-01,9.99999e-01,3.75779e-01,9.99999e-01
6.752995740e-01,3.83115e-01,9.99999e-01,3.83115e-01,9.99999e-01
6.786760719e-01,3.90445e-01,9.99999e-01,3.90445e-01,9.99999e-01
6.820694522e-01,3.97765e-01,9.99999e-01,3.97765e-01,9.99999e-01
6.854797995e-01,4.05075e-01,9.99999e-01,4.05075e-01,9.99999e-01
6.889071985e-01,4.12370e-01,9.99999e-01,4.12370e-01,9.99999e-01
6.923517345e-01,4.19649e-01,9.99999e-01,4.19649e-01,9.99999e-01
6.958134932e-01,4.26909e-01,9.99999e-01,4.26909e-01,9.99999e-01
6.992925606e-01,4.34147e-01,9.99999e-01,4.34147e-01,9.99999e-01
7.027890234e-01,4.41362e-01,9.99999e-01,4.41362e-01,9.99999e-01
7.063029686e-01,4.48550e-01,9.99999e-01,4.48550e-01,9.99999e-01
7.098344834e-01,4.55710e-01,9.99999e-01,4.55710e-01,9.99999e-01
7.133836558e-01,4.62839e-01,9.99999e-01,4.62839e-01,9.99999e-01
7.169505741e-01,4.69936e-01,9.99999e-01,4.69936e-01,9.99999e-01
7.205353270e-01,4.76998e-01,9.99999e-01,4.76998e-01,9.99999e-01
7.241380036e-01,4.84024e-01,9.99999e-01,4.84024e-01,9.99999e-01
7.277586936e-01,4.91011e-01,9.99999e-01,4.91011e-01,9.99999e-01
7.313974871e-01,4.97959e-01,9.99999e-01,4.97959e-01,9.99999e-01
7.350544745e-01,5.04864e-01,9.99999e-01,5.04864e-01,9.99999e-01
7.387297469e-01,5.11726e-01,9.99999e-01,5.11726e-01,9.99999e-01
7.424233956e-01,5.18543e-01,9.99999e-01,5.18543e-01,9.99999e-01
7.461355126e-01,5.25313e-01,9.99999e-01,5.25313e-01,9.99999e-01
7.498661902e-01,5.32036e-01,9.99999e-01,5.32036e-01,9.99999e-01
7.536155211e-01,5.38709e-01,9.99999e-01,5.38709e-01,9.99999e-01
7.573835987e-01,5.45332e-01,9.99999e-01,5.45332e-01,9.99999e-01
7.611705167e-01,5.51902e-01,9.99999e-01,5.51902e-01,9.99999e-01
7.649763693e-01,5.58420e-01,9.99999e-01,5.58420e-01,9.99999e-01
7.688012511e-01,5.64884e-01,9.99999e-01,5.64884e-01,9.99999e-01
7.726452574e-01,5.71293e-01,9.99999e-01,5.71293e-01,9.99999e-01
7.765084837e-01,5.77645e-01,9.99999e-01,5.77645e-01,9.99999e-01
7.803910261e-01,5.69188e-01,9.74734e-01,5.83941e-01,9.99999e-01
7.842929812e-01,5.26050e-01,8.91339e-01,5.90179e-01,9.99999e-01
7.882144461e-01,5.27441e-01,8.84436e-01,5.96359e-01,9.99999e-01
7.921555184e-01,5.61157e-01,9.31412e-01,6.02479e-01,9.99999e-01
7.961162960e-01,5.80159e-01,9.53363e-01,6.08539e-01,9.99999e-01
8.000968774e-01,5.98859e-01,9.74485e-01,6.14539e-01,9.99999e-01
8.040973618e-01,6.12204e-01,9.86666e-01,6.20477e-01,9.99999e-01
8.081178486e-01,6.22520e-01,9.93877e-01,6.26354e-01,9.99999e-01
8.121584379e-01,6.30964e-01,9.98093e-01,6.32169e-01,9.99999e-01
8.162192301e-01,6.37653e-01,9.99578e-01,6.37922e-01,9.99999e-01
8.203003262e-01,6.43607e-01,9.99992e-01,6.43611e-01,9.99999e-01
8.244018279e-01,6.49238e-01,9.99999e-01,6.49238e-01,9.99999e-01
8.285238370e-01,6.54801e-01,9.99999e-01,6.54801e-01,9.99999e-01
8.326664562e-01,6.60300e-01,9.99999e-01,6.60300e-01,9.99999e-01
8.368297885e-01,6.65736e-01,9.99999e-01,6.65736e-01,9.99999e-01
8.410139374e-01,6.71108e-01,9.99999e-01,6.71108e-01,9.99999e-01
8.452190071e-01,6.76416e-01,9.99999e-01,6.76416e-01,9.99999e-01
8.494451021e-01,6.81659e-01,9.99999e-01,6.81659e-01,9.99999e-01
8.536923276e-01,6.86839e-01,9.99999e-01,6.86839e-01,9.99999e-01
8.579607893e-01,6.91954e-01,9.99999e-01,6.91954e-01,9.99999e-01
8.622505932e-01,6.97005e-01,9.99999e-01,6.97005e-01,9.99999e-01
8.665618462e-01,6.59314e-01,9.39202e-01,7.01993e-01,9.99999e-01
8.708946554e-01,5.27318e-01,7.45941e-01,7.06916e-01,9.99999e-01
8.752491287e-01,5.62468e-01,7.90230e-01,7.11776e-01,9.99999e-01
8.796253743e-01,6.29975e-01,8.79150e-01,7.16572e-01,9.99999e-01
8.840235012e-01,6.74834e-01,9.35573e-01,7.21305e-01,9.99999e-01
8.884436187e-01,7.07134e-01,9.74047e-01,7.25974e-01,9.99999e-01
8.928858368e-01,7.22861e-01,9.89432e-01,7.30581e-01,9.99999e-01
8.973502660e-01,7.33223e-01,9.97411e-01,7.35125e-01,9.99999e-01
9.018370173e-01,7.39396e-01,9.99713e-01,7.39607e-01,9.99999e-01
9.063462024e-01,7.38701e-01,9.92841e-01,7.44027e-01,9.99999e-01
9.108779334e-01,7.35957e-01,9.83392e-01,7.48385e-01,9.99999e-01
9.154323231e-01,7.49710e-01,9.96051e-01,7.52682e-01,9.99999e-01
9.200094847e-01,7.14680e-01,9.44197e-01,7.56918e-01,9.99999e-01
9.246095321e-01,7.01188e-01,9.21290e-01,7.61093e-01,9.99999e-01
9.292325798e-01,7.17833e-01,9.38087e-01,7.65208e-01,9.99999e-01
9.338787427e-01,7.22920e-01,9.39754e-01,7.69264e-01,9.99999e-01
9.385481364e-01,7.38796e-01,9.55429e-01,7.73260e-01,9.99999e-01
9.432408771e-01,7.55771e-01,9.72431e-01,7.77197e-01,9.99999e-01
9.479570815e-01,7.69980e-01,9.85792e-01,7.81077e-01,9.99999e-01
9.526968669e-01,7.79495e-01,9.93115e-01,7.84898e-01,9.99999e-01
9.574603512e-01,7.86336e-01,9.97049e-01,7.88662e-01,9.99999e-01
9.622476530e-01,7.91639e-01,9.99078e-01,7.92369e-01,9.99999e-01
9.670588912e-01,7.95800e-01,9.99723e-01,7.96020e-01,9.99999e-01
9.718941857e-01,7.99599e-01,9.99979e-01,7.99615e-01,9.99999e-01
9.767536566e-01,8.03155e-01,9.99999e-01,8.03155e-01,9.99999e-01
9.816374249e-01,8.06640e-01,9.99999e-01,8.06640e-01,9.99999e-01
9.865456120e-01,8.10071e-01,9.99999e-01,8.10071e-01,9.99999e-01
9.914783401e-01,8.13448e-01,9.99999e-01,8.13448e-01,9.99999e-01
9.964357318e-01,8.16772e-01,9.99999e-01,8.16772e-01,9.99999e-01
1.001417910e+00,8.20044e-01,9.99999e-01,8.20044e-01,9.99999e-01
1.006425000e+00,8.23264e-01,9.99999e-01,8.23264e-01,9.99999e-01
1.011457125e+00,8.26433e-01,9.99999e-01,8.26433e-01,9.99999e-01
1.016514411e+00,8.29551e-01,9.99999e-01,8.29551e-01,9.99999e-01
1.021596983e+00,8.32589e-01,9.99964e-01,8.32618e-01,9.99999e-01
1.026704968e+00,8.33310e-01,9.97216e-01,8.35636e-01,9.99999e-01
1.031838492e+00,8.09810e-01,9.65662e-01,8.38605e-01,9.99999e-01
1.036997685e+00,1.67299e-01,1.98804e-01,8.41526e-01,9.99999e-01
1.042182673e+00,1.64698e-01,1.95047e-01,8.44399e-01,9.99999e-01
1.047393587e+00,1.75132e-01,2.06713e-01,8.47224e-01,9.99999e-01
1.052630555e+00,1.05583e-02,1.24215e-02,8.50003e-01,9.99999e-01
1.057893707e+00,2.33904e-02,2.74297e-02,8.52736e-01,9.99999e-01
1.063183176e+00,6.15546e-02,7.19579e-02,8.55424e-01,9.99999e-01
1.068499092e+00,1.42534e-01,1.66111e-01,8.58066e-01,9.99999e-01
1.073841587e+00,2.76482e-01,3.21242e-01,8.60665e-01,9.99999e-01
1.079210795e+00,4.21054e-01,4.87771e-01,8.63219e-01,9.99999e-01
1.084606849e+00,5.83773e-01,6.74312e-01,8.65731e-01,9.99999e-01
1.090029883e+00,7.07884e-01,8.15346e-01,8.68200e-01,9.99999e-01
1.095480033e+00,7.87271e-01,9.04257e-01,8.70627e-01,9.99999e-01
1.100957433e+00,8.31732e-01,9.52713e-01,8.73013e-01,9.99999e-01
1.106462220e+00,8.57988e-01,9.80156e-01,8.75358e-01,9.99999e-01
1.111994531e+00,8.71169e-01,9.92600e-01,8.77663e-01,9.99999e-01
1.117554504e+00,8.78329e-01,9.98182e-01,8.79928e-01,9.99999e-01
1.123142276e+00,8.82048e-01,9.99879e-01,8.82154e-01,9.99999e-01
1.128757988e+00,8.84341e-01,9.99999e-01,8.84341e-01,9.99999e-01
1.134401778e+00,8.86491e-01,9.99999e-01,8.86491e-01,9.99999e-01
1.140073787e+00,8.88603e-01,9.99999e-01,8.88603e-01,9.99999e-01
1.145774156e+00,8.90679e-01,9.99999e-01,8.90679e-01,9.99999e-01
1.151503026e+00,8.92718e-01,9.99999e-01,8.92718e-01,9.99999e-01
1.157260541e+00,8.94721e-01,9.99999e-01,8.94721e-01,9.99999e-01
1.163046844e+00,8.96689e-01,9.99999e-01,8.96689e-01,9.99999e-01
1.168862078e+00,8.98623e-01,9.99999e-01,8.98623e-01,9.99999e-01
1.174706389e+00,9.00522e-01,9.99999e-01,9.00522e-01,9.99999e-01
1.180579921e+00,9.02388e-01,9.99999e-01,9.02388e-01,9.99999e-01
1.186482820e+00,9.04217e-01,9.99995e-01,9.04220e-01,9.99999e-01
1.192415234e+00,8.97047e-01,9.90095e-01,9.06020e-01,9.99999e-01
1.198377311e+00,5.17473e-01,5.70037e-01,9.07788e-01,9.99999e-01
1.204369197e+00,5.23836e-09,5.75944e-09,9.09525e-01,9.99999e-01
1.210391043e+00,2.78187e-31,3.05287e-31,9.11230e-01,9.99999e-01
1.216442998e+00,2.67529e-27,2.93052e-27,9.12905e-01,9.99999e-01
1.222525213e+00,6.51435e-27,7.12301e-27,9.14549e-01,9.99999e-01
1.228637839e+00,8.14063e-21,8.88554e-21,9.16164e-01,9.99999e-01
1.234781029e+00,8.43623e-14,9.19228e-14,9.17750e-01,9.99999e-01
1.240954934e+00,2.27140e-09,2.47077e-09,9.19307e-01,9.99999e-01
1.247159708e+00,1.88936e-05,2.05178e-05,9.20836e-01,9.99999e-01
1.253395507e+00,1.82066e-03,1.97397e-03,9.22338e-01,9.99999e-01
1.259662485e+00,2.62621e-02,2.84280e-02,9.23812e-01,9.99999e-01
1.265960797e+00,1.16772e-01,1.26204e-01,9.25259e-01,9.99999e-01
1.272290601e+00,3.65511e-01,3.94430e-01,9.26680e-01,9.99999e-01
1.278652054e+00,3.41263e-01,3.67710e-01,9.28074e-01,9.99999e-01
1.285045314e+00,1.48025e-02,1.59262e-02,9.29444e-01,9.99999e-01
1.291470541e+00,2.25555e-04,2.42327e-04,9.30788e-01,9.99999e-01
1.297927893e+00,1.20425e-02,1.29197e-02,9.32108e-01,9.99999e-01
1.304417533e+00,1.95037e-01,2.08952e-01,9.33403e-01,9.99999e-01
1.310939621e+00,5.10754e-02,5.46450e-02,9.34674e-01,9.99999e-01
1.317494319e+00,3.14450e-11,3.35979e-11,9.35923e-01,9.99999e-01
1.324081790e+00,5.68106e-08,6.06207e-08,9.37148e-01,9.99999e-01
1.330702199e+00,1.04450e-04,1.11313e-04,9.38350e-01,9.99999e-01
1.337355710e+00,9.83964e-05,1.04729e-04,9.39530e-01,9.99999e-01
1.344042489e+00,2.98481e-05,3.17300e-05,9.40688e-01,9.99999e-01
1.350762701e+00,6.97761e-05,7.40860e-05,9.41825e-01,9.99999e-01
1.357516515e+00,1.95227e-03,2.07040e-03,9.42941e-01,9.99999e-01
1.364304097e+00,1.83414e-02,1.94287e-02,9.44036e-01,9.99999e-01
1.371125618e+00,1.19217e-01,1.26141e-01,9.45110e-01,9.99999e-01
1.377981246e+00,1.77188e-01,1.87269e-01,9.46165e-01,9.99999e-01
1.384871152e+00,3.57091e-01,3.76996e-01,9.47199e-01,9.99999e-01
1.391795508e+00,3.84951e-01,4.05974e-01,9.48215e-01,9.99999e-01
1.398754485e+00,5.44819e-01,5.73970e-01,9.49211e-01,9.99999e-01
1.405748258e+00,6.30877e-01,6.63948e-01,9.50189e-01,9.99999e-01
1.412776999e+00,7.34435e-01,7.72155e-01,9.51148e-01,9.99999e-01
1.419840884e+00,6.70787e-01,7.04541e-01,9.52090e-01,9.99999e-01
1.426940089e+00,7.41704e-02,7.78272e-02,9.53014e-01,9.99999e-01
1.434074789e+00,0.00000e+00,0.00000e+00,9.53920e-01,9.99999e-01
1.441245163e+00,0.00000e+00,0.00000e+00,9.54809e-01,9.99999e-01
1.448451389e+00,0.00000e+00,0.00000e+00,9.55682e-01,9.99999e-01
1.455693646e+00,2.88680e-247,3.01797e-247,9.56538e-01,9.99999e-01
1.462972114e+00,4.28958e-120,4.48055e-120,9.57378e-01,9.99999e-01
1.470286975e+00,9.69650e-51,1.01195e-50,9.58202e-01,9.99999e-01
1.477638409e+00,1.86436e-32,1.94404e-32,9.59010e-01,9.99999e-01
1.485026601e+00,1.11067e-18,1.15719e-18,9.59803e-01,9.99999e-01
1.492451734e+00,6.52993e-16,6.79788e-16,9.60581e-01,9.99999e-01
1.499913993e+00,9.09752e-08,9.46332e-08,9.61345e-01,9.99999e-01
1.507413563e+00,1.36999e-06,1.42397e-06,9.62094e-01,9.99999e-01
1.514950631e+00,5.56749e-08,5.78242e-08,9.62828e-01,9.99999e-01
1.522525384e+00,1.62516e-23,1.68664e-23,9.63549e-01,9.99999e-01
1.530138011e+00,5.36764e-54,5.56661e-54,9.64256e-01,9.99999e-01
1.537788701e+00,2.44626e-40,2.53512e-40,9.64949e-01,9.99999e-01
1.545477645e+00,9.95891e-10,1.03134e-09,9.65630e-01,9.99999e-01
1.553205033e+00,1.07536e-06,1.11287e-06,9.66297e-01,9.99999e-01
1.560971058e+00,3.04470e-07,3.14876e-07,9.66952e-01,9.99999e-01
1.568775913e+00,1.22506e-134,1.26608e-134,9.67594e-01,9.99999e-01
1.576619793e+00,1.51405e-314,1.56374e-314,9.68223e-01,9.99999e-01
1.584502892e+00,7.14088e-172,7.37053e-172,9.68841e-01,9.99999e-01
1.592425406e+00,4.40826e-120,4.54719e-120,9.69447e-01,9.99999e-01
1.600387533e+00,6.63428e-193,6.83917e-193,9.70042e-01,9.99999e-01
1.608389471e+00,9.88131e-324,9.88131e-324,9.70624e-01,9.99999e-01
1.616431418e+00,0.00000e+00,0.00000e+00,9.71196e-01,9.99999e-01
1.624513575e+00,2.73897e-152,2.81857e-152,9.71757e-01,9.99999e-01
1.632636143e+00,2.06859e-113,2.12750e-113,9.72307e-01,9.99999e-01
1.640799324e+00,4.04512e-47,4.15802e-47,9.72847e-01,9.99999e-01
1.649003321e+00,4.25815e-47,4.37461e-47,9.73376e-01,9.99999e-01
1.657248337e+00,1.06301e-36,1.09151e-36,9.73895e-01,9.99999e-01
1.665534579e+00,6.17272e-37,6.33486e-37,9.74404e-01,9.99999e-01
1.673862252e+00,4.77829e-24,4.90130e-24,9.74903e-01,9.99999e-01
1.682231563e+00,4.52644e-17,4.64063e-17,9.75392e-01,9.99999e-01
1.690642721e+00,3.69769e-10,3.78911e-10,9.75873e-01,9.99999e-01
1.699095934e+00,1.26326e-06,1.29387e-06,9.76343e-01,9.99999e-01
1.707591414e+00,6.86325e-04,7.02622e-04,9.76805e-01,9.99999e-01
1.716129371e+00,1.77128e-02,1.81250e-02,9.77258e-01,9.99999e-01
1.724710018e+00,1.11213e-01,1.13749e-01,9.77702e-01,9.99999e-01
1.733333568e+00,2.41446e-01,2.46842e-01,9.78138e-01,9.99999e-01
1.742000236e+00,4.18591e-01,4.27759e-01,9.78565e-01,9.99999e-01
1.750710237e+00,1.75195e-02,1.78956e-02,9.78984e-01,9.99999e-01
1.759463788e+00,6.59718e-23,6.73597e-23,9.79395e-01,9.99999e-01
1.768261107e+00,4.01467e-24,4.09745e-24,9.79797e-01,9.99999e-01
1.777102413e+00,5.08608e-23,5.18885e-23,9.80193e-01,9.99999e-01
1.785987925e+00,4.71197e-22,4.80529e-22,9.80580e-01,9.99999e-01
1.794917864e+00,6.28488e-21,6.40686e-21,9.80960e-01,9.99999e-01
1.803892454e+00,1.92082e-20,1.95736e-20,9.81332e-01,9.99999e-01
1.812911916e+00,1.70057e-19,1.73227e-19,9.81698e-01,9.99999e-01
1.821976476e+00,1.09001e-19,1.10993e-19,9.82056e-01,9.99999e-01
1.831086358e+00,4.22798e-16,4.30369e-16,9.82407e-01,9.99999e-01
1.840241790e+00,1.14424e-13,1.16432e-13,9.82752e-01,9.99999e-01
1.849442999e+00,1.29562e-09,1.31790e-09,9.83089e-01,9.99999e-01
1.858690214e+00,8.14783e-09,8.28519e-09,9.83421e-01,9.99999e-01
1.867983665e+00,1.34562e-09,1.36786e-09,9.83745e-01,9.99999e-01
1.877323583e+00,9.16006e-43,9.30839e-43,9.84064e-01,9.99999e-01
