#,Wave/freq,Total,CO2,Rayleigh,CIA
4.000000000e-01,2.10092e-06,9.99999e-01,2.10092e-06,9.99999e-01
4.020000000e-01,2.72065e-06,9.99999e-01,2.72065e-06,9.99999e-01
4.040100000e-01,3.50431e-06,9.99999e-01,3.50431e-06,9.99999e-01
4.060300500e-01,4.49117e-06,9.99999e-01,4.49117e-06,9.99999e-01
4.080602003e-01,5.72782e-06,9.99999e-01,5.72782e-06,9.99999e-01
4.101005013e-01,7.26996e-06,9.99999e-01,7.26996e-06,9.99999e-01
4.121510038e-01,9.18394e-06,9.99999e-01,9.18394e-06,9.99999e-01
4.142117588e-01,1.15484e-05,9.99999e-01,1.15484e-05,9.99999e-01
4.162828176e-01,1.44560e-05,9.99999e-01,1.44560e-05,9.99999e-01
4.183642317e-01,1.80157e-05,9.99999e-01,1.80157e-05,9.99999e-01
4.204560528e-01,2.23544e-05,9.99999e-01,2.23544e-05,9.99999e-01
4.225583331e-01,2.76201e-05,9.99999e-01,2.76201e-05,9.99999e-01
4.246711247e-01,3.39838e-05,9.99999e-01,3.39838e-05,9.99999e-01
4.267944804e-01,4.16428e-05,9.99999e-01,4.16428e-05,9.99999e-01
4.289284528e-01,5.08236e-05,9.99999e-01,5.08236e-05,9.99999e-01
4.310730950e-01,6.17847e-05,9.99999e-01,6.17847e-05,9.99999e-01
4.332284605e-01,7.48206e-05,9.99999e-01,7.48206e-05,9.99999e-01
4.353946028e-01,9.02651e-05,9.99999e-01,9.02651e-05,9.99999e-01
4.375715758e-01,1.08495e-04,9.99999e-01,1.08495e-04,9.99999e-01
4.397594337e-01,1.29933e-04,9.99999e-01,1.29933e-04,9.99999e-01
4.419582309e-01,1.55054e-04,9.99999e-01,1.55054e-04,9.99999e-01
4.441680220e-01,1.84387e-04,9.99999e-01,1.84387e-04,9.99999e-01
4.463888621e-01,2.18520e-04,9.99999e-01,2.18520e-04,9.99999e-01
4.486208064e-01,2.58104e-04,9.99999e-01,2.58104e-04,9.99999e-01
4.508639105e-01,3.03858e-04,9.99999e-01,3.03858e-04,9.99999e-01
4.531182300e-01,3.56572e-04,9.99999e-01,3.56572e-04,9.99999e-01
4.553838212e-01,4.17110e-04,9.99999e-01,4.17110e-04,9.99999e-01
4.576607403e-01,4.86417e-04,9.99999e-01,4.86417e-04,9.99999e-01
4.599490440e-01,5.65521e-04,9.99999e-01,5.65521e-04,9.99999e-01
4.622487892e-01,6.55535e-04,9.99999e-01,6.55535e-04,9.99999e-01
4.645600332e-01,7.57663e-04,9.99999e-01,7.57663e-04,9.99999e-01
4.668828333e-01,8.73201e-04,9.99999e-01,8.73201e-04,9.99999e-01
4.692172475e-01,1.00354e-03,9.99999e-01,1.00354e-03,9.99999e-01
4.715633337e-01,1.15017e-03,9.99999e-01,1.15017e-03,9.99999e-01
4.739211504e-01,1.31468e-03,9.99999e-01,1.31468e-03,9.99999e-01
4.762907561e-01,1.49875e-03,9.99999e-01,1.49875e-03,9.99999e-01
4.786722099e-01,1.70418e-03,9.99999e-01,1.70418e-03,9.99999e-01
4.810655710e-01,1.93286e-03,9.99999e-01,1.93286e-03,9.99999e-01
4.834708988e-01,2.18678e-03,9.99999e-01,2.18678e-03,9.99999e-01
4.858882533e-01,2.46803e-03,9.99999e-01,2.46803e-03,9.99999e-01
4.883176946e-01,2.77880e-03,9.99999e-01,2.77880e-03,9.99999e-01
4.907592831e-01,3.12139e-03,9.99999e-01,3.12139e-03,9.99999e-01
4.932130795e-01,3.49817e-03,9.99999e-01,3.49817e-03,9.99999e-01
4.956791449e-01,3.91161e-03,9.99999e-01,3.91161e-03,9.99999e-01
4.981575406e-01,4.36428e-03,9.99999e-01,4.36428e-03,9.99999e-01
5.006483283e-01,4.85881e-03,9.99999e-01,4.85881e-03,9.99999e-01
5.031515699e-01,5.39793e-03,9.99999e-01,5.39793e-03,9.99999e-01
5.056673278e-01,5.98441e-03,9.99999e-01,5.98441e-03,9.99999e-01
5.081956644e-01,6.62110e-03,9.99999e-01,6.62110e-03,9.99999e-01
5.107366428e-01,7.31093e-03,9.99999e-01,7.31093e-03,9.99999e-01
5.132903260e-01,8.05683e-03,9.99999e-01,8.05683e-03,9.99999e-01
5.158567776e-01,8.86181e-03,9.99999e-01,8.86181e-03,9.99999e-01
5.184360615e-01,9.72891e-03,9.99999e-01,9.72891e-03,9.99999e-01
5.210282418e-01,1.06612e-02,9.99999e-01,1.06612e-02,9.99999e-01
5.236333830e-01,1.16617e-02,9.99999e-01,1.16617e-02,9.99999e-01
5.262515499e-01,1.27335e-02,9.99999e-01,1.27335e-02,9.99999e-01
5.288828077e-01,1.38797e-02,9.99999e-01,1.38797e-02,9.99999e-01
5.315272217e-01,1.51033e-02,9.99999e-01,1.51033e-02,9.99999e-01
5.341848578e-01,1.64074e-02,9.99999e-01,1.64074e-02,9.99999e-01
5.368557821e-01,1.77949e-02,9.99999e-01,1.77949e-02,9.99999e-01
5.395400610e-01,1.92689e-02,9.99999e-01,1.92689e-02,9.99999e-01
5.422377613e-01,2.08322e-02,9.99999e-01,2.08322e-02,9.99999e-01
5.449489501e-01,2.24877e-02,9.99999e-01,2.24877e-02,9.99999e-01
5.476736949e-01,2.42381e-02,9.99999e-01,2.42381e-02,9.99999e-01
5.504120634e-01,2.60861e-02,9.99999e-01,2.60861e-02,9.99999e-01
5.531641237e-01,2.80342e-02,9.99999e-01,2.80342e-02,9.99999e-01
5.559299443e-01,3.00850e-02,9.99999e-01,3.00850e-02,9.99999e-01
5.587095940e-01,3.22409e-02,9.99999e-01,3.22409e-02,9.99999e-01
5.615031420e-01,3.45040e-02,9.99999e-01,3.45040e-02,9.99999e-01
5.643106577e-01,3.68765e-02,9.99999e-01,3.68765e-02,9.99999e-01
5.671322110e-01,3.93605e-02,9.99999e-01,3.93605e-02,9.99999e-01
5.699678720e-01,4.19577e-02,9.99999e-01,4.19577e-02,9.99999e-01
5.728177114e-01,4.46698e-02,9.99999e-01,4.46698e-02,9.99999e-01
5.756818000e-01,4.74985e-02,9.99999e-01,4.74985e-02,9.99999e-01
5.785602090e-01,5.04450e-02,9.99999e-01,5.04450e-02,9.99999e-01
5.814530100e-01,5.35108e-02,9.99999e-01,5.35108e-02,9.99999e-01
5.843602750e-01,5.66967e-02,9.99999e-01,5.66967e-02,9.99999e-01
5.872820764e-01,6.00037e-02,9.99999e-01,6.00037e-02,9.99999e-01
5.902184868e-01,6.34325e-02,9.99999e-01,6.34325e-02,9.99999e-01
5.931695792e-01,6.69837e-02,9.99999e-01,6.69837e-02,9.99999e-01
5.961354271e-01,7.06576e-02,9.99999e-01,7.06576e-02,9.99999e-01
5.991161043e-01,7.44545e-02,9.99999e-01,7.44545e-02,9.99999e-01
6.021116848e-01,7.83744e-02,9.99999e-01,7.83744e-02,9.99999e-01
6.051222432e-01,8.24170e-02,9.99999e-01,8.24170e-02,9.99999e-01
6.081478544e-01,8.65821e-02,9.99999e-01,8.65821e-02,9.99999e-01
6.111885937e-01,9.08692e-02,9.99999e-01,9.08692e-02,9.99999e-01
6.142445367e-01,9.52775e-02,9.99999e-01,9.52775e-02,9.99999e-01
6.173157594e-01,9.98063e-02,9.99999e-01,9.98063e-02,9.99999e-01
6.204023382e-01,1.04454e-01,9.99999e-01,1.04454e-01,9.99999e-01
6.235043498e-01,1.09221e-01,9.99999e-01,1.09221e-01,9.99999e-01
6.266218716e-01,1.14104e-01,9.99999e-01,1.14104e-01,9.99999e-01
6.297549810e-01,1.19103e-01,9.99999e-01,1.19103e-01,9.99999e-01
6.329037559e-01,1.24215e-01,9.99999e-01,1.24215e-01,9.99999e-01
6.360682746e-01,1.29440e-01,9.99999e-01,1.29440e-01,9.99999e-01
6.392486160e-01,1.34774e-01,9.99999e-01,1.34774e-01,9.99999e-01
6.424448591e-01,1.40216e-01,9.99999e-01,1.40216e-01,9.99999e-01
6.456570834e-01,1.45764e-01,9.99999e-01,1.45764e-01,9.99999e-01
6.488853688e-01,1.51416e-01,9.99999e-01,1.51416e-01,9.99999e-01
6.521297956e-01,1.57168e-01,9.99999e-01,1.57168e-01,9.99999e-01
6.553904446e-01,1.63019e-01,9.99999e-01,1.63019e-01,9.99999e-01
6.586673968e-01,1.68966e-01,9.99999e-01,1.68966e-01,9.99999e-01
6.619607338e-01,1.75006e-01,9.99999e-01,1.75006e-01,9.99999e-01
6.652705375e-01,1.81135e-01,9.99999e-01,1.81135e-01,9.99999e-01
6.685968902e-01,1.87353e-01,9.99999e-01,1.87353e-01,9.99999e-01
6.719398746e-01,1.93654e-01,9.99999e-01,1.93654e-01,9.99999e-01
6.752995740e-01,2.00037e-01,9.99999e-01,2.00037e-01,9.99999e-01
6.786760719e-01,2.06497e-01,9.99999e-01,2.06497e-01,9.99999e-01
6.820694522e-01,2.13033e-01,9.99999e-01,2.13033e-01,9.99999e-01
6.854797995e-01,2.19640e-01,9.99999e-01,2.19640e-01,9.99999e-01
6.889071985e-01,2.26315e-01,9.99999e-01,2.26315e-01,9.99999e-01
6.923517345e-01,2.33056e-01,9.99999e-01,2.33056e-01,9.99999e-01
6.958134932e-01,2.39858e-01,9.99999e-01,2.39858e-01,9.99999e-01
6.992925606e-01,2.46718e-01,9.99999e-01,2.46718e-01,9.99999e-01
7.027890234e-01,2.53634e-01,9.99999e-01,2.53634e-01,9.99999e-01
7.063029686e-01,2.60601e-01,9.99999e-01,2.60601e-01,9.99999e-01
7.098344834e-01,2.67616e-01,9.99999e-01,2.67616e-01,9.99999e-01
7.133836558e-01,2.74675e-01,9.99999e-01,2.74675e-01,9.99999e-01
7.169505741e-01,2.81776e-01,9.99999e-01,2.81776e-01,9.99999e-01
7.205353270e-01,2.88915e-01,9.99999e-01,2.88915e-01,9.99999e-01
7.241380036e-01,2.96088e-01,9.99999e-01,2.96088e-01,9.99999e-01
7.277586936e-01,3.03293e-01,9.99999e-01,3.03293e-01,9.99999e-01
7.313974871e-01,3.10525e-01,9.99999e-01,3.10525e-01,9.99999e-01
7.350544745e-01,3.17782e-01,9.99999e-01,3.17782e-01,9.99999e-01
7.387297469e-01,3.25059e-01,9.99999e-01,3.25059e-01,9.99999e-01
7.424233956e-01,3.32355e-01,9.99999e-01,3.32355e-01,9.99999e-01
7.461355126e-01,3.39666e-01,9.99999e-01,3.39666e-01,9.99999e-01
7.498661902e-01,3.46989e-01,9.99999e-01,3.46989e-01,9.99999e-01
7.536155211e-01,3.54320e-01,9.99999e-01,3.54320e-01,9.99999e-01
7.573835987e-01,3.61656e-01,9.99999e-01,3.61656e-01,9.99999e-01
7.611705167e-01,3.68995e-01,9.99999e-01,3.68995e-01,9.99999e-01
7.649763693e-01,3.76333e-01,9.99999e-01,3.76333e-01,9.99999e-01
7.688012511e-01,3.83669e-01,9.99999e-01,3.83669e-01,9.99999e-01
7.726452574e-01,3.90998e-01,9.99999e-01,3.90998e-01,9.99999e-01
7.765084837e-01,3.98318e-01,9.99999e-01,3.98318e-01,9.99999e-01
7.803910261e-01,3.89160e-01,9.59404e-01,4.05626e-01,9.99999e-01
7.842929812e-01,3.41592e-01,8.27257e-01,4.12921e-01,9.99999e-01
7.882144461e-01,3.43306e-01,8.17009e-01,4.20198e-01,9.99999e-01
7.921555184e-01,3.79609e-01,8.88065e-01,4.27457e-01,9.99999e-01
7.961162960e-01,4.01327e-01,9.23241e-01,4.34693e-01,9.99999e-01
8.000968774e-01,4.23196e-01,9.57662e-01,4.41906e-01,9.99999e-01
8.040973618e-01,4.39120e-01,9.77795e-01,4.49092e-01,9.99999e-01
8.081178486e-01,4.51580e-01,9.89765e-01,4.56249e-01,9.99999e-01
8.121584379e-01,4.61901e-01,9.96816e-01,4.63376e-01,9.99999e-01
8.162192301e-01,4.70140e-01,9.99295e-01,4.70471e-01,9.99999e-01
8.203003262e-01,4.77525e-01,9.99988e-01,4.77530e-01,9.99999e-01
8.244018279e-01,4.84553e-01,9.99999e-01,4.84553e-01,9.99999e-01
8.285238370e-01,4.91537e-01,9.99999e-01,4.91537e-01,9.99999e-01
8.326664562e-01,4.98482e-01,9.99999e-01,4.98482e-01,9.99999e-01
8.368297885e-01,5.05384e-01,9.99999e-01,5.05384e-01,9.99999e-01
8.410139374e-01,5.12242e-01,9.99999e-01,5.12242e-01,9.99999e-01
8.452190071e-01,5.19056e-01,9.99999e-01,5.19056e-01,9.99999e-01
8.494451021e-01,5.25823e-01,9.99999e-01,5.25823e-01,9.99999e-01
8.536923276e-01,5.32541e-01,9.99999e-01,5.32541e-01,9.99999e-01
8.579607893e-01,5.39211e-01,9.99999e-01,5.39211e-01,9.99999e-01
8.622505932e-01,5.45830e-01,9.99999e-01,5.45830e-01,9.99999e-01
8.665618462e-01,5.06086e-01,9.16164e-01,5.52396e-01,9.99999e-01
8.708946554e-01,3.46627e-01,6.20183e-01,5.58910e-01,9.99999e-01
8.752491287e-01,3.83678e-01,6.78631e-01,5.65370e-01,9.99999e-01
8.796253743e-01,4.61597e-01,8.07306e-01,5.71774e-01,9.99999e-01
8.840235012e-01,5.17259e-01,8.94721e-01,5.78123e-01,9.99999e-01
8.884436187e-01,5.59286e-01,9.57002e-01,5.84414e-01,9.99999e-01
8.928858368e-01,5.80237e-01,9.82373e-01,5.90648e-01,9.99999e-01
8.973502660e-01,5.94244e-01,9.95678e-01,5.96823e-01,9.99999e-01
9.018370173e-01,6.02651e-01,9.99522e-01,6.02938e-01,9.99999e-01
9.063462024e-01,6.01699e-01,9.88021e-01,6.08994e-01,9.99999e-01
9.108779334e-01,5.97992e-01,9.72361e-01,6.14989e-01,9.99999e-01
9.154323231e-01,6.16835e-01,9.93415e-01,6.20923e-01,9.99999e-01
9.200094847e-01,5.70978e-01,9.10948e-01,6.26796e-01,9.99999e-01
9.246095321e-01,5.51603e-01,8.71953e-01,6.32606e-01,9.99999e-01
9.292325798e-01,5.73802e-01,8.98877e-01,6.38354e-01,9.99999e-01
9.338787427e-01,5.80602e-01,9.01502e-01,6.44038e-01,9.99999e-01
9.385481364e-01,6.01955e-01,9.26568e-01,6.49660e-01,9.99999e-01
9.432408771e-01,6.25270e-01,9.54291e-01,6.55219e-01,9.99999e-01
9.479570815e-01,6.45062e-01,9.76311e-01,6.60713e-01,9.99999e-01
9.526968669e-01,6.58484e-01,9.88500e-01,6.66144e-01,9.99999e-01
9.574603512e-01,6.68198e-01,9.95065e-01,6.71511e-01,9.99999e-01
9.622476530e-01,6.75770e-01,9.98457e-01,6.76814e-01,9.99999e-01
9.670588912e-01,6.81737e-01,9.99537e-01,6.82053e-01,9.99999e-01
9.718941857e-01,6.87205e-01,9.99966e-01,6.87227e-01,9.99999e-01
9.767536566e-01,6.92338e-01,9.99999e-01,6.92338e-01,9.99999e-01
9.816374249e-01,6.97384e-01,9.99999e-01,6.97384e-01,9.99999e-01
9.865456120e-01,7.02367e-01,9.99999e-01,7.02367e-01,9.99999e-01
9.914783401e-01,7.07285e-01,9.99999e-01,7.07285e-01,9.99999e-01
9.964357318e-01,7.12140e-01,9.99999e-01,7.12140e-01,9.99999e-01
1.001417910e+00,7.16932e-01,9.99999e-01,7.16932e-01,9.99999e-01
1.006425000e+00,7.21660e-01,9.99999e-01,7.21660e-01,9.99999e-01
1.011457125e+00,7.26324e-01,9.99999e-01,7.26324e-01,9.99999e-01
1.016514411e+00,7.30926e-01,9.99999e-01,7.30926e-01,9.99999e-01
1.021596983e+00,7.35421e-01,9.99938e-01,7.35466e-01,9.99999e-01
1.026704968e+00,7.36477e-01,9.95316e-01,7.39943e-01,9.99999e-01
1.031838492e+00,7.07017e-01,9.49833e-01,7.44358e-01,9.99999e-01
1.036997685e+00,9.30445e-02,1.24273e-01,7.48711e-01,9.99999e-01
1.042182673e+00,5.46347e-02,7.25556e-02,7.53004e-01,9.99999e-01
1.047393587e+00,7.43174e-02,9.81431e-02,7.57235e-01,9.99999e-01
1.052630555e+00,9.53749e-04,1.25262e-03,7.61406e-01,9.99999e-01
1.057893707e+00,2.69878e-03,3.52544e-03,7.65516e-01,9.99999e-01
1.063183176e+00,1.17002e-02,1.52036e-02,7.69567e-01,9.99999e-01
1.068499092e+00,4.03976e-02,5.22229e-02,7.73559e-01,9.99999e-01
1.073841587e+00,1.19575e-01,1.53795e-01,7.77492e-01,9.99999e-01
1.079210795e+00,2.38716e-01,3.05510e-01,7.81367e-01,9.99999e-01
1.084606849e+00,4.07393e-01,5.18849e-01,7.85184e-01,9.99999e-01
1.090029883e+00,5.61002e-01,7.11080e-01,7.88944e-01,9.99999e-01
1.095480033e+00,6.69930e-01,8.45181e-01,7.92647e-01,9.99999e-01
1.100957433e+00,7.34279e-01,9.22121e-01,7.96293e-01,9.99999e-01
1.106462220e+00,7.73491e-01,9.67003e-01,7.99884e-01,9.99999e-01
1.111994531e+00,7.93490e-01,9.87639e-01,8.03420e-01,9.99999e-01
1.117554504e+00,8.04450e-01,9.96962e-01,8.06901e-01,9.99999e-01
1.123142276e+00,8.10166e-01,9.99799e-01,8.10328e-01,9.99999e-01
1.128757988e+00,8.13701e-01,9.99999e-01,8.13701e-01,9.99999e-01
1.134401778e+00,8.17021e-01,9.99999e-01,8.17021e-01,9.99999e-01
1.140073787e+00,8.20289e-01,9.99999e-01,8.20289e-01,9.99999e-01
1.145774156e+00,8.23505e-01,9.99999e-01,8.23505e-01,9.99999e-01
1.151503026e+00,8.26670e-01,9.99999e-01,8.26670e-01,9.99999e-01
1.157260541e+00,8.29784e-01,9.99999e-01,8.29784e-01,9.99999e-01
1.163046844e+00,8.32848e-01,9.99999e-01,8.32848e-01,9.99999e-01
1.168862078e+00,8.35862e-01,9.99999e-01,8.35862e-01,9.99999e-01
1.174706389e+00,8.38828e-01,9.99999e-01,8.38828e-01,9.99999e-01
1.180579921e+00,8.41745e-01,9.99999e-01,8.41745e-01,9.99999e-01
1.186482820e+00,8.44608e-01,9.99992e-01,8.44614e-01,9.99999e-01
1.192415234e+00,8.33438e-01,9.83481e-01,8.47436e-01,9.99999e-01
1.198377311e+00,4.72351e-01,5.55568e-01,8.50211e-01,9.99999e-01
1.204369197e+00,1.38542e-13,1.62428e-13,8.52941e-01,9.99999e-01
1.210391043e+00,6.00404e-51,7.01714e-51,8.55625e-01,9.99999e-01
1.216442998e+00,2.87900e-44,3.35445e-44,8.58264e-01,9.99999e-01
1.222525213e+00,1.27078e-43,1.47617e-43,8.60859e-01,9.99999e-01
1.228637839e+00,8.68965e-34,1.00643e-33,8.63411e-01,9.99999e-01
1.234781029e+00,1.25769e-21,1.45244e-21,8.65919e-01,9.99999e-01
1.240954934e+00,1.44603e-14,1.66519e-14,8.68385e-01,9.99999e-01
1.247159708e+00,8.30095e-08,9.53245e-08,8.70809e-01,9.99999e-01
1.253395507e+00,3.98702e-05,4.56603e-05,8.73191e-01,9.99999e-01
1.259662485e+00,2.81914e-03,3.21991e-03,8.75533e-01,9.99999e-01
1.265960797e+00,3.20691e-02,3.65319e-02,8.77835e-01,9.99999e-01
1.272290601e+00,1.90322e-01,2.16251e-01,8.80097e-01,9.99999e-01
1.278652054e+00,1.82209e-01,2.06510e-01,8.82320e-01,9.99999e-01
1.285045314e+00,3.21244e-03,3.63190e-03,8.84505e-01,9.99999e-01
1.291470541e+00,1.26866e-06,1.43084e-06,8.86652e-01,9.99999e-01
1.297927893e+00,1.57744e-03,1.77487e-03,8.88761e-01,9.99999e-01
1.304417533e+00,6.66282e-02,7.47930e-02,8.90834e-01,9.99999e-01
1.310939621e+00,1.60595e-02,1.79864e-02,8.92870e-01,9.99999e-01
1.317494319e+00,6.25543e-18,6.99031e-18,8.94871e-01,9.99999e-01
1.324081790e+00,3.08658e-12,3.44163e-12,8.96836e-01,9.99999e-01
1.330702199e+00,3.03952e-07,3.38187e-07,8.98767e-01,9.99999e-01
1.337355710e+00,5.58150e-07,6.19708e-07,9.00664e-01,9.99999e-01
1.344042489e+00,1.85675e-07,2.05728e-07,9.02527e-01,9.99999e-01
1.350762701e+00,1.76913e-07,1.95623e-07,9.04357e-01,9.99999e-01
1.357516515e+00,5.20945e-05,5.74895e-05,9.06155e-01,9.99999e-01
1.364304097e+00,1.38154e-03,1.52166e-03,9.07920e-01,9.99999e-01
1.371125618e+00,3.14366e-02,3.45588e-02,9.09654e-01,9.99999e-01
1.377981246e+00,5.58971e-02,6.13338e-02,9.11357e-01,9.99999e-01
1.384871152e+00,1.79889e-01,1.97024e-01,9.13030e-01,9.99999e-01
1.391795508e+00,2.03678e-01,2.22679e-01,9.14672e-01,9.99999e-01
1.398754485e+00,3.61721e-01,3.94769e-01,9.16285e-01,9.99999e-01
1.405748258e+00,4.63378e-01,5.04841e-01,9.17869e-01,9.99999e-01
1.412776999e+00,5.96619e-01,6.48904e-01,9.19424e-01,9.99999e-01
1.419840884e+00,5.37345e-01,5.83467e-01,9.20951e-01,9.99999e-01
1.426940089e+00,4.20355e-02,4.55694e-02,9.22450e-01,9.99999e-01
1.434074789e+00,0.00000e+00,0.00000e+00,9.23922e-01,9.99999e-01
1.441245163e+00,0.00000e+00,0.00000e+00,9.25367e-01,9.99999e-01
1.448451389e+00,0.00000e+00,0.00000e+00,9.26786e-01,9.99999e-01
1.455693646e+00,0.00000e+00,0.00000e+00,9.28179e-01,9.99999e-01
1.462972114e+00,6.45780e-200,6.94726e-200,9.29546e-01,9.99999e-01
1.470286975e+00,1.38509e-83,1.48793e-83,9.30889e-01,9.99999e-01
1.477638409e+00,6.38733e-53,6.85183e-53,9.32206e-01,9.99999e-01
1.485026601e+00,6.40752e-30,6.86397e-30,9.33500e-01,9.99999e-01
1.492451734e+00,1.68631e-25,1.80398e-25,9.34770e-01,9.99999e-01
1.499913993e+00,1.08230e-11,1.15628e-11,9.36016e-01,9.99999e-01
1.507413563e+00,1.82111e-10,1.94306e-10,9.37239e-01,9.99999e-01
1.514950631e+00,7.14170e-12,7.61018e-12,9.38440e-01,9.99999e-01
1.522525384e+00,6.38994e-38,6.80057e-38,9.39618e-01,9.99999e-01
1.530138011e+00,4.04944e-89,4.30436e-89,9.40775e-01,9.99999e-01
1.537788701e+00,3.41153e-66,3.62193e-66,9.41910e-01,9.99999e-01
1.545477645e+00,8.54918e-15,9.06570e-15,9.43024e-01,9.99999e-01
1.553205033e+00,1.50231e-10,1.59123e-10,9.44118e-01,9.99999e-01
1.560971058e+00,4.93556e-11,5.22176e-11,9.45190e-01,9.99999e-01
1.568775913e+00,2.58959e-224,2.73670e-224,9.46243e-01,9.99999e-01
1.576619793e+00,0.00000e+00,0.00000e+00,9.47277e-01,9.99999e-01
1.584502892e+00,9.05171e-287,9.54528e-287,9.48291e-01,9.99999e-01
1.592425406e+00,5.43217e-200,5.72237e-200,9.49286e-01,9.99999e-01
1.600387533e+00,4.74303e-322,5.03947e-322,9.50262e-01,9.99999e-01
1.608389471e+00,0.00000e+00,0.00000e+00,9.51220e-01,9.99999e-01
1.616431418e+00,0.00000e+00,0.00000e+00,9.52160e-01,9.99999e-01
1.624513575e+00,6.40696e-254,6.72235e-254,9.53083e-01,9.99999e-01
1.632636143e+00,1.03260e-188,1.08241e-188,9.53988e-01,9.99999e-01
1.640799324e+00,1.63601e-77,1.71332e-77,9.54876e-01,9.99999e-01
1.649003321e+00,1.64351e-77,1.71960e-77,9.55747e-01,9.99999e-01
1.657248337e+00,4.01615e-60,4.19835e-60,9.56602e-01,9.99999e-01
1.665534579e+00,1.61587e-60,1.68770e-60,9.57441e-01,9.99999e-01
1.673862252e+00,6.10021e-39,6.36590e-39,9.58263e-01,9.99999e-01
1.682231563e+00,2.86289e-27,2.98506e-27,9.59071e-01,9.99999e-01
1.690642721e+00,1.30341e-15,1.35791e-15,9.59863e-01,9.99999e-01
1.699095934e+00,4.07161e-10,4.23843e-10,9.60640e-01,9.99999e-01
1.707591414e+00,1.17297e-05,1.22006e-05,9.61402e-01,9.99999e-01
1.716129371e+00,1.58805e-03,1.65052e-03,9.62150e-01,9.99999e-01
1.724710018e+00,2.72121e-02,2.82611e-02,9.62883e-01,9.99999e-01
1.733333568e+00,9.43133e-02,9.78756e-02,9.63603e-01,9.99999e-01
1.742000236e+00,2.42899e-01,2.51889e-01,9.64309e-01,9.99999e-01
1.750710237e+00,4.44713e-03,4.60842e-03,9.65001e-01,9.99999e-01
1.759463788e+00,3.58615e-37,3.71360e-37,9.65681e-01,9.99999e-01
1.768261107e+00,6.12045e-39,6.33358e-39,9.66347e-01,9.99999e-01
1.777102413e+00,1.11320e-37,1.15119e-37,9.67000e-01,9.99999e-01
1.785987925e+00,1.34521e-35,1.39019e-35,9.67642e-01,9.99999e-01
1.794917864e+00,5.60691e-34,5.79064e-34,9.68271e-01,9.99999e-01
1.803892454e+00,8.94920e-33,9.23656e-33,9.68887e-01,9.99999e-01
1.812911916e+00,1.88932e-31,1.94877e-31,9.69492e-01,9.99999e-01
1.821976476e+00,1.46180e-31,1.50688e-31,9.70086e-01,9.99999e-01
1.831086358e+00,1.52949e-25,1.57571e-25,9.70668e-01,9.99999e-01
1.840241790e+00,9.15966e-22,9.43089e-22,9.71239e-01,9.99999e-01
1.849442999e+00,3.26597e-15,3.36074e-15,9.71799e-01,9.99999e-01
1.858690214e+00,3.58245e-14,3.68433e-14,9.72348e-01,9.99999e-01
1.867983665e+00,6.72627e-15,6.91372e-15,9.72887e-01,9.99999e-01
1.877323583e+00,2.81954e-70,2.89654e-70,9.73415e-01,9.99999e-01
