#,Wave/freq,Total,CO2,Rayleigh,CIA
4.000000000e-01,2.21087e-11,9.99999e-01,2.21087e-11,9.99999e-01
4.020000000e-01,3.59128e-11,9.99999e-01,3.59128e-11,9.99999e-01
4.040100000e-01,5.77510e-11,9.99999e-01,5.77510e-11,9.99999e-01
4.060300500e-01,9.20013e-11,9.99999e-01,9.20013e-11,9.99999e-01
4.080602003e-01,1.45223e-10,9.99999e-01,1.45223e-10,9.99999e-01
4.101005013e-01,2.27174e-10,9.99999e-01,2.27174e-10,9.99999e-01
4.121510038e-01,3.52244e-10,9.99999e-01,3.52244e-10,9.99999e-01
4.142117588e-01,5.41461e-10,9.99999e-01,5.41461e-10,9.99999e-01
4.162828176e-01,8.25282e-10,9.99999e-01,8.25282e-10,9.99999e-01
4.183642317e-01,1.24745e-09,9.99999e-01,1.24745e-09,9.99999e-01
4.204560528e-01,1.87024e-09,9.99999e-01,1.87024e-09,9.99999e-01
4.225583331e-01,2.78163e-09,9.99999e-01,2.78163e-09,9.99999e-01
4.246711247e-01,4.10483e-09,9.99999e-01,4.10483e-09,9.99999e-01
4.267944804e-01,6.01110e-09,9.99999e-01,6.01110e-09,9.99999e-01
4.289284528e-01,8.73654e-09,9.99999e-01,8.73654e-09,9.99999e-01
4.310730950e-01,1.26043e-08,9.99999e-01,1.26043e-08,9.99999e-01
4.332284605e-01,1.80531e-08,9.99999e-01,1.80531e-08,9.99999e-01
4.353946028e-01,2.56747e-08,9.99999e-01,2.56747e-08,9.99999e-01
4.375715758e-01,3.62607e-08,9.99999e-01,3.62607e-08,9.99999e-01
4.397594337e-01,5.08634e-08,9.99999e-01,5.08634e-08,9.99999e-01
4.419582309e-01,7.08716e-08,9.99999e-01,7.08716e-08,9.99999e-01
4.441680220e-01,9.81054e-08,9.99999e-01,9.81054e-08,9.99999e-01
4.463888621e-01,1.34935e-07,9.99999e-01,1.34935e-07,9.99999e-01
4.486208064e-01,1.84426e-07,9.99999e-01,1.84426e-07,9.99999e-01
4.508639105e-01,2.50518e-07,9.99999e-01,2.50518e-07,9.99999e-01
4.531182300e-01,3.38242e-07,9.99999e-01,3.38242e-07,9.99999e-01
4.553838212e-01,4.53985e-07,9.99999e-01,4.53985e-07,9.99999e-01
4.576607403e-01,6.05801e-07,9.99999e-01,6.05801e-07,9.99999e-01
4.599490440e-01,8.03794e-07,9.99999e-01,8.03794e-07,9.99999e-01
4.622487892e-01,1.06055e-06,9.99999e-01,1.06055e-06,9.99999e-01
4.645600332e-01,1.39169e-06,9.99999e-01,1.39169e-06,9.99999e-01
4.668828333e-01,1.81645e-06,9.99999e-01,1.81645e-06,9.99999e-01
4.692172475e-01,2.35840e-06,9.99999e-01,2.35840e-06,9.99999e-01
4.715633337e-01,3.04630e-06,9.99999e-01,3.04630e-06,9.99999e-01
4.739211504e-01,3.91500e-06,9.99999e-01,3.91500e-06,9.99999e-01
4.762907561e-01,5.00655e-06,9.99999e-01,5.00655e-06,9.99999e-01
4.786722099e-01,6.37141e-06,9.99999e-01,6.37141e-06,9.99999e-01
4.810655710e-01,8.06984e-06,9.99999e-01,8.06984e-06,9.99999e-01
4.834708988e-01,1.01734e-05,9.99999e-01,1.01734e-05,9.99999e-01
4.858882533e-01,1.27668e-05,9.99999e-01,1.27668e-05,9.99999e-01
4.883176946e-01,1.59496e-05,9.99999e-01,1.59496e-05,9.99999e-01
4.907592831e-01,1.98384e-05,9.99999e-01,1.98384e-05,9.99999e-01
4.932130795e-01,2.45693e-05,9.99999e-01,2.45693e-05,9.99999e-01
4.956791449e-01,3.03001e-05,9.99999e-01,3.03001e-05,9.99999e-01
4.981575406e-01,3.72131e-05,9.99999e-01,3.72131e-05,9.99999e-01
5.006483283e-01,4.55183e-05,9.99999e-01,4.55183e-05,9.99999e-01
5.031515699e-01,5.54559e-05,9.99999e-01,5.54559e-05,9.99999e-01
5.056673278e-01,6.73000e-05,9.99999e-01,6.73000e-05,9.99999e-01
5.081956644e-01,8.13621e-05,9.99999e-01,8.13621e-05,9.99999e-01
5.107366428e-01,9.79945e-05,9.99999e-01,9.79945e-05,9.99999e-01
5.132903260e-01,1.17594e-04,9.99999e-01,1.17594e-04,9.99999e-01
5.158567776e-01,1.40606e-04,9.99999e-01,1.40606e-04,9.99999e-01
5.184360615e-01,1.67529e-04,9.99999e-01,1.67529e-04,9.99999e-01
5.210282418e-01,1.98918e-04,9.99999e-01,1.98918e-04,9.99999e-01
5.236333830e-01,2.35388e-04,9.99999e-01,2.35388e-04,9.99999e-01
5.262515499e-01,2.77620e-04,9.99999e-01,2.77620e-04,9.99999e-01
5.288828077e-01,3.26364e-04,9.99999e-01,3.26364e-04,9.99999e-01
5.315272217e-01,3.82442e-04,9.99999e-01,3.82442e-04,9.99999e-01
5.341848578e-01,4.46753e-04,9.99999e-01,4.46753e-04,9.99999e-01
5.368557821e-01,5.20280e-04,9.99999e-01,5.20280e-04,9.99999e-01
5.395400610e-01,6.04087e-04,9.99999e-01,6.04087e-04,9.99999e-01
5.422377613e-01,6.99328e-04,9.99999e-01,6.99328e-04,9.99999e-01
5.449489501e-01,8.07247e-04,9.99999e-01,8.07247e-04,9.99999e-01
5.476736949e-01,9.29182e-04,9.99999e-01,9.29182e-04,9.99999e-01
5.504120634e-01,1.06657e-03,9.99999e-01,1.06657e-03,9.99999e-01
5.531641237e-01,1.22094e-03,9.99999e-01,1.22094e-03,9.99999e-01
5.559299443e-01,1.39392e-03,9.99999e-01,1.39392e-03,9.99999e-01
5.587095940e-01,1.58725e-03,9.99999e-01,1.58725e-03,9.99999e-01
5.615031420e-01,1.80277e-03,9.99999e-01,1.80277e-03,9.99999e-01
5.643106577e-01,2.04241e-03,9.99999e-01,2.04241e-03,9.99999e-01
5.671322110e-01,2.30820e-03,9.99999e-01,2.30820e-03,9.99999e-01
5.699678720e-01,2.60229e-03,9.99999e-01,2.60229e-03,9.99999e-01
5.728177114e-01,2.92690e-03,9.99999e-01,2.92690e-03,9.99999e-01
5.756818000e-01,3.28438e-03,9.99999e-01,3.28438e-03,9.99999e-01
5.785602090e-01,3.67713e-03,9.99999e-01,3.67713e-03,9.99999e-01
5.814530100e-01,4.10768e-03,9.99999e-01,4.10768e-03,9.99999e-01
5.843602750e-01,4.57861e-03,9.99999e-01,4.57861e-03,9.99999e-01
5.872820764e-01,5.09261e-03,9.99999e-01,5.09261e-03,9.99999e-01
5.902184868e-01,5.65241e-03,9.99999e-01,5.65241e-03,9.99999e-01
5.931695792e-01,6.26084e-03,9.99999e-01,6.26084e-03,9.99999e-01
5.961354271e-01,6.92078e-03,9.99999e-01,6.92078e-03,9.99999e-01
5.991161043e-01,7.63514e-03,9.99999e-01,7.63514e-03,9.99999e-01
6.021116848e-01,8.40692e-03,9.99999e-01,8.40692e-03,9.99999e-01
6.051222432e-01,9.23911e-03,9.99999e-01,9.23911e-03,9.99999e-01
6.081478544e-01,1.01348e-02,9.99999e-01,1.01348e-02,9.99999e-01
6.111885937e-01,1.10970e-02,9.99999e-01,1.10970e-02,9.99999e-01
6.142445367e-01,1.21288e-02,9.99999e-01,1.21288e-02,9.99999e-01
6.173157594e-01,1.32332e-02,9.99999e-01,1.32332e-02,9.99999e-01
6.204023382e-01,1.44134e-02,9.99999e-01,1.44134e-02,9.99999e-01
6.235043498e-01,1.56724e-02,9.99999e-01,1.56724e-02,9.99999e-01
6.266218716e-01,1.70132e-02,9.99999e-01,1.70132e-02,9.99999e-01
6.297549810e-01,1.84388e-02,9.99999e-01,1.84388e-02,9.99999e-01
6.329037559e-01,1.99521e-02,9.99999e-01,1.99521e-02,9.99999e-01
6.360682746e-01,2.15560e-02,9.99999e-01,2.15560e-02,9.99999e-01
6.392486160e-01,2.32533e-02,9.99999e-01,2.32533e-02,9.99999e-01
6.424448591e-01,2.50467e-02,9.99999e-01,2.50467e-02,9.99999e-01
6.456570834e-01,2.69389e-02,9.99999e-01,2.69389e-02,9.99999e-01
6.488853688e-01,2.89323e-02,9.99999e-01,2.89323e-02,9.99999e-01
6.521297956e-01,3.10295e-02,9.99999e-01,3.10295e-02,9.99999e-01
6.553904446e-01,3.32327e-02,9.99999e-01,3.32327e-02,9.99999e-01
6.586673968e-01,3.55442e-02,9.99999e-01,3.55442e-02,9.99999e-01
6.619607338e-01,3.79660e-02,9.99999e-01,3.79660e-02,9.99999e-01
6.652705375e-01,4.05000e-02,9.99999e-01,4.05000e-02,9.99999e-01
6.685968902e-01,4.31481e-02,9.99999e-01,4.31481e-02,9.99999e-01
6.719398746e-01,4.59118e-02,9.99999e-01,4.59118e-02,9.99999e-01
6.752995740e-01,4.87927e-02,9.99999e-01,4.87927e-02,9.99999e-01
6.786760719e-01,5.17920e-02,9.99999e-01,5.17920e-02,9.99999e-01
6.820694522e-01,5.49110e-02,9.99999e-01,5.49110e-02,9.99999e-01
6.854797995e-01,5.81506e-02,9.99999e-01,5.81506e-02,9.99999e-01
6.889071985e-01,6.15116e-02,9.99999e-01,6.15116e-02,9.99999e-01
6.923517345e-01,6.49947e-02,9.99999e-01,6.49947e-02,9.99999e-01
6.958134932e-01,6.86004e-02,9.99999e-01,6.86004e-02,9.99999e-01
6.992925606e-01,7.23290e-02,9.99999e-01,7.23290e-02,9.99999e-01
7.027890234e-01,7.61805e-02,9.99999e-01,7.61805e-02,9.99999e-01
7.063029686e-01,8.01549e-02,9.99999e-01,8.01549e-02,9.99999e-01
7.098344834e-01,8.42520e-02,9.99999e-01,8.42520e-02,9.99999e-01
7.133836558e-01,8.84713e-02,9.99999e-01,8.84713e-02,9.99999e-01
7.169505741e-01,9.28124e-02,9.99999e-01,9.28124e-02,9.99999e-01
7.205353270e-01,9.72743e-02,9.99999e-01,9.72743e-02,9.99999e-01
7.241380036e-01,1.01856e-01,9.99999e-01,1.01856e-01,9.99999e-01
7.277586936e-01,1.06557e-01,9.99999e-01,1.06557e-01,9.99999e-01
7.313974871e-01,1.11376e-01,9.99999e-01,1.11376e-01,9.99999e-01
7.350544745e-01,1.16310e-01,9.99999e-01,1.16310e-01,9.99999e-01
7.387297469e-01,1.21360e-01,9.99999e-01,1.21360e-01,9.99999e-01
7.424233956e-01,1.26522e-01,9.99999e-01,1.26522e-01,9.99999e-01
7.461355126e-01,1.31796e-01,9.99999e-01,1.31796e-01,9.99999e-01
7.498661902e-01,1.37178e-01,9.99999e-01,1.37178e-01,9.99999e-01
7.536155211e-01,1.42668e-01,9.99999e-01,1.42668e-01,9.99999e-01
7.573835987e-01,1.48262e-01,9.99999e-01,1.48262e-01,9.99999e-01
7.611705167e-01,1.53959e-01,9.99999e-01,1.53959e-01,9.99999e-01
7.649763693e-01,1.59755e-01,9.99999e-01,1.59755e-01,9.99999e-01
7.688012511e-01,1.65649e-01,9.99999e-01,1.65649e-01,9.99999e-01
7.726452574e-01,1.71637e-01,9.99999e-01,1.71637e-01,9.99999e-01
7.765084837e-01,1.77717e-01,9.99999e-01,1.77717e-01,9.99999e-01
7.803910261e-01,1.70878e-01,9.29260e-01,1.83886e-01,9.99999e-01
7.842929812e-01,1.34813e-01,7.09012e-01,1.90141e-01,9.99999e-01
7.882144461e-01,1.36322e-01,6.93823e-01,1.96479e-01,9.99999e-01
7.921555184e-01,1.62661e-01,8.01690e-01,2.02897e-01,9.99999e-01
7.961162960e-01,1.80451e-01,8.61788e-01,2.09391e-01,9.99999e-01
8.000968774e-01,1.99204e-01,9.22416e-01,2.15959e-01,9.99999e-01
8.040973618e-01,2.13478e-01,9.59035e-01,2.22597e-01,9.99999e-01
8.081178486e-01,2.24933e-01,9.80946e-01,2.29302e-01,9.99999e-01
8.121584379e-01,2.34676e-01,9.94095e-01,2.36070e-01,9.99999e-01
8.162192301e-01,2.42581e-01,9.98693e-01,2.42898e-01,9.99999e-01
8.203003262e-01,2.49779e-01,9.99980e-01,2.49784e-01,9.99999e-01
8.244018279e-01,2.56722e-01,9.99999e-01,2.56722e-01,9.99999e-01
8.285238370e-01,2.63711e-01,9.99999e-01,2.63711e-01,9.99999e-01
8.326664562e-01,2.70746e-01,9.99999e-01,2.70746e-01,9.99999e-01
8.368297885e-01,2.77824e-01,9.99999e-01,2.77824e-01,9.99999e-01
8.410139374e-01,2.84943e-01,9.99999e-01,2.84943e-01,9.99999e-01
8.452190071e-01,2.92097e-01,9.99999e-01,2.92097e-01,9.99999e-01
8.494451021e-01,2.99285e-01,9.99999e-01,2.99285e-01,9.99999e-01
8.536923276e-01,3.06502e-01,9.99999e-01,3.06502e-01,9.99999e-01
8.579607893e-01,3.13745e-01,9.99999e-01,3.13745e-01,9.99999e-01
8.622505932e-01,3.21012e-01,9.99999e-01,3.21012e-01,9.99999e-01
8.665618462e-01,2.89683e-01,8.82377e-01,3.28298e-01,9.99999e-01
8.708946554e-01,1.42821e-01,4.25567e-01,3.35601e-01,9.99999e-01
8.752491287e-01,1.69647e-01,4.94716e-01,3.42917e-01,9.99999e-01
8.796253743e-01,2.36272e-01,6.74591e-01,3.50244e-01,9.99999e-01
8.840235012e-01,2.90812e-01,8.13283e-01,3.57578e-01,9.99999e-01
8.884436187e-01,3.36282e-01,9.21532e-01,3.64916e-01,9.99999e-01
8.928858368e-01,3.60108e-01,9.67370e-01,3.72255e-01,9.99999e-01
8.973502660e-01,3.76552e-01,9.91991e-01,3.79592e-01,9.99999e-01
9.018370173e-01,3.86583e-01,9.99115e-01,3.86925e-01,9.99999e-01
9.063462024e-01,3.85399e-01,9.77548e-01,3.94250e-01,9.99999e-01
9.108779334e-01,3.81102e-01,9.49039e-01,4.01566e-01,9.99999e-01
9.154323231e-01,4.03893e-01,9.87832e-01,4.08868e-01,9.99999e-01
9.200094847e-01,3.53081e-01,8.48435e-01,4.16155e-01,9.99999e-01
9.246095321e-01,3.28095e-01,7.74860e-01,4.23425e-01,9.99999e-01
9.292325798e-01,3.53274e-01,8.20281e-01,4.30674e-01,9.99999e-01
9.338787427e-01,3.61231e-01,8.24915e-01,4.37900e-01,9.99999e-01
9.385481364e-01,3.86090e-01,8.67420e-01,4.45101e-01,9.99999e-01
9.432408771e-01,4.14462e-01,9.16394e-01,4.52275e-01,9.99999e-01
9.479570815e-01,4.39269e-01,9.56139e-01,4.59419e-01,9.99999e-01
9.526968669e-01,4.56565e-01,9.78635e-01,4.66532e-01,9.99999e-01
9.574603512e-01,4.69256e-01,9.90805e-01,4.73611e-01,9.99999e-01
9.622476530e-01,4.79272e-01,9.97124e-01,4.80654e-01,9.99999e-01
9.670588912e-01,4.87240e-01,9.99138e-01,4.87660e-01,9.99999e-01
9.718941857e-01,4.94597e-01,9.99939e-01,4.94627e-01,9.99999e-01
9.767536566e-01,5.01553e-01,9.99999e-01,5.01553e-01,9.99999e-01
9.816374249e-01,5.08436e-01,9.99999e-01,5.08436e-01,9.99999e-01
9.865456120e-01,5.15274e-01,9.99999e-01,5.15274e-01,9.99999e-01
9.914783401e-01,5.22067e-01,9.99999e-01,5.22067e-01,9.99999e-01
9.964357318e-01,5.28813e-01,9.99999e-01,5.28813e-01,9.99999e-01
1.001417910e+00,5.35510e-01,9.99999e-01,5.35510e-01,9.99999e-01
1.006425000e+00,5.42157e-01,9.99999e-01,5.42157e-01,9.99999e-01
1.011457125e+00,5.48753e-01,9.99999e-01,5.48753e-01,9.99999e-01
1.016514411e+00,5.55296e-01,9.99999e-01,5.55296e-01,9.99999e-01
1.021596983e+00,5.61716e-01,9.99874e-01,5.61786e-01,9.99999e-01
1.026704968e+00,5.63167e-01,9.91104e-01,5.68221e-01,9.99999e-01
1.031838492e+00,5.28437e-01,9.19659e-01,5.74601e-01,9.99999e-01
1.036997685e+00,3.94395e-02,6.78908e-02,5.80924e-01,9.99999e-01
1.042182673e+00,6.38340e-03,1.08711e-02,5.87190e-01,9.99999e-01
1.047393587e+00,1.34493e-02,2.26648e-02,5.93398e-01,9.99999e-01
1.052630555e+00,9.64079e-06,1.60801e-05,5.99547e-01,9.99999e-01
1.057893707e+00,3.53627e-05,5.83894e-05,6.05636e-01,9.99999e-01
1.063183176e+00,4.30654e-04,7.04069e-04,6.11665e-01,9.99999e-01
1.068499092e+00,2.92830e-03,4.74116e-03,6.17633e-01,9.99999e-01
1.073841587e+00,2.03627e-02,3.26567e-02,6.23539e-01,9.99999e-01
1.079210795e+00,7.27410e-02,1.15575e-01,6.29384e-01,9.99999e-01
1.084606849e+00,1.88898e-01,2.97399e-01,6.35167e-01,9.99999e-01
1.090029883e+00,3.40043e-01,5.30582e-01,6.40886e-01,9.99999e-01
1.095480033e+00,4.72790e-01,7.31257e-01,6.46543e-01,9.99999e-01
1.100957433e+00,5.60546e-01,8.59552e-01,6.52137e-01,9.99999e-01
1.106462220e+00,6.17744e-01,9.39294e-01,6.57667e-01,9.99999e-01
1.111994531e+00,6.47906e-01,9.77036e-01,6.63133e-01,9.99999e-01
1.117554504e+00,6.64762e-01,9.94354e-01,6.68536e-01,9.99999e-01
1.123142276e+00,6.73625e-01,9.99629e-01,6.73874e-01,9.99999e-01
1.128757988e+00,6.79149e-01,9.99999e-01,6.79149e-01,9.99999e-01
1.134401778e+00,6.84359e-01,9.99999e-01,6.84359e-01,9.99999e-01
1.140073787e+00,6.89505e-01,9.99999e-01,6.89505e-01,9.99999e-01
1.145774156e+00,6.94587e-01,9.99999e-01,6.94587e-01,9.99999e-01
1.151503026e+00,6.99605e-01,9.99999e-01,6.99605e-01,9.99999e-01
1.157260541e+00,7.04559e-01,9.99999e-01,7.04559e-01,9.99999e-01
1.163046844e+00,7.09450e-01,9.99999e-01,7.09450e-01,9.99999e-01
1.168862078e+00,7.14276e-01,9.99999e-01,7.14276e-01,9.99999e-01
1.174706389e+00,7.19040e-01,9.99999e-01,7.19040e-01,9.99999e-01
1.180579921e+00,7.23739e-01,9.99999e-01,7.23739e-01,9.99999e-01
1.186482820e+00,7.28364e-01,9.99981e-01,7.28376e-01,9.99999e-01
1.192415234e+00,7.10402e-01,9.69235e-01,7.32950e-01,9.99999e-01
1.198377311e+00,3.91955e-01,5.31491e-01,7.37462e-01,9.99999e-01
1.204369197e+00,1.59568e-23,2.15076e-23,7.41912e-01,9.99999e-01
1.210391043e+00,1.19428e-93,1.60026e-93,7.46299e-01,9.99999e-01
1.216442998e+00,4.13573e-81,5.50970e-81,7.50626e-01,9.99999e-01
1.222525213e+00,6.70443e-80,8.88132e-80,7.54891e-01,9.99999e-01
1.228637839e+00,1.00105e-61,1.31874e-61,7.59095e-01,9.99999e-01
1.234781029e+00,1.28466e-38,1.68317e-38,7.63239e-01,9.99999e-01
1.240954934e+00,1.01019e-25,1.31652e-25,7.67323e-01,9.99999e-01
1.247159708e+00,1.06572e-12,1.38163e-12,7.71348e-01,9.99999e-01
1.253395507e+00,1.39930e-08,1.80482e-08,7.75313e-01,9.99999e-01
1.259662485e+00,3.03863e-05,3.89958e-05,7.79221e-01,9.99999e-01
1.265960797e+00,2.68867e-03,3.43350e-03,7.83070e-01,9.99999e-01
1.272290601e+00,5.91223e-02,7.51368e-02,7.86861e-01,9.99999e-01
1.278652054e+00,5.17893e-02,6.55066e-02,7.90595e-01,9.99999e-01
1.285045314e+00,1.43749e-04,1.80982e-04,7.94273e-01,9.99999e-01
1.291470541e+00,2.43641e-11,3.05355e-11,7.97895e-01,9.99999e-01
1.297927893e+00,1.73549e-04,2.16541e-04,8.01461e-01,9.99999e-01
1.304417533e+00,6.92142e-03,8.59832e-03,8.04973e-01,9.99999e-01
1.310939621e+00,1.66153e-03,2.05525e-03,8.08430e-01,9.99999e-01
1.317494319e+00,3.82987e-32,4.71755e-32,8.11833e-01,9.99999e-01
1.324081790e+00,2.85401e-21,3.50107e-21,8.15182e-01,9.99999e-01
1.330702199e+00,1.20518e-12,1.47246e-12,8.18479e-01,9.99999e-01
1.337355710e+00,1.02033e-11,1.24169e-11,8.21724e-01,9.99999e-01
1.344042489e+00,4.66596e-12,5.65628e-12,8.24917e-01,9.99999e-01
1.350762701e+00,6.36361e-13,7.68496e-13,8.28059e-01,9.99999e-01
1.357516515e+00,4.06472e-08,4.89047e-08,8.31151e-01,9.99999e-01
1.364304097e+00,6.30770e-06,7.56144e-06,8.34193e-01,9.99999e-01
1.371125618e+00,2.02435e-03,2.41804e-03,8.37185e-01,9.99999e-01
1.377981246e+00,4.82178e-03,5.73932e-03,8.40129e-01,9.99999e-01
1.384871152e+00,4.16672e-02,4.94258e-02,8.43025e-01,9.99999e-01
1.391795508e+00,5.27923e-02,6.24116e-02,8.45873e-01,9.99999e-01
1.398754485e+00,1.49374e-01,1.76009e-01,8.48674e-01,9.99999e-01
1.405748258e+00,2.39456e-01,2.81239e-01,8.51429e-01,9.99999e-01
1.412776999e+00,3.81532e-01,4.46685e-01,8.54139e-01,9.99999e-01
1.419840884e+00,3.48256e-01,4.06460e-01,8.56803e-01,9.99999e-01
1.426940089e+00,1.57637e-02,1.83422e-02,8.59422e-01,9.99999e-01
1.434074789e+00,0.00000e+00,0.00000e+00,8.61998e-01,9.99999e-01
1.441245163e+00,0.00000e+00,0.00000e+00,8.64530e-01,9.99999e-01
1.448451389e+00,0.00000e+00,0.00000e+00,8.67019e-01,9.99999e-01
1.455693646e+00,0.00000e+00,0.00000e+00,8.69467e-01,9.99999e-01
1.462972114e+00,0.00000e+00,0.00000e+00,8.71872e-01,9.99999e-01
1.470286975e+00,6.75903e-155,7.73134e-155,8.74237e-01,9.99999e-01
1.477638409e+00,2.38182e-97,2.71723e-97,8.76561e-01,9.99999e-01
1.485026601e+00,3.26856e-54,3.71915e-54,8.78845e-01,9.99999e-01
1.492451734e+00,3.48870e-46,3.95953e-46,8.81090e-01,9.99999e-01
1.499913993e+00,4.62244e-20,5.23317e-20,8.83295e-01,9.99999e-01
1.507413563e+00,8.02214e-19,9.05982e-19,8.85463e-01,9.99999e-01
1.514950631e+00,2.60722e-20,2.93740e-20,8.87593e-01,9.99999e-01
1.522525384e+00,3.37398e-69,3.79232e-69,8.89686e-01,9.99999e-01
1.530138011e+00,2.62970e-165,2.94894e-165,8.91743e-01,9.99999e-01
1.537788701e+00,2.84486e-122,3.18301e-122,8.93763e-01,9.99999e-01
1.545477645e+00,8.54774e-26,9.54256e-26,8.95748e-01,9.99999e-01
1.553205033e+00,8.58688e-19,9.56543e-19,8.97698e-01,9.99999e-01
1.560971058e+00,4.07337e-19,4.52791e-19,8.99614e-01,9.99999e-01
1.568775913e+00,0.00000e+00,0.00000e+00,9.01496e-01,9.99999e-01
1.576619793e+00,0.00000e+00,0.00000e+00,9.03344e-01,9.99999e-01
1.584502892e+00,0.00000e+00,0.00000e+00,9.05160e-01,9.99999e-01
1.592425406e+00,0.00000e+00,0.00000e+00,9.06943e-01,9.99999e-01
1.600387533e+00,0.00000e+00,0.00000e+00,9.08695e-01,9.99999e-01
1.608389471e+00,0.00000e+00,0.00000e+00,9.10415e-01,9.99999e-01
1.616431418e+00,0.00000e+00,0.00000e+00,9.12104e-01,9.99999e-01
1.624513575e+00,0.00000e+00,0.00000e+00,9.13763e-01,9.99999e-01
1.632636143e+00,0.00000e+00,0.00000e+00,9.15392e-01,9.99999e-01
1.640799324e+00,1.67363e-143,1.82513e-143,9.16992e-01,9.99999e-01
1.649003321e+00,1.67575e-143,1.82431e-143,9.18563e-01,9.99999e-01
1.657248337e+00,6.92481e-111,7.52610e-111,9.20105e-01,9.99999e-01
1.665534579e+00,1.25574e-111,1.36253e-111,9.21620e-01,9.99999e-01
1.673862252e+00,3.69604e-71,4.00391e-71,9.23107e-01,9.99999e-01
1.682231563e+00,2.94009e-49,3.17996e-49,9.24567e-01,9.99999e-01
1.690642721e+00,2.40378e-27,2.59587e-27,9.26000e-01,9.99999e-01
1.699095934e+00,1.80050e-17,1.94143e-17,9.27408e-01,9.99999e-01
1.707591414e+00,4.49632e-09,4.84105e-09,9.28789e-01,9.99999e-01
1.716129371e+00,1.32810e-05,1.42784e-05,9.30146e-01,9.99999e-01
1.724710018e+00,1.52452e-03,1.63667e-03,9.31477e-01,9.99999e-01
1.733333568e+00,1.29856e-02,1.39213e-02,9.32784e-01,9.99999e-01
1.742000236e+00,7.71592e-02,8.26056e-02,9.34067e-01,9.99999e-01
1.750710237e+00,3.59806e-04,3.84685e-04,9.35326e-01,9.99999e-01
1.759463788e+00,6.03996e-68,6.44907e-68,9.36562e-01,9.99999e-01
1.768261107e+00,4.14211e-71,4.41695e-71,9.37775e-01,9.99999e-01
1.777102413e+00,2.92766e-69,3.11796e-69,9.38966e-01,9.99999e-01
1.785987925e+00,7.08047e-65,7.53133e-65,9.40135e-01,9.99999e-01
1.794917864e+00,5.95064e-62,6.32184e-62,9.41282e-01,9.99999e-01
1.803892454e+00,1.54488e-59,1.63929e-59,9.42408e-01,9.99999e-01
1.812911916e+00,3.27977e-57,3.47613e-57,9.43512e-01,9.99999e-01
1.821976476e+00,2.86225e-57,3.03012e-57,9.44597e-01,9.99999e-01
1.831086358e+00,5.70389e-46,6.03164e-46,9.45661e-01,9.99999e-01
1.840241790e+00,3.72914e-39,3.93907e-39,9.46705e-01,9.99999e-01
1.849442999e+00,3.25039e-27,3.42965e-27,9.47730e-01,9.99999e-01
1.858690214e+00,1.34869e-25,1.42156e-25,9.48735e-01,9.99999e-01
1.867983665e+00,3.35242e-26,3.52990e-26,9.49722e-01,9.99999e-01
1.877323583e+00,6.13716e-130,6.45548e-130,9.50690e-01,9.99999e-01
