#,Wave/freq,Total,CO2,Rayleigh,CIA
4.000000000e-01,3.39827e-10,9.99999e-01,3.39827e-10,9.99999e-01
4.020000000e-01,5.22978e-10,9.99999e-01,5.22978e-10,9.99999e-01
4.040100000e-01,7.97658e-10,9.99999e-01,7.97658e-10,9.99999e-01
4.060300500e-01,1.20650e-09,9.99999e-01,1.20650e-09,9.99999e-01
4.080602003e-01,1.81005e-09,9.99999e-01,1.81005e-09,9.99999e-01
4.101005013e-01,2.69384e-09,9.99999e-01,2.69384e-09,9.99999e-01
4.121510038e-01,3.97781e-09,9.99999e-01,3.97781e-09,9.99999e-01
4.142117588e-01,5.82870e-09,9.99999e-01,5.82870e-09,9.99999e-01
4.162828176e-01,8.47661e-09,9.99999e-01,8.47661e-09,9.99999e-01
4.183642317e-01,1.22366e-08,9.99999e-01,1.22366e-08,9.99999e-01
4.204560528e-01,1.75367e-08,9.99999e-01,1.75367e-08,9.99999e-01
4.225583331e-01,2.49545e-08,9.99999e-01,2.49545e-08,9.99999e-01
4.246711247e-01,3.52634e-08,9.99999e-01,3.52634e-08,9.99999e-01
4.267944804e-01,4.94918e-08,9.99999e-01,4.94918e-08,9.99999e-01
4.289284528e-01,6.89977e-08,9.99999e-01,6.89977e-08,9.99999e-01
4.310730950e-01,9.55620e-08,9.99999e-01,9.55620e-08,9.99999e-01
4.332284605e-01,1.31505e-07,9.99999e-01,1.31505e-07,9.99999e-01
4.353946028e-01,1.79829e-07,9.99999e-01,1.79829e-07,9.99999e-01
4.375715758e-01,2.44395e-07,9.99999e-01,2.44395e-07,9.99999e-01
4.397594337e-01,3.30137e-07,9.99999e-01,3.30137e-07,9.99999e-01
4.419582309e-01,4.43319e-07,9.99999e-01,4.43319e-07,9.99999e-01
4.441680220e-01,5.91847e-07,9.99999e-01,5.91847e-07,9.99999e-01
4.463888621e-01,7.85640e-07,9.99999e-01,7.85640e-07,9.99999e-01
4.486208064e-01,1.03707e-06,9.99999e-01,1.03707e-06,9.99999e-01
4.508639105e-01,1.36148e-06,9.99999e-01,1.36148e-06,9.99999e-01
4.531182300e-01,1.77778e-06,9.99999e-01,1.77778e-06,9.99999e-01
4.553838212e-01,2.30918e-06,9.99999e-01,2.30918e-06,9.99999e-01
4.576607403e-01,2.98396e-06,9.99999e-01,2.98396e-06,9.99999e-01
4.599490440e-01,3.83645e-06,9.99999e-01,3.83645e-06,9.99999e-01
4.622487892e-01,4.90807e-06,9.99999e-01,4.90807e-06,9.99999e-01
4.645600332e-01,6.24854e-06,9.99999e-01,6.24854e-06,9.99999e-01
4.668828333e-01,7.91726e-06,9.99999e-01,7.91726e-06,9.99999e-01
4.692172475e-01,9.98483e-06,9.99999e-01,9.98483e-06,9.99999e-01
4.715633337e-01,1.25348e-05,9.99999e-01,1.25348e-05,9.99999e-01
4.739211504e-01,1.56654e-05,9.99999e-01,1.56654e-05,9.99999e-01
4.762907561e-01,1.94918e-05,9.99999e-01,1.94918e-05,9.99999e-01
4.786722099e-01,2.41484e-05,9.99999e-01,2.41484e-05,9.99999e-01
4.810655710e-01,2.97912e-05,9.99999e-01,2.97912e-05,9.99999e-01
4.834708988e-01,3.66005e-05,9.99999e-01,3.66005e-05,9.99999e-01
4.858882533e-01,4.47836e-05,9.99999e-01,4.47836e-05,9.99999e-01
4.883176946e-01,5.45783e-05,9.99999e-01,5.45783e-05,9.99999e-01
4.907592831e-01,6.62558e-05,9.99999e-01,6.62558e-05,9.99999e-01
4.932130795e-01,8.01245e-05,9.99999e-01,8.01245e-05,9.99999e-01
4.956791449e-01,9.65331e-05,9.99999e-01,9.65331e-05,9.99999e-01
4.981575406e-01,1.15875e-04,9.99999e-01,1.15875e-04,9.99999e-01
5.006483283e-01,1.38591e-04,9.99999e-01,1.38591e-04,9.99999e-01
5.031515699e-01,1.65175e-04,9.99999e-01,1.65175e-04,9.99999e-01
5.056673278e-01,1.96178e-04,9.99999e-01,1.96178e-04,9.99999e-01
5.081956644e-01,2.32209e-04,9.99999e-01,2.32209e-04,9.99999e-01
5.107366428e-01,2.73944e-04,9.99999e-01,2.73944e-04,9.99999e-01
5.132903260e-01,3.22127e-04,9.99999e-01,3.22127e-04,9.99999e-01
5.158567776e-01,3.77574e-04,9.99999e-01,3.77574e-04,9.99999e-01
5.184360615e-01,4.41179e-04,9.99999e-01,4.41179e-04,9.99999e-01
5.210282418e-01,5.13916e-04,9.99999e-01,5.13916e-04,9.99999e-01
5.236333830e-01,5.96843e-04,9.99999e-01,5.96843e-04,9.99999e-01
5.262515499e-01,6.91106e-04,9.99999e-01,6.91106e-04,9.99999e-01
5.288828077e-01,7.97943e-04,9.99999e-01,7.97943e-04,9.99999e-01
5.315272217e-01,9.18682e-04,9.99999e-01,9.18682e-04,9.99999e-01
5.341848578e-01,1.05475e-03,9.99999e-01,1.05475e-03,9.99999e-01
5.368557821e-01,1.20768e-03,9.99999e-01,1.20768e-03,9.99999e-01
5.395400610e-01,1.37908e-03,9.99999e-01,1.37908e-03,9.99999e-01
5.422377613e-01,1.57069e-03,9.99999e-01,1.57069e-03,9.99999e-01
5.449489501e-01,1.78432e-03,9.99999e-01,1.78432e-03,9.99999e-01
5.476736949e-01,2.02192e-03,9.99999e-01,2.02192e-03,9.99999e-01
5.504120634e-01,2.28550e-03,9.99999e-01,2.28550e-03,9.99999e-01
5.531641237e-01,2.57720e-03,9.99999e-01,2.57720e-03,9.99999e-01
5.559299443e-01,2.89924e-03,9.99999e-01,2.89924e-03,9.99999e-01
5.587095940e-01,3.25395e-03,9.99999e-01,3.25395e-03,9.99999e-01
5.615031420e-01,3.64373e-03,9.99999e-01,3.64373e-03,9.99999e-01
5.643106577e-01,4.07110e-03,9.99999e-01,4.07110e-03,9.99999e-01
5.671322110e-01,4.53865e-03,9.99999e-01,4.53865e-03,9.99999e-01
5.699678720e-01,5.04903e-03,9.99999e-01,5.04903e-03,9.99999e-01
5.728177114e-01,5.60499e-03,9.99999e-01,5.60499e-03,9.99999e-01
5.756818000e-01,6.20935e-03,9.99999e-01,6.20935e-03,9.99999e-01
5.785602090e-01,6.86498e-03,9.99999e-01,6.86498e-03,9.99999e-01
5.814530100e-01,7.57480e-03,9.99999e-01,7.57480e-03,9.99999e-01
5.843602750e-01,8.34178e-03,9.99999e-01,8.34178e-03,9.99999e-01
5.872820764e-01,9.16893e-03,9.99999e-01,9.16893e-03,9.99999e-01
5.902184868e-01,1.00593e-02,9.99999e-01,1.00593e-02,9.99999e-01
5.931695792e-01,1.10160e-02,9.99999e-01,1.10160e-02,9.99999e-01
5.961354271e-01,1.20420e-02,9.99999e-01,1.20420e-02,9.99999e-01
5.991161043e-01,1.31404e-02,9.99999e-01,1.31404e-02,9.99999e-01
6.021116848e-01,1.43143e-02,9.99999e-01,1.43143e-02,9.99999e-01
6.051222432e-01,1.55668e-02,9.99999e-01,1.55668e-02,9.99999e-01
6.081478544e-01,1.69008e-02,9.99999e-01,1.69008e-02,9.99999e-01
6.111885937e-01,1.83194e-02,9.99999e-01,1.83194e-02,9.99999e-01
6.142445367e-01,1.98254e-02,9.99999e-01,1.98254e-02,9.99999e-01
6.173157594e-01,2.14218e-02,9.99999e-01,2.14218e-02,9.99999e-01
6.204023382e-01,2.31114e-02,9.99999e-01,2.31114e-02,9.99999e-01
6.235043498e-01,2.48968e-02,9.99999e-01,2.48968e-02,9.99999e-01
6.266218716e-01,2.67809e-02,9.99999e-01,2.67809e-02,9.99999e-01
6.297549810e-01,2.87660e-02,9.99999e-01,2.87660e-02,9.99999e-01
6.329037559e-01,3.08546e-02,9.99999e-01,3.08546e-02,9.99999e-01
6.360682746e-01,3.30491e-02,9.99999e-01,3.30491e-02,9.99999e-01
6.392486160e-01,3.53516e-02,9.99999e-01,3.53516e-02,9.99999e-01
6.424448591e-01,3.77644e-02,9.99999e-01,3.77644e-02,9.99999e-01
6.456570834e-01,4.02892e-02,9.99999e-01,4.02892e-02,9.99999e-01
6.488853688e-01,4.29279e-02,9.99999e-01,4.29279e-02,9.99999e-01
6.521297956e-01,4.56821e-02,9.99999e-01,4.56821e-02,9.99999e-01
6.553904446e-01,4.85534e-02,9.99999e-01,4.85534e-02,9.99999e-01
6.586673968e-01,5.15430e-02,9.99999e-01,5.15430e-02,9.99999e-01
6.619607338e-01,5.46522e-02,9.99999e-01,5.46522e-02,9.99999e-01
6.652705375e-01,5.78819e-02,9.99999e-01,5.78819e-02,9.99999e-01
6.685968902e-01,6.12330e-02,9.99999e-01,6.12330e-02,9.99999e-01
6.719398746e-01,6.47062e-02,9.99999e-01,6.47062e-02,9.99999e-01
6.752995740e-01,6.83019e-02,9.99999e-01,6.83019e-02,9.99999e-01
6.786760719e-01,7.20204e-02,9.99999e-01,7.20204e-02,9.99999e-01
6.820694522e-01,7.58619e-02,9.99999e-01,7.58619e-02,9.99999e-01
6.854797995e-01,7.98263e-02,9.99999e-01,7.98263e-02,9.99999e-01
6.889071985e-01,8.39134e-02,9.99999e-01,8.39134e-02,9.99999e-01
6.923517345e-01,8.81228e-02,9.99999e-01,8.81228e-02,9.99999e-01
6.958134932e-01,9.24539e-02,9.99999e-01,9.24539e-02,9.99999e-01
6.992925606e-01,9.69060e-02,9.99999e-01,9.69060e-02,9.99999e-01
7.027890234e-01,1.01478e-01,9.99999e-01,1.01478e-01,9.99999e-01
7.063029686e-01,1.06169e-01,9.99999e-01,1.06169e-01,9.99999e-01
7.098344834e-01,1.10978e-01,9.99999e-01,1.10978e-01,9.99999e-01
7.133836558e-01,1.15904e-01,9.99999e-01,1.15904e-01,9.99999e-01
7.169505741e-01,1.20944e-01,9.99999e-01,1.20944e-01,9.99999e-01
7.205353270e-01,1.26097e-01,9.99999e-01,1.26097e-01,9.99999e-01
7.241380036e-01,1.31362e-01,9.99999e-01,1.31362e-01,9.99999e-01
7.277586936e-01,1.36735e-01,9.99999e-01,1.36735e-01,9.99999e-01
7.313974871e-01,1.42216e-01,9.99999e-01,1.42216e-01,9.99999e-01
7.350544745e-01,1.47802e-01,9.99999e-01,1.47802e-01,9.99999e-01
7.387297469e-01,1.53490e-01,9.99999e-01,1.53490e-01,9.99999e-01
7.424233956e-01,1.59279e-01,9.99999e-01,1.59279e-01,9.99999e-01
7.461355126e-01,1.65165e-01,9.99999e-01,1.65165e-01,9.99999e-01
7.498661902e-01,1.71146e-01,9.99999e-01,1.71146e-01,9.99999e-01
7.536155211e-01,1.77218e-01,9.99999e-01,1.77218e-01,9.99999e-01
7.573835987e-01,1.83380e-01,9.99999e-01,1.83380e-01,9.99999e-01
7.611705167e-01,1.89628e-01,9.99999e-01,1.89628e-01,9.99999e-01
7.649763693e-01,1.95959e-01,9.99999e-01,1.95959e-01,9.99999e-01
7.688012511e-01,2.02371e-01,9.99999e-01,2.02371e-01,9.99999e-01
7.726452574e-01,2.08859e-01,9.99999e-01,2.08859e-01,9.99999e-01
7.765084837e-01,2.15421e-01,9.99999e-01,2.15421e-01,9.99999e-01
7.803910261e-01,2.08181e-01,9.37528e-01,2.22053e-01,9.99999e-01
7.842929812e-01,1.67968e-01,7.34279e-01,2.28752e-01,9.99999e-01
7.882144461e-01,1.69778e-01,7.20879e-01,2.35516e-01,9.99999e-01
7.921555184e-01,1.99091e-01,8.21537e-01,2.42339e-01,9.99999e-01
7.961162960e-01,2.18215e-01,8.75591e-01,2.49220e-01,9.99999e-01
8.000968774e-01,2.38355e-01,9.30510e-01,2.56155e-01,9.99999e-01
8.040973618e-01,2.53476e-01,9.63275e-01,2.63139e-01,9.99999e-01
8.081178486e-01,2.65578e-01,9.82997e-01,2.70171e-01,9.99999e-01
8.121584379e-01,2.75776e-01,9.94697e-01,2.77246e-01,9.99999e-01
8.162192301e-01,2.84027e-01,9.98826e-01,2.84361e-01,9.99999e-01
8.203003262e-01,2.91507e-01,9.99981e-01,2.91513e-01,9.99999e-01
8.244018279e-01,2.98697e-01,9.99999e-01,2.98697e-01,9.99999e-01
8.285238370e-01,3.05912e-01,9.99999e-01,3.05912e-01,9.99999e-01
8.326664562e-01,3.13154e-01,9.99999e-01,3.13154e-01,9.99999e-01
8.368297885e-01,3.20419e-01,9.99999e-01,3.20419e-01,9.99999e-01
8.410139374e-01,3.27704e-01,9.99999e-01,3.27704e-01,9.99999e-01
8.452190071e-01,3.35005e-01,9.99999e-01,3.35005e-01,9.99999e-01
8.494451021e-01,3.42321e-01,9.99999e-01,3.42321e-01,9.99999e-01
8.536923276e-01,3.49646e-01,9.99999e-01,3.49646e-01,9.99999e-01
8.579607893e-01,3.56980e-01,9.99999e-01,3.56980e-01,9.99999e-01
8.622505932e-01,3.64317e-01,9.99999e-01,3.64317e-01,9.99999e-01
8.665618462e-01,3.31297e-01,8.91406e-01,3.71656e-01,9.99999e-01
8.708946554e-01,1.76055e-01,4.64531e-01,3.78994e-01,9.99999e-01
8.752491287e-01,2.05512e-01,5.31963e-01,3.86327e-01,9.99999e-01
8.796253743e-01,2.76692e-01,7.02881e-01,3.93654e-01,9.99999e-01
8.840235012e-01,3.33366e-01,8.31399e-01,4.00970e-01,9.99999e-01
8.884436187e-01,3.79472e-01,9.29454e-01,4.08273e-01,9.99999e-01
8.928858368e-01,4.03427e-01,9.70798e-01,4.15562e-01,9.99999e-01
8.973502660e-01,4.19792e-01,9.92807e-01,4.22833e-01,9.99999e-01
9.018370173e-01,4.29741e-01,9.99203e-01,4.30084e-01,9.99999e-01
9.063462024e-01,4.28680e-01,9.80261e-01,4.37312e-01,9.99999e-01
9.108779334e-01,4.24248e-01,9.54405e-01,4.44515e-01,9.99999e-01
9.154323231e-01,4.46748e-01,9.89056e-01,4.51691e-01,9.99999e-01
9.200094847e-01,3.96087e-01,8.63239e-01,4.58838e-01,9.99999e-01
9.246095321e-01,3.71126e-01,7.96486e-01,4.65953e-01,9.99999e-01
9.292325798e-01,3.96788e-01,8.38813e-01,4.73035e-01,9.99999e-01
9.338787427e-01,4.04315e-01,8.42180e-01,4.80081e-01,9.99999e-01
9.385481364e-01,4.29092e-01,8.80929e-01,4.87091e-01,9.99999e-01
9.432408771e-01,4.57011e-01,9.25008e-01,4.94061e-01,9.99999e-01
9.479570815e-01,4.81364e-01,9.60826e-01,5.00990e-01,9.99999e-01
9.526968669e-01,4.98182e-01,9.80910e-01,5.07876e-01,9.99999e-01
9.574603512e-01,5.10491e-01,9.91786e-01,5.14719e-01,9.99999e-01
9.622476530e-01,5.20175e-01,9.97429e-01,5.21515e-01,9.99999e-01
9.670588912e-01,5.27858e-01,9.99228e-01,5.28265e-01,9.99999e-01
9.718941857e-01,5.34937e-01,9.99944e-01,5.34966e-01,9.99999e-01
9.767536566e-01,5.41617e-01,9.99999e-01,5.41617e-01,9.99999e-01
9.816374249e-01,5.48217e-01,9.99999e-01,5.48217e-01,9.99999e-01
9.865456120e-01,5.54765e-01,9.99999e-01,5.54765e-01,9.99999e-01
9.914783401e-01,5.61259e-01,9.99999e-01,5.61259e-01,9.99999e-01
9.964357318e-01,5.67699e-01,9.99999e-01,5.67699e-01,9.99999e-01
1.001417910e+00,5.74083e-01,9.99999e-01,5.74083e-01,9.99999e-01
1.006425000e+00,5.80411e-01,9.99999e-01,5.80411e-01,9.99999e-01
1.011457125e+00,5.86682e-01,9.99999e-01,5.86682e-01,9.99999e-01
1.016514411e+00,5.92894e-01,9.99999e-01,5.92894e-01,9.99999e-01
1.021596983e+00,5.98987e-01,9.99898e-01,5.99048e-01,9.99999e-01
1.026704968e+00,6.00435e-01,9.92221e-01,6.05142e-01,9.99999e-01
1.031838492e+00,5.67765e-01,9.28971e-01,6.11175e-01,9.99999e-01
1.036997685e+00,4.77727e-02,7.74087e-02,6.17148e-01,9.99999e-01
1.042182673e+00,1.02925e-02,1.65192e-02,6.23060e-01,9.99999e-01
1.047393587e+00,2.01373e-02,3.20193e-02,6.28910e-01,9.99999e-01
1.052630555e+00,2.74617e-05,4.32674e-05,6.34698e-01,9.99999e-01
1.057893707e+00,9.59884e-05,1.49883e-04,6.40423e-01,9.99999e-01
1.063183176e+00,9.14435e-04,1.41535e-03,6.46085e-01,9.99999e-01
1.068499092e+00,5.40976e-03,8.30120e-03,6.51683e-01,9.99999e-01
1.073841587e+00,3.08050e-02,4.68718e-02,6.57219e-01,9.99999e-01
1.079210795e+00,9.58906e-02,1.44699e-01,6.62690e-01,9.99999e-01
1.084606849e+00,2.26052e-01,3.38351e-01,6.68098e-01,9.99999e-01
1.090029883e+00,3.82606e-01,5.68135e-01,6.73442e-01,9.99999e-01
1.095480033e+00,5.13287e-01,7.56256e-01,6.78721e-01,9.99999e-01
1.100957433e+00,5.97583e-01,8.73739e-01,6.83937e-01,9.99999e-01
1.106462220e+00,6.51627e-01,9.45636e-01,6.89088e-01,9.99999e-01
1.111994531e+00,6.79933e-01,9.79482e-01,6.94175e-01,9.99999e-01
1.117554504e+00,6.95662e-01,9.94941e-01,6.99199e-01,9.99999e-01
1.123142276e+00,7.03923e-01,9.99666e-01,7.04158e-01,9.99999e-01
1.128757988e+00,7.09053e-01,9.99999e-01,7.09053e-01,9.99999e-01
1.134401778e+00,7.13885e-01,9.99999e-01,7.13885e-01,9.99999e-01
1.140073787e+00,7.18654e-01,9.99999e-01,7.18654e-01,9.99999e-01
1.145774156e+00,7.23359e-01,9.99999e-01,7.23359e-01,9.99999e-01
1.151503026e+00,7.28001e-01,9.99999e-01,7.28001e-01,9.99999e-01
1.157260541e+00,7.32580e-01,9.99999e-01,7.32580e-01,9.99999e-01
1.163046844e+00,7.37097e-01,9.99999e-01,7.37097e-01,9.99999e-01
1.168862078e+00,7.41551e-01,9.99999e-01,7.41551e-01,9.99999e-01
1.174706389e+00,7.45944e-01,9.99999e-01,7.45944e-01,9.99999e-01
1.180579921e+00,7.50275e-01,9.99999e-01,7.50275e-01,9.99999e-01
1.186482820e+00,7.54536e-01,9.99987e-01,7.54545e-01,9.99999e-01
1.192415234e+00,7.38296e-01,9.73036e-01,7.58754e-01,9.99999e-01
1.198377311e+00,4.10429e-01,5.37982e-01,7.62903e-01,9.99999e-01
1.204369197e+00,3.74379e-21,4.88113e-21,7.66992e-01,9.99999e-01
1.210391043e+00,1.83297e-83,2.37732e-83,7.71022e-01,9.99999e-01
1.216442998e+00,2.53982e-72,3.27721e-72,7.74992e-01,9.99999e-01
1.222525213e+00,3.01993e-71,3.87715e-71,7.78904e-01,9.99999e-01
1.228637839e+00,4.47715e-55,5.71971e-55,7.82758e-01,9.99999e-01
1.234781029e+00,1.45082e-34,1.84453e-34,7.86554e-01,9.99999e-01
1.240954934e+00,4.46022e-23,5.64375e-23,7.90293e-01,9.99999e-01
1.247159708e+00,1.55621e-11,1.96002e-11,7.93976e-01,9.99999e-01
1.253395507e+00,8.98225e-08,1.12616e-07,7.97602e-01,9.99999e-01
1.259662485e+00,8.61013e-05,1.07469e-04,8.01173e-01,9.99999e-01
1.265960797e+00,4.62185e-03,5.74365e-03,8.04689e-01,9.99999e-01
1.272290601e+00,6.70544e-02,8.29727e-02,8.08150e-01,9.99999e-01
1.278652054e+00,6.97284e-02,8.59192e-02,8.11557e-01,9.99999e-01
1.285045314e+00,3.49010e-04,4.28280e-04,8.14911e-01,9.99999e-01
1.291470541e+00,3.14639e-10,3.84544e-10,8.18212e-01,9.99999e-01
1.297927893e+00,7.93173e-05,9.65562e-05,8.21461e-01,9.99999e-01
1.304417533e+00,1.17318e-02,1.42263e-02,8.24659e-01,9.99999e-01
1.310939621e+00,2.86478e-03,3.46069e-03,8.27805e-01,9.99999e-01
1.317494319e+00,8.89733e-29,1.07080e-28,8.30901e-01,9.99999e-01
1.324081790e+00,3.92742e-19,4.70943e-19,8.33947e-01,9.99999e-01
1.330702199e+00,2.29569e-11,2.74294e-11,8.36943e-01,9.99999e-01
1.337355710e+00,1.33402e-10,1.58833e-10,8.39891e-01,9.99999e-01
1.344042489e+00,5.79040e-11,6.87050e-11,8.42791e-01,9.99999e-01
1.350762701e+00,1.21328e-11,1.43475e-11,8.45643e-01,9.99999e-01
1.357516515e+00,2.09107e-07,2.46458e-07,8.48448e-01,9.99999e-01
1.364304097e+00,2.20702e-05,2.59281e-05,8.51207e-01,9.99999e-01
1.371125618e+00,3.81294e-03,4.46521e-03,8.53920e-01,9.99999e-01
1.377981246e+00,8.55583e-03,9.98827e-03,8.56587e-01,9.99999e-01
1.384871152e+00,5.87791e-02,6.84105e-02,8.59210e-01,9.99999e-01
1.391795508e+00,7.22484e-02,8.38352e-02,8.61790e-01,9.99999e-01
1.398754485e+00,1.84018e-01,2.12903e-01,8.64325e-01,9.99999e-01
1.405748258e+00,2.79345e-01,3.22265e-01,8.66818e-01,9.99999e-01
1.412776999e+00,4.23533e-01,4.87229e-01,8.69269e-01,9.99999e-01
1.419840884e+00,3.86940e-01,4.43902e-01,8.71678e-01,9.99999e-01
1.426940089e+00,1.95810e-02,2.24027e-02,8.74045e-01,9.99999e-01
1.434074789e+00,0.00000e+00,0.00000e+00,8.76373e-01,9.99999e-01
1.441245163e+00,0.00000e+00,0.00000e+00,8.78660e-01,9.99999e-01
1.448451389e+00,0.00000e+00,0.00000e+00,8.80908e-01,9.99999e-01
1.455693646e+00,0.00000e+00,0.00000e+00,8.83117e-01,9.99999e-01
1.462972114e+00,0.00000e+00,0.00000e+00,8.85288e-01,9.99999e-01
1.470286975e+00,6.87760e-138,7.75009e-138,8.87421e-01,9.99999e-01
1.477638409e+00,9.40887e-87,1.05775e-86,8.89517e-01,9.99999e-01
1.485026601e+00,2.01794e-48,2.26334e-48,8.91577e-01,9.99999e-01
1.492451734e+00,2.90304e-41,3.24869e-41,8.93600e-01,9.99999e-01
1.499913993e+00,4.48249e-18,5.00507e-18,8.95588e-01,9.99999e-01
1.507413563e+00,7.82572e-17,8.71906e-17,8.97541e-01,9.99999e-01
1.514950631e+00,2.68235e-18,2.98218e-18,8.99459e-01,9.99999e-01
1.522525384e+00,9.73979e-62,1.08058e-61,9.01344e-01,9.99999e-01
1.530138011e+00,3.93250e-147,4.35399e-147,9.03195e-01,9.99999e-01
1.537788701e+00,6.78371e-109,7.49570e-109,9.05013e-01,9.99999e-01
1.545477645e+00,3.59541e-23,3.96494e-23,9.06799e-01,9.99999e-01
1.553205033e+00,7.66307e-17,8.43436e-17,9.08553e-01,9.99999e-01
1.560971058e+00,3.43192e-17,3.77019e-17,9.10276e-01,9.99999e-01
1.568775913e+00,0.00000e+00,0.00000e+00,9.11967e-01,9.99999e-01
1.576619793e+00,0.00000e+00,0.00000e+00,9.13629e-01,9.99999e-01
1.584502892e+00,0.00000e+00,0.00000e+00,9.15261e-01,9.99999e-01
1.592425406e+00,0.00000e+00,0.00000e+00,9.16863e-01,9.99999e-01
1.600387533e+00,0.00000e+00,0.00000e+00,9.18436e-01,9.99999e-01
1.608389471e+00,0.00000e+00,0.00000e+00,9.19981e-01,9.99999e-01
1.616431418e+00,0.00000e+00,0.00000e+00,9.21498e-01,9.99999e-01
1.624513575e+00,0.00000e+00,0.00000e+00,9.22987e-01,9.99999e-01
1.632636143e+00,3.29196e-313,3.56100e-313,9.24449e-01,9.99999e-01
1.640799324e+00,9.18642e-128,9.92176e-128,9.25885e-01,9.99999e-01
1.649003321e+00,9.19718e-128,9.91829e-128,9.27294e-01,9.99999e-01
1.657248337e+00,8.86352e-99,9.54423e-99,9.28678e-01,9.99999e-01
1.665534579e+00,1.94534e-99,2.09169e-99,9.30036e-01,9.99999e-01
1.673862252e+00,1.76668e-63,1.89686e-63,9.31369e-01,9.99999e-01
1.682231563e+00,5.10203e-44,5.47029e-44,9.32678e-01,9.99999e-01
1.690642721e+00,1.50390e-24,1.61023e-24,9.33963e-01,9.99999e-01
1.699095934e+00,9.77620e-16,1.04533e-15,9.35224e-01,9.99999e-01
1.707591414e+00,2.70492e-08,2.88844e-08,9.36462e-01,9.99999e-01
1.716129371e+00,3.94307e-05,4.20514e-05,9.37677e-01,9.99999e-01
1.724710018e+00,2.93320e-03,3.12418e-03,9.38870e-01,9.99999e-01
1.733333568e+00,2.06513e-02,2.19685e-02,9.40040e-01,9.99999e-01
1.742000236e+00,1.01293e-01,1.07623e-01,9.41189e-01,9.99999e-01
1.750710237e+00,6.38471e-04,6.77554e-04,9.42317e-01,9.99999e-01
1.759463788e+00,1.28851e-60,1.36578e-60,9.43423e-01,9.99999e-01
1.768261107e+00,1.94983e-63,2.06438e-63,9.44509e-01,9.99999e-01
1.777102413e+00,9.55655e-62,1.01066e-61,9.45575e-01,9.99999e-01
1.785987925e+00,6.73813e-58,7.11808e-58,9.46620e-01,9.99999e-01
1.794917864e+00,2.70951e-55,2.85919e-55,9.47647e-01,9.99999e-01
1.803892454e+00,3.72762e-53,3.92938e-53,9.48654e-01,9.99999e-01
1.812911916e+00,4.45481e-51,4.69103e-51,9.49642e-01,9.99999e-01
1.821976476e+00,3.86010e-51,4.06065e-51,9.50612e-01,9.99999e-01
1.831086358e+00,4.23688e-41,4.45254e-41,9.51563e-01,9.99999e-01
1.840241790e+00,5.03396e-35,5.28501e-35,9.52497e-01,9.99999e-01
1.849442999e+00,2.29716e-24,2.40941e-24,9.53413e-01,9.99999e-01
1.858690214e+00,6.73640e-23,7.05890e-23,9.54312e-01,9.99999e-01
1.867983665e+00,1.63837e-23,1.71522e-23,9.55194e-01,9.99999e-01
1.877323583e+00,1.04819e-115,1.09637e-115,9.56059e-01,9.99999e-01
