#,Wave/freq,Total,CO2,Rayleigh,CIA
4.000000000e-01,1.16472e-02,9.99999e-01,1.16472e-02,9.99999e-01
4.020000000e-01,1.27191e-02,9.99999e-01,1.27191e-02,9.99999e-01
4.040100000e-01,1.38643e-02,9.99999e-01,1.38643e-02,9.99999e-01
4.060300500e-01,1.50869e-02,9.99999e-01,1.50869e-02,9.99999e-01
4.080602003e-01,1.63899e-02,9.99999e-01,1.63899e-02,9.99999e-01
4.101005013e-01,1.77764e-02,9.99999e-01,1.77764e-02,9.99999e-01
4.121510038e-01,1.92492e-02,9.99999e-01,1.92492e-02,9.99999e-01
4.142117588e-01,2.08114e-02,9.99999e-01,2.08114e-02,9.99999e-01
4.162828176e-01,2.24656e-02,9.99999e-01,2.24656e-02,9.99999e-01
4.183642317e-01,2.42147e-02,9.99999e-01,2.42147e-02,9.99999e-01
4.204560528e-01,2.60614e-02,9.99999e-01,2.60614e-02,9.99999e-01
4.225583331e-01,2.80083e-02,9.99999e-01,2.80083e-02,9.99999e-01
4.246711247e-01,3.00577e-02,9.99999e-01,3.00577e-02,9.99999e-01
4.267944804e-01,3.22122e-02,9.99999e-01,3.22122e-02,9.99999e-01
4.289284528e-01,3.44739e-02,9.99999e-01,3.44739e-02,9.99999e-01
4.310730950e-01,3.68450e-02,9.99999e-01,3.68450e-02,9.99999e-01
4.332284605e-01,3.93275e-02,9.99999e-01,3.93275e-02,9.99999e-01
4.353946028e-01,4.19232e-02,9.99999e-01,4.19232e-02,9.99999e-01
4.375715758e-01,4.46339e-02,9.99999e-01,4.46339e-02,9.99999e-01
4.397594337e-01,4.74610e-02,9.99999e-01,4.74610e-02,9.99999e-01
4.419582309e-01,5.04060e-02,9.99999e-01,5.04060e-02,9.99999e-01
4.441680220e-01,5.34702e-02,9.99999e-01,5.34702e-02,9.99999e-01
4.463888621e-01,5.66545e-02,9.99999e-01,5.66545e-02,9.99999e-01
4.486208064e-01,5.99600e-02,9.99999e-01,5.99600e-02,9.99999e-01
4.508639105e-01,6.33872e-02,9.99999e-01,6.33872e-02,9.99999e-01
4.531182300e-01,6.69368e-02,9.99999e-01,6.69368e-02,9.99999e-01
4.553838212e-01,7.06092e-02,9.99999e-01,7.06092e-02,9.99999e-01
4.576607403e-01,7.44044e-02,9.99999e-01,7.44044e-02,9.99999e-01
4.599490440e-01,7.83227e-02,9.99999e-01,7.83227e-02,9.99999e-01
4.622487892e-01,8.23637e-02,9.99999e-01,8.23637e-02,9.99999e-01
4.645600332e-01,8.65273e-02,9.99999e-01,8.65273e-02,9.99999e-01
4.668828333e-01,9.08127e-02,9.99999e-01,9.08127e-02,9.99999e-01
4.692172475e-01,9.52195e-02,9.99999e-01,9.52195e-02,9.99999e-01
4.715633337e-01,9.97467e-02,9.99999e-01,9.97467e-02,9.99999e-01
4.739211504e-01,1.04393e-01,9.99999e-01,1.04393e-01,9.99999e-01
4.762907561e-01,1.09158e-01,9.99999e-01,1.09158e-01,9.99999e-01
4.786722099e-01,1.14040e-01,9.99999e-01,1.14040e-01,9.99999e-01
4.810655710e-01,1.19037e-01,9.99999e-01,1.19037e-01,9.99999e-01
4.834708988e-01,1.24148e-01,9.99999e-01,1.24148e-01,9.99999e-01
4.858882533e-01,1.29371e-01,9.99999e-01,1.29371e-01,9.99999e-01
4.883176946e-01,1.34704e-01,9.99999e-01,1.34704e-01,9.99999e-01
4.907592831e-01,1.40145e-01,9.99999e-01,1.40145e-01,9.99999e-01
4.932130795e-01,1.45692e-01,9.99999e-01,1.45692e-01,9.99999e-01
4.956791449e-01,1.51342e-01,9.99999e-01,1.51342e-01,9.99999e-01
4.981575406e-01,1.57093e-01,9.99999e-01,1.57093e-01,9.99999e-01
5.006483283e-01,1.62943e-01,9.99999e-01,1.62943e-01,9.99999e-01
5.031515699e-01,1.68888e-01,9.99999e-01,1.68888e-01,9.99999e-01
5.056673278e-01,1.74927e-01,9.99999e-01,1.74927e-01,9.99999e-01
5.081956644e-01,1.81055e-01,9.99999e-01,1.81055e-01,9.99999e-01
5.107366428e-01,1.87271e-01,9.99999e-01,1.87271e-01,9.99999e-01
5.132903260e-01,1.93572e-01,9.99999e-01,1.93572e-01,9.99999e-01
5.158567776e-01,1.99953e-01,9.99999e-01,1.99953e-01,9.99999e-01
5.184360615e-01,2.06413e-01,9.99999e-01,2.06413e-01,9.99999e-01
5.210282418e-01,2.12947e-01,9.99999e-01,2.12947e-01,9.99999e-01
5.236333830e-01,2.19554e-01,9.99999e-01,2.19554e-01,9.99999e-01
5.262515499e-01,2.26228e-01,9.99999e-01,2.26228e-01,9.99999e-01
5.288828077e-01,2.32968e-01,9.99999e-01,2.32968e-01,9.99999e-01
5.315272217e-01,2.39769e-01,9.99999e-01,2.39769e-01,9.99999e-01
5.341848578e-01,2.46629e-01,9.99999e-01,2.46629e-01,9.99999e-01
5.368557821e-01,2.53544e-01,9.99999e-01,2.53544e-01,9.99999e-01
5.395400610e-01,2.60510e-01,9.99999e-01,2.60510e-01,9.99999e-01
5.422377613e-01,2.67524e-01,9.99999e-01,2.67524e-01,9.99999e-01
5.449489501e-01,2.74583e-01,9.99999e-01,2.74583e-01,9.99999e-01
5.476736949e-01,2.81684e-01,9.99999e-01,2.81684e-01,9.99999e-01
5.504120634e-01,2.88822e-01,9.99999e-01,2.88822e-01,9.99999e-01
5.531641237e-01,2.95995e-01,9.99999e-01,2.95995e-01,9.99999e-01
5.559299443e-01,3.03199e-01,9.99999e-01,3.03199e-01,9.99999e-01
5.587095940e-01,3.10431e-01,9.99999e-01,3.10431e-01,9.99999e-01
5.615031420e-01,3.17687e-01,9.99999e-01,3.17687e-01,9.99999e-01
5.643106577e-01,3.24965e-01,9.99999e-01,3.24965e-01,9.99999e-01
5.671322110e-01,3.32261e-01,9.99999e-01,3.32261e-01,9.99999e-01
5.699678720e-01,3.39571e-01,9.99999e-01,3.39571e-01,9.99999e-01
5.728177114e-01,3.46893e-01,9.99999e-01,3.46893e-01,9.99999e-01
5.756818000e-01,3.54224e-01,9.99999e-01,3.54224e-01,9.99999e-01
5.785602090e-01,3.61561e-01,9.99999e-01,3.61561e-01,9.99999e-01
5.814530100e-01,3.68900e-01,9.99999e-01,3.68900e-01,9.99999e-01
5.843602750e-01,3.76238e-01,9.99999e-01,3.76238e-01,9.99999e-01
5.872820764e-01,3.83573e-01,9.99999e-01,3.83573e-01,9.99999e-01
5.902184868e-01,3.90903e-01,9.99999e-01,3.90903e-01,9.99999e-01
5.931695792e-01,3.98223e-01,9.99999e-01,3.98223e-01,9.99999e-01
5.961354271e-01,4.05532e-01,9.99999e-01,4.05532e-01,9.99999e-01
5.991161043e-01,4.12826e-01,9.99999e-01,4.12826e-01,9.99999e-01
6.021116848e-01,4.20104e-01,9.99999e-01,4.20104e-01,9.99999e-01
6.051222432e-01,4.27362e-01,9.99999e-01,4.27362e-01,9.99999e-01
6.081478544e-01,4.34599e-01,9.99999e-01,4.34599e-01,9.99999e-01
6.111885937e-01,4.41812e-01,9.99999e-01,4.41812e-01,9.99999e-01
6.142445367e-01,4.48999e-01,9.99999e-01,4.48999e-01,9.99999e-01
6.173157594e-01,4.56157e-01,9.99999e-01,4.56157e-01,9.99999e-01
6.204023382e-01,4.63284e-01,9.99999e-01,4.63284e-01,9.99999e-01
6.235043498e-01,4.70379e-01,9.99999e-01,4.70379e-01,9.99999e-01
6.266218716e-01,4.77439e-01,9.99999e-01,4.77439e-01,9.99999e-01
6.297549810e-01,4.84462e-01,9.99999e-01,4.84462e-01,9.99999e-01
6.329037559e-01,4.91447e-01,9.99999e-01,4.91447e-01,9.99999e-01
6.360682746e-01,4.98392e-01,9.99999e-01,4.98392e-01,9.99999e-01
6.392486160e-01,5.05294e-01,9.99999e-01,5.05294e-01,9.99999e-01
6.424448591e-01,5.12154e-01,9.99999e-01,5.12154e-01,9.99999e-01
6.456570834e-01,5.18968e-01,9.99999e-01,5.18968e-01,9.99999e-01
6.488853688e-01,5.25735e-01,9.99999e-01,5.25735e-01,9.99999e-01
6.521297956e-01,5.32455e-01,9.99999e-01,5.32455e-01,9.99999e-01
6.553904446e-01,5.39125e-01,9.99999e-01,5.39125e-01,9.99999e-01
6.586673968e-01,5.45744e-01,9.99999e-01,5.45744e-01,9.99999e-01
6.619607338e-01,5.52311e-01,9.99999e-01,5.52311e-01,9.99999e-01
6.652705375e-01,5.58826e-01,9.99999e-01,5.58826e-01,9.99999e-01
6.685968902e-01,5.65286e-01,9.99999e-01,5.65286e-01,9.99999e-01
6.719398746e-01,5.71692e-01,9.99999e-01,5.71692e-01,9.99999e-01
6.752995740e-01,5.78041e-01,9.99999e-01,5.78041e-01,9.99999e-01
6.786760719e-01,5.84333e-01,9.99999e-01,5.84333e-01,9.99999e-01
6.820694522e-01,5.90567e-01,9.99999e-01,5.90567e-01,9.99999e-01
6.854797995e-01,5.96743e-01,9.99999e-01,5.96743e-01,9.99999e-01
6.889071985e-01,6.02859e-01,9.99999e-01,6.02859e-01,9.99999e-01
6.923517345e-01,6.08916e-01,9.99999e-01,6.08916e-01,9.99999e-01
6.958134932e-01,6.14912e-01,9.99999e-01,6.14912e-01,9.99999e-01
6.992925606e-01,6.20847e-01,9.99999e-01,6.20847e-01,9.99999e-01
7.027890234e-01,6.26720e-01,9.99999e-01,6.26720e-01,9.99999e-01
7.063029686e-01,6.32531e-01,9.99999e-01,6.32531e-01,9.99999e-01
7.098344834e-01,6.38279e-01,9.99999e-01,6.38279e-01,9.99999e-01
7.133836558e-01,6.43965e-01,9.99999e-01,6.43965e-01,9.99999e-01
7.169505741e-01,6.49588e-01,9.99999e-01,6.49588e-01,9.99999e-01
7.205353270e-01,6.55147e-01,9.99999e-01,6.55147e-01,9.99999e-01
7.241380036e-01,6.60642e-01,9.99999e-01,6.60642e-01,9.99999e-01
7.277586936e-01,6.66074e-01,9.99999e-01,6.66074e-01,9.99999e-01
7.313974871e-01,6.71442e-01,9.99999e-01,6.71442e-01,9.99999e-01
7.350544745e-01,6.76745e-01,9.99999e-01,6.76745e-01,9.99999e-01
7.387297469e-01,6.81985e-01,9.99999e-01,6.81985e-01,9.99999e-01
7.424233956e-01,6.87160e-01,9.99999e-01,6.87160e-01,9.99999e-01
7.461355126e-01,6.92272e-01,9.99999e-01,6.92272e-01,9.99999e-01
7.498661902e-01,6.97319e-01,9.99999e-01,6.97319e-01,9.99999e-01
7.536155211e-01,7.02302e-01,9.99999e-01,7.02302e-01,9.99999e-01
7.573835987e-01,7.07222e-01,9.99999e-01,7.07222e-01,9.99999e-01
7.611705167e-01,7.12078e-01,9.99999e-01,7.12078e-01,9.99999e-01
7.649763693e-01,7.16870e-01,9.99999e-01,7.16870e-01,9.99999e-01
7.688012511e-01,7.21599e-01,9.99999e-01,7.21599e-01,9.99999e-01
7.726452574e-01,7.26264e-01,9.99999e-01,7.26264e-01,9.99999e-01
7.765084837e-01,7.30867e-01,9.99999e-01,7.30867e-01,9.99999e-01
7.803910261e-01,7.23698e-01,9.84077e-01,7.35407e-01,9.99999e-01
7.842929812e-01,6.92712e-01,9.36241e-01,7.39885e-01,9.99999e-01
7.882144461e-01,6.93144e-01,9.31268e-01,7.44301e-01,9.99999e-01
7.921555184e-01,7.18706e-01,9.59994e-01,7.48655e-01,9.99999e-01
7.961162960e-01,7.32836e-01,9.73288e-01,7.52948e-01,9.99999e-01
8.000968774e-01,7.46139e-01,9.85416e-01,7.57180e-01,9.99999e-01
8.040973618e-01,7.55602e-01,9.92447e-01,7.61352e-01,9.99999e-01
8.081178486e-01,7.62798e-01,9.96516e-01,7.65463e-01,9.99999e-01
8.121584379e-01,7.68693e-01,9.98931e-01,7.69515e-01,9.99999e-01
8.162192301e-01,7.73325e-01,9.99763e-01,7.73508e-01,9.99999e-01
8.203003262e-01,7.77439e-01,9.99996e-01,7.77442e-01,9.99999e-01
8.244018279e-01,7.81317e-01,9.99999e-01,7.81317e-01,9.99999e-01
8.285238370e-01,7.85135e-01,9.99999e-01,7.85135e-01,9.99999e-01
8.326664562e-01,7.88895e-01,9.99999e-01,7.88895e-01,9.99999e-01
8.368297885e-01,7.92599e-01,9.99999e-01,7.92599e-01,9.99999e-01
8.410139374e-01,7.96246e-01,9.99999e-01,7.96246e-01,9.99999e-01
8.452190071e-01,7.99838e-01,9.99999e-01,7.99838e-01,9.99999e-01
8.494451021e-01,8.03374e-01,9.99999e-01,8.03374e-01,9.99999e-01
8.536923276e-01,8.06856e-01,9.99999e-01,8.06856e-01,9.99999e-01
8.579607893e-01,8.10284e-01,9.99999e-01,8.10284e-01,9.99999e-01
8.622505932e-01,8.13658e-01,9.99999e-01,8.13658e-01,9.99999e-01
8.665618462e-01,7.81908e-01,9.57073e-01,8.16979e-01,9.99999e-01
8.708946554e-01,6.91395e-01,8.42910e-01,8.20247e-01,9.99999e-01
8.752491287e-01,7.19264e-01,8.73460e-01,8.23464e-01,9.99999e-01
8.796253743e-01,7.68148e-01,9.29252e-01,8.26629e-01,9.99999e-01
8.840235012e-01,7.98939e-01,9.62873e-01,8.29744e-01,9.99999e-01
8.884436187e-01,8.20553e-01,9.85283e-01,8.32808e-01,9.99999e-01
8.928858368e-01,8.30815e-01,9.94007e-01,8.35823e-01,9.99999e-01
8.973502660e-01,8.37572e-01,9.98548e-01,8.38789e-01,9.99999e-01
9.018370173e-01,8.41573e-01,9.99839e-01,8.41707e-01,9.99999e-01
9.063462024e-01,8.41009e-01,9.95774e-01,8.44577e-01,9.99999e-01
9.108779334e-01,8.39381e-01,9.90536e-01,8.47400e-01,9.99999e-01
9.154323231e-01,8.48297e-01,9.97789e-01,8.50176e-01,9.99999e-01
9.200094847e-01,8.24258e-01,9.66411e-01,8.52906e-01,9.99999e-01
9.246095321e-01,8.16579e-01,9.54404e-01,8.55590e-01,9.99999e-01
9.292325798e-01,8.26989e-01,9.63597e-01,8.58230e-01,9.99999e-01
9.338787427e-01,8.30864e-01,9.65193e-01,8.60826e-01,9.99999e-01
9.385481364e-01,8.41239e-01,9.74357e-01,8.63378e-01,9.99999e-01
9.432408771e-01,8.52276e-01,9.84280e-01,8.65887e-01,9.99999e-01
9.479570815e-01,8.61315e-01,9.91894e-01,8.68353e-01,9.99999e-01
9.526968669e-01,8.67373e-01,9.96089e-01,8.70778e-01,9.99999e-01
9.574603512e-01,8.71701e-01,9.98327e-01,8.73161e-01,9.99999e-01
9.622476530e-01,8.75047e-01,9.99478e-01,8.75503e-01,9.99999e-01
9.670588912e-01,8.77669e-01,9.99843e-01,8.77805e-01,9.99999e-01
9.718941857e-01,8.80059e-01,9.99988e-01,8.80068e-01,9.99999e-01
9.767536566e-01,8.82292e-01,9.99999e-01,8.82292e-01,9.99999e-01
9.816374249e-01,8.84477e-01,9.99999e-01,8.84477e-01,9.99999e-01
9.865456120e-01,8.86624e-01,9.99999e-01,8.86624e-01,9.99999e-01
9.914783401e-01,8.88734e-01,9.99999e-01,8.88734e-01,9.99999e-01
9.964357318e-01,8.90807e-01,9.99999e-01,8.90807e-01,9.99999e-01
1.001417910e+00,8.92844e-01,9.99999e-01,8.92844e-01,9.99999e-01
1.006425000e+00,8.94845e-01,9.99999e-01,8.94845e-01,9.99999e-01
1.011457125e+00,8.96811e-01,9.99999e-01,8.96811e-01,9.99999e-01
1.016514411e+00,8.98742e-01,9.99999e-01,8.98742e-01,9.99999e-01
1.021596983e+00,9.00618e-01,9.99975e-01,9.00640e-01,9.99999e-01
1.026704968e+00,9.01017e-01,9.98352e-01,9.02503e-01,9.99999e-01
1.031838492e+00,8.80555e-01,9.73705e-01,9.04334e-01,9.99999e-01
1.036997685e+00,2.84339e-01,3.13794e-01,9.06132e-01,9.99999e-01
1.042182673e+00,3.48405e-01,3.83748e-01,9.07898e-01,9.99999e-01
1.047393587e+00,3.14445e-01,3.45684e-01,9.09632e-01,9.99999e-01
1.052630555e+00,5.75837e-02,6.31860e-02,9.11336e-01,9.99999e-01
1.057893707e+00,1.04891e-01,1.14885e-01,9.13008e-01,9.99999e-01
1.063183176e+00,1.91228e-01,2.09072e-01,9.14651e-01,9.99999e-01
1.068499092e+00,3.23375e-01,3.52928e-01,9.16264e-01,9.99999e-01
1.073841587e+00,4.76950e-01,5.19639e-01,9.17848e-01,9.99999e-01
1.079210795e+00,6.08480e-01,6.61820e-01,9.19404e-01,9.99999e-01
1.084606849e+00,7.35552e-01,7.98704e-01,9.20931e-01,9.99999e-01
1.090029883e+00,8.21061e-01,8.90105e-01,9.22431e-01,9.99999e-01
1.095480033e+00,8.72515e-01,9.44379e-01,9.23903e-01,9.99999e-01
1.100957433e+00,9.00215e-01,9.72838e-01,9.25348e-01,9.99999e-01
1.106462220e+00,9.16293e-01,9.88697e-01,9.26768e-01,9.99999e-01
1.111994531e+00,9.24260e-01,9.95797e-01,9.28161e-01,9.99999e-01
1.117554504e+00,9.28578e-01,9.98976e-01,9.29529e-01,9.99999e-01
1.123142276e+00,9.30809e-01,9.99932e-01,9.30871e-01,9.99999e-01
1.128757988e+00,9.32189e-01,9.99999e-01,9.32189e-01,9.99999e-01
1.134401778e+00,9.33483e-01,9.99999e-01,9.33483e-01,9.99999e-01
1.140073787e+00,9.34753e-01,9.99999e-01,9.34753e-01,9.99999e-01
1.145774156e+00,9.36000e-01,9.99999e-01,9.36000e-01,9.99999e-01
1.151503026e+00,9.37223e-01,9.99999e-01,9.37223e-01,9.99999e-01
1.157260541e+00,9.38424e-01,9.99999e-01,9.38424e-01,9.99999e-01
1.163046844e+00,9.39603e-01,9.99999e-01,9.39603e-01,9.99999e-01
1.168862078e+00,9.40760e-01,9.99999e-01,9.40760e-01,9.99999e-01
1.174706389e+00,9.41895e-01,9.99999e-01,9.41895e-01,9.99999e-01
1.180579921e+00,9.43010e-01,9.99999e-01,9.43010e-01,9.99999e-01
1.186482820e+00,9.44100e-01,9.99995e-01,9.44103e-01,9.99999e-01
1.192415234e+00,9.39557e-01,9.94053e-01,9.45177e-01,9.99999e-01
1.198377311e+00,5.58546e-01,5.90285e-01,9.46230e-01,9.99999e-01
1.204369197e+00,4.15182e-06,4.38295e-06,9.47263e-01,9.99999e-01
1.210391043e+00,7.69326e-19,8.11287e-19,9.48278e-01,9.99999e-01
1.216442998e+00,1.48616e-16,1.56557e-16,9.49273e-01,9.99999e-01
1.222525213e+00,2.62490e-16,2.76232e-16,9.50250e-01,9.99999e-01
1.228637839e+00,1.60850e-12,1.69101e-12,9.51208e-01,9.99999e-01
1.234781029e+00,8.20094e-09,8.61309e-09,9.52148e-01,9.99999e-01
1.240954934e+00,5.65564e-06,5.93412e-06,9.53071e-01,9.99999e-01
1.247159708e+00,1.10662e-03,1.16001e-03,9.53976e-01,9.99999e-01
1.253395507e+00,2.37360e-02,2.48580e-02,9.54864e-01,9.99999e-01
1.259662485e+00,1.17957e-01,1.23420e-01,9.55736e-01,9.99999e-01
1.265960797e+00,2.85152e-01,2.98092e-01,9.56591e-01,9.99999e-01
1.272290601e+00,5.83623e-01,6.09572e-01,9.57430e-01,9.99999e-01
1.278652054e+00,5.18039e-01,5.40608e-01,9.58253e-01,9.99999e-01
1.285045314e+00,3.70003e-02,3.85797e-02,9.59060e-01,9.99999e-01
1.291470541e+00,6.91148e-03,7.20055e-03,9.59852e-01,9.99999e-01
1.297927893e+00,8.52438e-02,8.87373e-02,9.60630e-01,9.99999e-01
1.304417533e+00,3.91967e-01,4.07707e-01,9.61392e-01,9.99999e-01
1.310939621e+00,7.68963e-02,7.99220e-02,9.62140e-01,9.99999e-01
1.317494319e+00,6.55889e-07,6.81178e-07,9.62874e-01,9.99999e-01
1.324081790e+00,3.68645e-05,3.82573e-05,9.63594e-01,9.99999e-01
1.330702199e+00,4.61343e-03,4.78422e-03,9.64300e-01,9.99999e-01
1.337355710e+00,3.20111e-03,3.31724e-03,9.64992e-01,9.99999e-01
1.344042489e+00,1.16114e-03,1.20242e-03,9.65672e-01,9.99999e-01
1.350762701e+00,3.69896e-03,3.82781e-03,9.66338e-01,9.99999e-01
1.357516515e+00,2.45963e-02,2.54358e-02,9.66992e-01,9.99999e-01
1.364304097e+00,9.95746e-02,1.02905e-01,9.67633e-01,9.99999e-01
1.371125618e+00,2.90863e-01,3.00396e-01,9.68262e-01,9.99999e-01
1.377981246e+00,3.71390e-01,3.83319e-01,9.68879e-01,9.99999e-01
1.384871152e+00,5.55025e-01,5.72494e-01,9.69485e-01,9.99999e-01
1.391795508e+00,5.79662e-01,5.97541e-01,9.70078e-01,9.99999e-01
1.398754485e+00,7.07406e-01,7.28787e-01,9.70661e-01,9.99999e-01
1.405748258e+00,7.69034e-01,7.91812e-01,9.71232e-01,9.99999e-01
1.412776999e+00,8.38904e-01,8.63254e-01,9.71792e-01,9.99999e-01
1.419840884e+00,7.79829e-01,8.02011e-01,9.72341e-01,9.99999e-01
1.426940089e+00,1.08666e-01,1.11696e-01,9.72880e-01,9.99999e-01
1.434074789e+00,7.48143e-262,7.68580e-262,9.73408e-01,9.99999e-01
1.441245163e+00,0.00000e+00,0.00000e+00,9.73927e-01,9.99999e-01
1.448451389e+00,1.92337e-317,1.97383e-317,9.74435e-01,9.99999e-01
1.455693646e+00,2.88229e-142,2.95639e-142,9.74934e-01,9.99999e-01
1.462972114e+00,1.36052e-69,1.39480e-69,9.75423e-01,9.99999e-01
1.470286975e+00,5.92544e-30,6.07175e-30,9.75902e-01,9.99999e-01
1.477638409e+00,1.78631e-19,1.82954e-19,9.76373e-01,9.99999e-01
1.485026601e+00,1.86150e-11,1.90564e-11,9.76834e-01,9.99999e-01
1.492451734e+00,9.19675e-10,9.41049e-10,9.77286e-01,9.99999e-01
1.499913993e+00,3.59461e-05,3.67648e-05,9.77730e-01,9.99999e-01
1.507413563e+00,4.07115e-04,4.16202e-04,9.78165e-01,9.99999e-01
1.514950631e+00,1.82691e-05,1.86688e-05,9.78591e-01,9.99999e-01
1.522525384e+00,2.14715e-14,2.19318e-14,9.79010e-01,9.99999e-01
1.530138011e+00,1.07600e-31,1.09861e-31,9.79420e-01,9.99999e-01
1.537788701e+00,6.76986e-24,6.90927e-24,9.79822e-01,9.99999e-01
1.545477645e+00,1.65086e-06,1.68417e-06,9.80217e-01,9.99999e-01
1.553205033e+00,3.28086e-04,3.34575e-04,9.80604e-01,9.99999e-01
1.560971058e+00,8.05767e-05,8.21386e-05,9.80983e-01,9.99999e-01
1.568775913e+00,6.63902e-78,6.76514e-78,9.81355e-01,9.99999e-01
1.576619793e+00,1.03054e-180,1.04973e-180,9.81720e-01,9.99999e-01
1.584502892e+00,3.50213e-99,3.56604e-99,9.82078e-01,9.99999e-01
1.592425406e+00,1.97866e-69,2.01405e-69,9.82429e-01,9.99999e-01
1.600387533e+00,3.35323e-111,3.41201e-111,9.82773e-01,9.99999e-01
1.608389471e+00,6.17028e-186,6.27628e-186,9.83110e-01,9.99999e-01
1.616431418e+00,4.22499e-187,4.29612e-187,9.83441e-01,9.99999e-01
1.624513575e+00,5.43942e-88,5.52918e-88,9.83766e-01,9.99999e-01
1.632636143e+00,9.80388e-66,9.96244e-66,9.84084e-01,9.99999e-01
1.640799324e+00,6.85875e-28,6.96747e-28,9.84396e-01,9.99999e-01
1.649003321e+00,8.48645e-28,8.61829e-28,9.84701e-01,9.99999e-01
1.657248337e+00,8.82514e-22,8.95952e-22,9.85001e-01,9.99999e-01
1.665534579e+00,6.03160e-22,6.12161e-22,9.85295e-01,9.99999e-01
1.673862252e+00,1.73301e-14,1.75836e-14,9.85584e-01,9.99999e-01
1.682231563e+00,1.72494e-10,1.74967e-10,9.85866e-01,9.99999e-01
1.690642721e+00,1.61014e-06,1.63276e-06,9.86144e-01,9.99999e-01
1.699095934e+00,2.79343e-04,2.83190e-04,9.86415e-01,9.99999e-01
1.707591414e+00,1.26504e-02,1.28211e-02,9.86682e-01,9.99999e-01
1.716129371e+00,9.31350e-02,9.43670e-02,9.86943e-01,9.99999e-01
1.724710018e+00,2.82299e-01,2.85959e-01,9.87199e-01,9.99999e-01
1.733333568e+00,4.42169e-01,4.47788e-01,9.87451e-01,9.99999e-01
1.742000236e+00,5.94186e-01,6.01586e-01,9.87697e-01,9.99999e-01
1.750710237e+00,4.86390e-02,4.92328e-02,9.87939e-01,9.99999e-01
1.759463788e+00,8.57996e-14,8.68262e-14,9.88175e-01,9.99999e-01
1.768261107e+00,9.72257e-15,9.83659e-15,9.88408e-01,9.99999e-01
1.777102413e+00,1.17591e-13,1.18943e-13,9.88635e-01,9.99999e-01
1.785987925e+00,2.14910e-13,2.17331e-13,9.88858e-01,9.99999e-01
1.794917864e+00,1.69550e-12,1.71422e-12,9.89077e-01,9.99999e-01
1.803892454e+00,1.37022e-12,1.38505e-12,9.89292e-01,9.99999e-01
1.812911916e+00,7.53020e-12,7.61009e-12,9.89502e-01,9.99999e-01
1.821976476e+00,4.43237e-12,4.47845e-12,9.89708e-01,9.99999e-01
1.831086358e+00,5.49722e-10,5.55324e-10,9.89911e-01,9.99999e-01
1.840241790e+00,2.00220e-08,2.02219e-08,9.90109e-01,9.99999e-01
1.849442999e+00,5.36265e-06,5.41515e-06,9.90303e-01,9.99999e-01
1.858690214e+00,2.23421e-05,2.25565e-05,9.90494e-01,9.99999e-01
1.867983665e+00,3.50616e-06,3.53914e-06,9.90681e-01,9.99999e-01
1.877323583e+00,2.96207e-25,2.98938e-25,9.90864e-01,9.99999e-01
