#,Wave/freq,Total,CO2,Rayleigh,CIA
4.000000000e-01,1.14234e-04,9.99999e-01,1.14234e-04,9.99999e-01
4.020000000e-01,1.36692e-04,9.99999e-01,1.36692e-04,9.99999e-01
4.040100000e-01,1.62957e-04,9.99999e-01,1.62957e-04,9.99999e-01
4.060300500e-01,1.93594e-04,9.99999e-01,1.93594e-04,9.99999e-01
4.080602003e-01,2.29211e-04,9.99999e-01,2.29211e-04,9.99999e-01
4.101005013e-01,2.70477e-04,9.99999e-01,2.70477e-04,9.99999e-01
4.121510038e-01,3.18130e-04,9.99999e-01,3.18130e-04,9.99999e-01
4.142117588e-01,3.72981e-04,9.99999e-01,3.72981e-04,9.99999e-01
4.162828176e-01,4.35918e-04,9.99999e-01,4.35918e-04,9.99999e-01
4.183642317e-01,5.07907e-04,9.99999e-01,5.07907e-04,9.99999e-01
4.204560528e-01,5.90002e-04,9.99999e-01,5.90002e-04,9.99999e-01
4.225583331e-01,6.83340e-04,9.99999e-01,6.83340e-04,9.99999e-01
4.246711247e-01,7.89152e-04,9.99999e-01,7.89152e-04,9.99999e-01
4.267944804e-01,9.08761e-04,9.99999e-01,9.08761e-04,9.99999e-01
4.289284528e-01,1.04358e-03,9.99999e-01,1.04358e-03,9.99999e-01
4.310730950e-01,1.19514e-03,9.99999e-01,1.19514e-03,9.99999e-01
4.332284605e-01,1.36505e-03,9.99999e-01,1.36505e-03,9.99999e-01
4.353946028e-01,1.55502e-03,9.99999e-01,1.55502e-03,9.99999e-01
4.375715758e-01,1.76687e-03,9.99999e-01,1.76687e-03,9.99999e-01
4.397594337e-01,2.00253e-03,9.99999e-01,2.00253e-03,9.99999e-01
4.419582309e-01,2.26402e-03,9.99999e-01,2.26402e-03,9.99999e-01
4.441680220e-01,2.55345e-03,9.99999e-01,2.55345e-03,9.99999e-01
4.463888621e-01,2.87305e-03,9.99999e-01,2.87305e-03,9.99999e-01
4.486208064e-01,3.22513e-03,9.99999e-01,3.22513e-03,9.99999e-01
4.508639105e-01,3.61210e-03,9.99999e-01,3.61210e-03,9.99999e-01
4.531182300e-01,4.03646e-03,9.99999e-01,4.03646e-03,9.99999e-01
4.553838212e-01,4.50078e-03,9.99999e-01,4.50078e-03,9.99999e-01
4.576607403e-01,5.00773e-03,9.99999e-01,5.00773e-03,9.99999e-01
4.599490440e-01,5.56005e-03,9.99999e-01,5.56005e-03,9.99999e-01
4.622487892e-01,6.16055e-03,9.99999e-01,6.16055e-03,9.99999e-01
4.645600332e-01,6.81208e-03,9.99999e-01,6.81208e-03,9.99999e-01
4.668828333e-01,7.51758e-03,9.99999e-01,7.51758e-03,9.99999e-01
4.692172475e-01,8.28000e-03,9.99999e-01,8.28000e-03,9.99999e-01
4.715633337e-01,9.10237e-03,9.99999e-01,9.10237e-03,9.99999e-01
4.739211504e-01,9.98772e-03,9.99999e-01,9.98772e-03,9.99999e-01
4.762907561e-01,1.09391e-02,9.99999e-01,1.09391e-02,9.99999e-01
4.786722099e-01,1.19596e-02,9.99999e-01,1.19596e-02,9.99999e-01
4.810655710e-01,1.30523e-02,9.99999e-01,1.30523e-02,9.99999e-01
4.834708988e-01,1.42202e-02,9.99999e-01,1.42202e-02,9.99999e-01
4.858882533e-01,1.54665e-02,9.99999e-01,1.54665e-02,9.99999e-01
4.883176946e-01,1.67940e-02,9.99999e-01,1.67940e-02,9.99999e-01
4.907592831e-01,1.82059e-02,9.99999e-01,1.82059e-02,9.99999e-01
4.932130795e-01,1.97051e-02,9.99999e-01,1.97051e-02,9.99999e-01
4.956791449e-01,2.12943e-02,9.99999e-01,2.12943e-02,9.99999e-01
4.981575406e-01,2.29766e-02,9.99999e-01,2.29766e-02,9.99999e-01
5.006483283e-01,2.47545e-02,9.99999e-01,2.47545e-02,9.99999e-01
5.031515699e-01,2.66307e-02,9.99999e-01,2.66307e-02,9.99999e-01
5.056673278e-01,2.86079e-02,9.99999e-01,2.86079e-02,9.99999e-01
5.081956644e-01,3.06884e-02,9.99999e-01,3.06884e-02,9.99999e-01
5.107366428e-01,3.28746e-02,9.99999e-01,3.28746e-02,9.99999e-01
5.132903260e-01,3.51686e-02,9.99999e-01,3.51686e-02,9.99999e-01
5.158567776e-01,3.75727e-02,9.99999e-01,3.75727e-02,9.99999e-01
5.184360615e-01,4.00887e-02,9.99999e-01,4.00887e-02,9.99999e-01
5.210282418e-01,4.27185e-02,9.99999e-01,4.27185e-02,9.99999e-01
5.236333830e-01,4.54637e-02,9.99999e-01,4.54637e-02,9.99999e-01
5.262515499e-01,4.83258e-02,9.99999e-01,4.83258e-02,9.99999e-01
5.288828077e-01,5.13062e-02,9.99999e-01,5.13062e-02,9.99999e-01
5.315272217e-01,5.44061e-02,9.99999e-01,5.44061e-02,9.99999e-01
5.341848578e-01,5.76264e-02,9.99999e-01,5.76264e-02,9.99999e-01
5.368557821e-01,6.09680e-02,9.99999e-01,6.09680e-02,9.99999e-01
5.395400610e-01,6.44317e-02,9.99999e-01,6.44317e-02,9.99999e-01
5.422377613e-01,6.80178e-02,9.99999e-01,6.80178e-02,9.99999e-01
5.449489501e-01,7.17268e-02,9.99999e-01,7.17268e-02,9.99999e-01
5.476736949e-01,7.55587e-02,9.99999e-01,7.55587e-02,9.99999e-01
5.504120634e-01,7.95135e-02,9.99999e-01,7.95135e-02,9.99999e-01
5.531641237e-01,8.35911e-02,9.99999e-01,8.35911e-02,9.99999e-01
5.559299443e-01,8.77910e-02,9.99999e-01,8.77910e-02,9.99999e-01
5.587095940e-01,9.21127e-02,9.99999e-01,9.21127e-02,9.99999e-01
5.615031420e-01,9.65554e-02,9.99999e-01,9.65554e-02,9.99999e-01
5.643106577e-01,1.01118e-01,9.99999e-01,1.01118e-01,9.99999e-01
5.671322110e-01,1.05800e-01,9.99999e-01,1.05800e-01,9.99999e-01
5.699678720e-01,1.10600e-01,9.99999e-01,1.10600e-01,9.99999e-01
5.728177114e-01,1.15516e-01,9.99999e-01,1.15516e-01,9.99999e-01
5.756818000e-01,1.20548e-01,9.99999e-01,1.20548e-01,9.99999e-01
5.785602090e-01,1.25692e-01,9.99999e-01,1.25692e-01,9.99999e-01
5.814530100e-01,1.30948e-01,9.99999e-01,1.30948e-01,9.99999e-01
5.843602750e-01,1.36313e-01,9.99999e-01,1.36313e-01,9.99999e-01
5.872820764e-01,1.41786e-01,9.99999e-01,1.41786e-01,9.99999e-01
5.902184868e-01,1.47364e-01,9.99999e-01,1.47364e-01,9.99999e-01
5.931695792e-01,1.53044e-01,9.99999e-01,1.53044e-01,9.99999e-01
5.961354271e-01,1.58825e-01,9.99999e-01,1.58825e-01,9.99999e-01
5.991161043e-01,1.64704e-01,9.99999e-01,1.64704e-01,9.99999e-01
6.021116848e-01,1.70677e-01,9.99999e-01,1.70677e-01,9.99999e-01
6.051222432e-01,1.76743e-01,9.99999e-01,1.76743e-01,9.99999e-01
6.081478544e-01,1.82898e-01,9.99999e-01,1.82898e-01,9.99999e-01
6.111885937e-01,1.89139e-01,9.99999e-01,1.89139e-01,9.99999e-01
6.142445367e-01,1.95464e-01,9.99999e-01,1.95464e-01,9.99999e-01
6.173157594e-01,2.01869e-01,9.99999e-01,2.01869e-01,9.99999e-01
6.204023382e-01,2.08352e-01,9.99999e-01,2.08352e-01,9.99999e-01
6.235043498e-01,2.14908e-01,9.99999e-01,2.14908e-01,9.99999e-01
6.266218716e-01,2.21535e-01,9.99999e-01,2.21535e-01,9.99999e-01
6.297549810e-01,2.28229e-01,9.99999e-01,2.28229e-01,9.99999e-01
6.329037559e-01,2.34987e-01,9.99999e-01,2.34987e-01,9.99999e-01
6.360682746e-01,2.41807e-01,9.99999e-01,2.41807e-01,9.99999e-01
6.392486160e-01,2.48683e-01,9.99999e-01,2.48683e-01,9.99999e-01
6.424448591e-01,2.55613e-01,9.99999e-01,2.55613e-01,9.99999e-01
6.456570834e-01,2.62594e-01,9.99999e-01,2.62594e-01,9.99999e-01
6.488853688e-01,2.69622e-01,9.99999e-01,2.69622e-01,9.99999e-01
6.521297956e-01,2.76694e-01,9.99999e-01,2.76694e-01,9.99999e-01
6.553904446e-01,2.83806e-01,9.99999e-01,2.83806e-01,9.99999e-01
6.586673968e-01,2.90955e-01,9.99999e-01,2.90955e-01,9.99999e-01
6.619607338e-01,2.98138e-01,9.99999e-01,2.98138e-01,9.99999e-01
6.652705375e-01,3.05350e-01,9.99999e-01,3.05350e-01,9.99999e-01
6.685968902e-01,3.12590e-01,9.99999e-01,3.12590e-01,9.99999e-01
6.719398746e-01,3.19853e-01,9.99999e-01,3.19853e-01,9.99999e-01
6.752995740e-01,3.27136e-01,9.99999e-01,3.27136e-01,9.99999e-01
6.786760719e-01,3.34437e-01,9.99999e-01,3.34437e-01,9.99999e-01
6.820694522e-01,3.41751e-01,9.99999e-01,3.41751e-01,9.99999e-01
6.854797995e-01,3.49076e-01,9.99999e-01,3.49076e-01,9.99999e-01
6.889071985e-01,3.56409e-01,9.99999e-01,3.56409e-01,9.99999e-01
6.923517345e-01,3.63747e-01,9.99999e-01,3.63747e-01,9.99999e-01
6.958134932e-01,3.71086e-01,9.99999e-01,3.71086e-01,9.99999e-01
6.992925606e-01,3.78424e-01,9.99999e-01,3.78424e-01,9.99999e-01
7.027890234e-01,3.85757e-01,9.99999e-01,3.85757e-01,9.99999e-01
7.063029686e-01,3.93084e-01,9.99999e-01,3.93084e-01,9.99999e-01
7.098344834e-01,4.00401e-01,9.99999e-01,4.00401e-01,9.99999e-01
7.133836558e-01,4.07706e-01,9.99999e-01,4.07706e-01,9.99999e-01
7.169505741e-01,4.14996e-01,9.99999e-01,4.14996e-01,9.99999e-01
7.205353270e-01,4.22268e-01,9.99999e-01,4.22268e-01,9.99999e-01
7.241380036e-01,4.29520e-01,9.99999e-01,4.29520e-01,9.99999e-01
7.277586936e-01,4.36750e-01,9.99999e-01,4.36750e-01,9.99999e-01
7.313974871e-01,4.43956e-01,9.99999e-01,4.43956e-01,9.99999e-01
7.350544745e-01,4.51134e-01,9.99999e-01,4.51134e-01,9.99999e-01
7.387297469e-01,4.58283e-01,9.99999e-01,4.58283e-01,9.99999e-01
7.424233956e-01,4.65401e-01,9.99999e-01,4.65401e-01,9.99999e-01
7.461355126e-01,4.72485e-01,9.99999e-01,4.72485e-01,9.99999e-01
7.498661902e-01,4.79535e-01,9.99999e-01,4.79535e-01,9.99999e-01
7.536155211e-01,4.86547e-01,9.99999e-01,4.86547e-01,9.99999e-01
7.573835987e-01,4.93520e-01,9.99999e-01,4.93520e-01,9.99999e-01
7.611705167e-01,5.00452e-01,9.99999e-01,5.00452e-01,9.99999e-01
7.649763693e-01,5.07342e-01,9.99999e-01,5.07342e-01,9.99999e-01
7.688012511e-01,5.14188e-01,9.99999e-01,5.14188e-01,9.99999e-01
7.726452574e-01,5.20988e-01,9.99999e-01,5.20988e-01,9.99999e-01
7.765084837e-01,5.27742e-01,9.99999e-01,5.27742e-01,9.99999e-01
7.803910261e-01,5.18763e-01,9.70654e-01,5.34447e-01,9.99999e-01
7.842929812e-01,4.73597e-01,8.75245e-01,5.41102e-01,9.99999e-01
7.882144461e-01,4.75019e-01,8.67288e-01,5.47706e-01,9.99999e-01
7.921555184e-01,5.10263e-01,9.20624e-01,5.54257e-01,9.99999e-01
7.961162960e-01,5.30471e-01,9.45993e-01,5.60756e-01,9.99999e-01
8.000968774e-01,5.50403e-01,9.70385e-01,5.67200e-01,9.99999e-01
8.040973618e-01,5.64711e-01,9.84522e-01,5.73589e-01,9.99999e-01
8.081178486e-01,5.75793e-01,9.92881e-01,5.79921e-01,9.99999e-01
8.121584379e-01,5.84899e-01,9.97787e-01,5.86196e-01,9.99999e-01
8.162192301e-01,5.92123e-01,9.99510e-01,5.92413e-01,9.99999e-01
8.203003262e-01,5.98566e-01,9.99991e-01,5.98571e-01,9.99999e-01
8.244018279e-01,6.04670e-01,9.99999e-01,6.04670e-01,9.99999e-01
8.285238370e-01,6.10708e-01,9.99999e-01,6.10708e-01,9.99999e-01
8.326664562e-01,6.16686e-01,9.99999e-01,6.16686e-01,9.99999e-01
8.368297885e-01,6.22602e-01,9.99999e-01,6.22602e-01,9.99999e-01
8.410139374e-01,6.28457e-01,9.99999e-01,6.28457e-01,9.99999e-01
8.452190071e-01,6.34250e-01,9.99999e-01,6.34250e-01,9.99999e-01
8.494451021e-01,6.39979e-01,9.99999e-01,6.39979e-01,9.99999e-01
8.536923276e-01,6.45646e-01,9.99999e-01,6.45646e-01,9.99999e-01
8.579607893e-01,6.51250e-01,9.99999e-01,6.51250e-01,9.99999e-01
8.622505932e-01,6.56790e-01,9.99999e-01,6.56790e-01,9.99999e-01
8.665618462e-01,6.17470e-01,9.32358e-01,6.62267e-01,9.99999e-01
8.708946554e-01,4.75802e-01,7.12619e-01,6.67679e-01,9.99999e-01
8.752491287e-01,5.12399e-01,7.61333e-01,6.73028e-01,9.99999e-01
8.796253743e-01,5.84115e-01,8.61128e-01,6.78313e-01,9.99999e-01
8.840235012e-01,6.32617e-01,9.25510e-01,6.83533e-01,9.99999e-01
8.884436187e-01,6.67973e-01,9.69918e-01,6.88690e-01,9.99999e-01
8.928858368e-01,6.85265e-01,9.87723e-01,6.93782e-01,9.99999e-01
8.973502660e-01,6.96712e-01,9.96996e-01,6.98810e-01,9.99999e-01
9.018370173e-01,7.03541e-01,9.99668e-01,7.03774e-01,9.99999e-01
9.063462024e-01,7.02748e-01,9.91636e-01,7.08675e-01,9.99999e-01
9.108779334e-01,6.99750e-01,9.80712e-01,7.13512e-01,9.99999e-01
9.154323231e-01,7.14996e-01,9.95420e-01,7.18285e-01,9.99999e-01
9.200094847e-01,6.76478e-01,9.35660e-01,7.22995e-01,9.99999e-01
9.246095321e-01,6.61481e-01,9.09074e-01,7.27642e-01,9.99999e-01
9.292325798e-01,6.79703e-01,9.28268e-01,7.32226e-01,9.99999e-01
9.338787427e-01,6.85407e-01,9.30314e-01,7.36748e-01,9.99999e-01
9.385481364e-01,7.02920e-01,9.48345e-01,7.41207e-01,9.99999e-01
9.432408771e-01,7.21762e-01,9.68022e-01,7.45604e-01,9.99999e-01
9.479570815e-01,7.37558e-01,9.83487e-01,7.49940e-01,9.99999e-01
9.526968669e-01,7.48180e-01,9.91998e-01,7.54215e-01,9.99999e-01
9.574603512e-01,7.55828e-01,9.96570e-01,7.58429e-01,9.99999e-01
9.622476530e-01,7.61766e-01,9.98928e-01,7.62583e-01,9.99999e-01
9.670588912e-01,7.66430e-01,9.99678e-01,7.66676e-01,9.99999e-01
9.718941857e-01,7.70693e-01,9.99976e-01,7.70711e-01,9.99999e-01
9.767536566e-01,7.74686e-01,9.99999e-01,7.74686e-01,9.99999e-01
9.816374249e-01,7.78602e-01,9.99999e-01,7.78602e-01,9.99999e-01
9.865456120e-01,7.82460e-01,9.99999e-01,7.82460e-01,9.99999e-01
9.914783401e-01,7.86261e-01,9.99999e-01,7.86261e-01,9.99999e-01
9.964357318e-01,7.90004e-01,9.99999e-01,7.90004e-01,9.99999e-01
1.001417910e+00,7.93691e-01,9.99999e-01,7.93691e-01,9.99999e-01
1.006425000e+00,7.97322e-01,9.99999e-01,7.97322e-01,9.99999e-01
1.011457125e+00,8.00897e-01,9.99999e-01,8.00897e-01,9.99999e-01
1.016514411e+00,8.04417e-01,9.99999e-01,8.04417e-01,9.99999e-01
1.021596983e+00,8.07848e-01,9.99957e-01,8.07883e-01,9.99999e-01
1.026704968e+00,8.08651e-01,9.96741e-01,8.11294e-01,9.99999e-01
1.031838492e+00,7.82881e-01,9.61000e-01,8.14652e-01,9.99999e-01
1.036997685e+00,1.41591e-01,1.73104e-01,8.17958e-01,9.99999e-01
1.042182673e+00,1.25153e-01,1.52400e-01,8.21211e-01,9.99999e-01
1.047393587e+00,1.40873e-01,1.70877e-01,8.24412e-01,9.99999e-01
1.052630555e+00,5.73547e-03,6.93055e-03,8.27562e-01,9.99999e-01
1.057893707e+00,1.36414e-02,1.64223e-02,8.30662e-01,9.99999e-01
1.063183176e+00,4.06934e-02,4.88099e-02,8.33712e-01,9.99999e-01
1.068499092e+00,1.04509e-01,1.24904e-01,8.36712e-01,9.99999e-01
1.073841587e+00,2.25273e-01,2.68289e-01,8.39663e-01,9.99999e-01
1.079210795e+00,3.66457e-01,4.34928e-01,8.42567e-01,9.99999e-01
1.084606849e+00,5.34894e-01,6.32694e-01,8.45423e-01,9.99999e-01
1.090029883e+00,6.68990e-01,7.88687e-01,8.48231e-01,9.99999e-01
1.095480033e+00,7.57020e-01,8.89571e-01,8.50994e-01,9.99999e-01
1.100957433e+00,8.06939e-01,9.45214e-01,8.53710e-01,9.99999e-01
1.106462220e+00,8.36651e-01,9.76960e-01,8.56381e-01,9.99999e-01
1.111994531e+00,8.51620e-01,9.91399e-01,8.59008e-01,9.99999e-01
1.117554504e+00,8.59772e-01,9.97889e-01,8.61591e-01,9.99999e-01
1.123142276e+00,8.64010e-01,9.99860e-01,8.64130e-01,9.99999e-01
1.128757988e+00,8.66626e-01,9.99999e-01,8.66626e-01,9.99999e-01
1.134401778e+00,8.69080e-01,9.99999e-01,8.69080e-01,9.99999e-01
1.140073787e+00,8.71492e-01,9.99999e-01,8.71492e-01,9.99999e-01
1.145774156e+00,8.73863e-01,9.99999e-01,8.73863e-01,9.99999e-01
1.151503026e+00,8.76193e-01,9.99999e-01,8.76193e-01,9.99999e-01
1.157260541e+00,8.78484e-01,9.99999e-01,8.78484e-01,9.99999e-01
1.163046844e+00,8.80735e-01,9.99999e-01,8.80735e-01,9.99999e-01
1.168862078e+00,8.82947e-01,9.99999e-01,8.82947e-01,9.99999e-01
1.174706389e+00,8.85120e-01,9.99999e-01,8.85120e-01,9.99999e-01
1.180579921e+00,8.87257e-01,9.99999e-01,8.87257e-01,9.99999e-01
1.186482820e+00,8.89351e-01,9.99994e-01,8.89355e-01,9.99999e-01
1.192415234e+00,8.81091e-01,9.88414e-01,8.91418e-01,9.99999e-01
1.198377311e+00,5.05181e-01,5.65430e-01,8.93444e-01,9.99999e-01
1.204369197e+00,4.03782e-10,4.50934e-10,8.95434e-01,9.99999e-01
1.210391043e+00,4.60047e-36,5.12649e-36,8.97390e-01,9.99999e-01
1.216442998e+00,2.00291e-31,2.22716e-31,8.99311e-01,9.99999e-01
1.222525213e+00,5.62536e-31,6.24208e-31,9.01198e-01,9.99999e-01
1.228637839e+00,5.55521e-24,6.15158e-24,9.03052e-01,9.99999e-01
1.234781029e+00,1.05330e-15,1.16403e-15,9.04873e-01,9.99999e-01
1.240954934e+00,1.23057e-10,1.35726e-10,9.06661e-01,9.99999e-01
1.247159708e+00,4.75381e-06,5.23306e-06,9.08418e-01,9.99999e-01
1.253395507e+00,7.09044e-04,7.79046e-04,9.10143e-01,9.99999e-01
1.259662485e+00,1.51125e-02,1.65737e-02,9.11837e-01,9.99999e-01
1.265960797e+00,8.45796e-02,9.25884e-02,9.13501e-01,9.99999e-01
1.272290601e+00,3.11606e-01,3.40502e-01,9.15135e-01,9.99999e-01
1.278652054e+00,2.91132e-01,3.17573e-01,9.16739e-01,9.99999e-01
1.285045314e+00,9.86423e-03,1.07417e-02,9.18315e-01,9.99999e-01
1.291470541e+00,6.29570e-05,6.84417e-05,9.19862e-01,9.99999e-01
1.297927893e+00,7.15266e-03,7.76297e-03,9.21381e-01,9.99999e-01
1.304417533e+00,1.50131e-01,1.62678e-01,9.22872e-01,9.99999e-01
1.310939621e+00,3.78398e-02,4.09372e-02,9.24336e-01,9.99999e-01
1.317494319e+00,7.14767e-13,7.72074e-13,9.25774e-01,9.99999e-01
1.324081790e+00,5.10138e-09,5.50200e-09,9.27185e-01,9.99999e-01
1.330702199e+00,2.49799e-05,2.69014e-05,9.28571e-01,9.99999e-01
1.337355710e+00,2.75918e-05,2.96708e-05,9.29931e-01,9.99999e-01
1.344042489e+00,8.29844e-06,8.91091e-06,9.31266e-01,9.99999e-01
1.350762701e+00,1.60056e-05,1.71627e-05,9.32577e-01,9.99999e-01
1.357516515e+00,7.87491e-04,8.43260e-04,9.33864e-01,9.99999e-01
1.364304097e+00,9.72652e-03,1.04013e-02,9.35127e-01,9.99999e-01
1.371125618e+00,8.58664e-02,9.17016e-02,9.36367e-01,9.99999e-01
1.377981246e+00,1.33739e-01,1.42642e-01,9.37583e-01,9.99999e-01
1.384871152e+00,3.02179e-01,3.21885e-01,9.38778e-01,9.99999e-01
1.391795508e+00,3.29686e-01,3.50748e-01,9.39950e-01,9.99999e-01
1.398754485e+00,4.93269e-01,5.24140e-01,9.41100e-01,9.99999e-01
1.405748258e+00,5.85318e-01,6.21205e-01,9.42230e-01,9.99999e-01
1.412776999e+00,6.98347e-01,7.40293e-01,9.43338e-01,9.99999e-01
1.419840884e+00,6.33346e-01,6.70614e-01,9.44425e-01,9.99999e-01
1.426940089e+00,6.39468e-02,6.76333e-02,9.45492e-01,9.99999e-01
1.434074789e+00,0.00000e+00,0.00000e+00,9.46540e-01,9.99999e-01
1.441245163e+00,0.00000e+00,0.00000e+00,9.47568e-01,9.99999e-01
1.448451389e+00,0.00000e+00,0.00000e+00,9.48576e-01,9.99999e-01
1.455693646e+00,1.28134e-287,1.34940e-287,9.49566e-01,9.99999e-01
1.462972114e+00,1.67546e-139,1.76265e-139,9.50537e-01,9.99999e-01
1.470286975e+00,1.00117e-58,1.05221e-58,9.51490e-01,9.99999e-01
1.477638409e+00,1.96601e-37,2.06421e-37,9.52425e-01,9.99999e-01
1.485026601e+00,2.03069e-21,2.13007e-21,9.53342e-01,9.99999e-01
1.492451734e+00,3.01005e-18,3.15438e-18,9.54242e-01,9.99999e-01
1.499913993e+00,1.00079e-08,1.04781e-08,9.55126e-01,9.99999e-01
1.507413563e+00,1.55265e-07,1.62412e-07,9.55992e-01,9.99999e-01
1.514950631e+00,6.26812e-09,6.55083e-09,9.56842e-01,9.99999e-01
1.522525384e+00,5.10760e-27,5.33332e-27,9.57677e-01,9.99999e-01
1.530138011e+00,1.52152e-62,1.58740e-62,9.58495e-01,9.99999e-01
1.537788701e+00,1.24451e-46,1.29731e-46,9.59298e-01,9.99999e-01
1.545477645e+00,5.83870e-11,6.08143e-11,9.60086e-01,9.99999e-01
1.553205033e+00,1.23145e-07,1.28162e-07,9.60858e-01,9.99999e-01
1.560971058e+00,3.55628e-08,3.69822e-08,9.61616e-01,9.99999e-01
1.568775913e+00,1.92527e-156,2.00057e-156,9.62360e-01,9.99999e-01
1.576619793e+00,0.00000e+00,0.00000e+00,9.63090e-01,9.99999e-01
1.584502892e+00,8.27507e-200,8.58582e-200,9.63805e-01,9.99999e-01
1.592425406e+00,1.60599e-139,1.66509e-139,9.64507e-01,9.99999e-01
1.600387533e+00,2.64220e-224,2.73748e-224,9.65196e-01,9.99999e-01
1.608389471e+00,0.00000e+00,0.00000e+00,9.65872e-01,9.99999e-01
1.616431418e+00,0.00000e+00,0.00000e+00,9.66534e-01,9.99999e-01
1.624513575e+00,5.33303e-177,5.51397e-177,9.67184e-01,9.99999e-01
1.632636143e+00,1.01314e-131,1.04682e-131,9.67822e-01,9.99999e-01
1.640799324e+00,1.64848e-54,1.70218e-54,9.68447e-01,9.99999e-01
1.649003321e+00,1.69420e-54,1.74829e-54,9.69061e-01,9.99999e-01
1.657248337e+00,2.10594e-42,2.17183e-42,9.69663e-01,9.99999e-01
1.665534579e+00,1.11560e-42,1.14980e-42,9.70253e-01,9.99999e-01
1.673862252e+00,1.13508e-27,1.16918e-27,9.70832e-01,9.99999e-01
1.682231563e+00,1.46380e-19,1.50690e-19,9.71400e-01,9.99999e-01
1.690642721e+00,1.71550e-11,1.76499e-11,9.71957e-01,9.99999e-01
1.699095934e+00,1.74425e-07,1.79356e-07,9.72503e-01,9.99999e-01
1.707591414e+00,2.46035e-04,2.52852e-04,9.73038e-01,9.99999e-01
1.716129371e+00,9.70744e-03,9.97103e-03,9.73564e-01,9.99999e-01
1.724710018e+00,7.87341e-02,8.08292e-02,9.74079e-01,9.99999e-01
1.733333568e+00,1.91853e-01,1.96856e-01,9.74585e-01,9.99999e-01
1.742000236e+00,3.65858e-01,3.75208e-01,9.75080e-01,9.99999e-01
1.750710237e+00,1.22296e-02,1.25359e-02,9.75566e-01,9.99999e-01
1.759463788e+00,2.18563e-26,2.23928e-26,9.76043e-01,9.99999e-01
1.768261107e+00,1.00191e-27,1.02601e-27,9.76511e-01,9.99999e-01
1.777102413e+00,1.35012e-26,1.38195e-26,9.76969e-01,9.99999e-01
1.785987925e+00,2.35624e-25,2.41068e-25,9.77419e-01,9.99999e-01
1.794917864e+00,3.99937e-24,4.08992e-24,9.77860e-01,9.99999e-01
1.803892454e+00,1.91985e-23,1.96245e-23,9.78293e-01,9.99999e-01
1.812911916e+00,2.05544e-22,2.10014e-22,9.78717e-01,9.99999e-01
1.821976476e+00,1.39492e-22,1.42464e-22,9.79133e-01,9.99999e-01
1.831086358e+00,2.10349e-18,2.14742e-18,9.79541e-01,9.99999e-01
1.840241790e+00,1.20693e-15,1.23164e-15,9.79941e-01,9.99999e-01
1.849442999e+00,5.55441e-11,5.66583e-11,9.80333e-01,9.99999e-01
1.858690214e+00,4.00505e-10,4.08379e-10,9.80718e-01,9.99999e-01
1.867983665e+00,6.66920e-11,6.79771e-11,9.81095e-01,9.99999e-01
1.877323583e+00,1.83778e-49,1.87248e-49,9.81465e-01,9.99999e-01
