#,Wave/freq,Total,CO2,Rayleigh,CIA
4.000000000e-01,9.28446e-03,9.99999e-01,9.28446e-03,9.99999e-01
4.020000000e-01,1.01845e-02,9.99999e-01,1.01845e-02,9.99999e-01
4.040100000e-01,1.11504e-02,9.99999e-01,1.11504e-02,9.99999e-01
4.060300500e-01,1.21860e-02,9.99999e-01,1.21860e-02,9.99999e-01
4.080602003e-01,1.32944e-02,9.99999e-01,1.32944e-02,9.99999e-01
4.101005013e-01,1.44787e-02,9.99999e-01,1.44787e-02,9.99999e-01
4.121510038e-01,1.57420e-02,9.99999e-01,1.57420e-02,9.99999e-01
4.142117588e-01,1.70873e-02,9.99999e-01,1.70873e-02,9.99999e-01
4.162828176e-01,1.85175e-02,9.99999e-01,1.85175e-02,9.99999e-01
4.183642317e-01,2.00356e-02,9.99999e-01,2.00356e-02,9.99999e-01
4.204560528e-01,2.16444e-02,9.99999e-01,2.16444e-02,9.99999e-01
4.225583331e-01,2.33468e-02,9.99999e-01,2.33468e-02,9.99999e-01
4.246711247e-01,2.51454e-02,9.99999e-01,2.51454e-02,9.99999e-01
4.267944804e-01,2.70429e-02,9.99999e-01,2.70429e-02,9.99999e-01
4.289284528e-01,2.90418e-02,9.99999e-01,2.90418e-02,9.99999e-01
4.310730950e-01,3.11446e-02,9.99999e-01,3.11446e-02,9.99999e-01
4.332284605e-01,3.33536e-02,9.99999e-01,3.33536e-02,9.99999e-01
4.353946028e-01,3.56709e-02,9.99999e-01,3.56709e-02,9.99999e-01
4.375715758e-01,3.80986e-02,9.99999e-01,3.80986e-02,9.99999e-01
4.397594337e-01,4.06387e-02,9.99999e-01,4.06387e-02,9.99999e-01
4.419582309e-01,4.32929e-02,9.99999e-01,4.32929e-02,9.99999e-01
4.441680220e-01,4.60629e-02,9.99999e-01,4.60629e-02,9.99999e-01
4.463888621e-01,4.89500e-02,9.99999e-01,4.89500e-02,9.99999e-01
4.486208064e-01,5.19558e-02,9.99999e-01,5.19558e-02,9.99999e-01
4.508639105e-01,5.50812e-02,9.99999e-01,5.50812e-02,9.99999e-01
4.531182300e-01,5.83272e-02,9.99999e-01,5.83272e-02,9.99999e-01
4.553838212e-01,6.16948e-02,9.99999e-01,6.16948e-02,9.99999e-01
4.576607403e-01,6.51845e-02,9.99999e-01,6.51845e-02,9.99999e-01
4.599490440e-01,6.87967e-02,9.99999e-01,6.87967e-02,9.99999e-01
4.622487892e-01,7.25318e-02,9.99999e-01,7.25318e-02,9.99999e-01
4.645600332e-01,7.63899e-02,9.99999e-01,7.63899e-02,9.99999e-01
4.668828333e-01,8.03709e-02,9.99999e-01,8.03709e-02,9.99999e-01
4.692172475e-01,8.44745e-02,9.99999e-01,8.44745e-02,9.99999e-01
4.715633337e-01,8.87004e-02,9.99999e-01,8.87004e-02,9.99999e-01
4.739211504e-01,9.30479e-02,9.99999e-01,9.30479e-02,9.99999e-01
4.762907561e-01,9.75163e-02,9.99999e-01,9.75163e-02,9.99999e-01
4.786722099e-01,1.02105e-01,9.99999e-01,1.02105e-01,9.99999e-01
4.810655710e-01,1.06812e-01,9.99999e-01,1.06812e-01,9.99999e-01
4.834708988e-01,1.11637e-01,9.99999e-01,1.11637e-01,9.99999e-01
4.858882533e-01,1.16577e-01,9.99999e-01,1.16577e-01,9.99999e-01
4.883176946e-01,1.21633e-01,9.99999e-01,1.21633e-01,9.99999e-01
4.907592831e-01,1.26801e-01,9.99999e-01,1.26801e-01,9.99999e-01
4.932130795e-01,1.32081e-01,9.99999e-01,1.32081e-01,9.99999e-01
4.956791449e-01,1.37469e-01,9.99999e-01,1.37469e-01,9.99999e-01
4.981575406e-01,1.42964e-01,9.99999e-01,1.42964e-01,9.99999e-01
5.006483283e-01,1.48564e-01,9.99999e-01,1.48564e-01,9.99999e-01
5.031515699e-01,1.54266e-01,9.99999e-01,1.54266e-01,9.99999e-01
5.056673278e-01,1.60068e-01,9.99999e-01,1.60068e-01,9.99999e-01
5.081956644e-01,1.65967e-01,9.99999e-01,1.65967e-01,9.99999e-01
5.107366428e-01,1.71960e-01,9.99999e-01,1.71960e-01,9.99999e-01
5.132903260e-01,1.78045e-01,9.99999e-01,1.78045e-01,9.99999e-01
5.158567776e-01,1.84219e-01,9.99999e-01,1.84219e-01,9.99999e-01
5.184360615e-01,1.90478e-01,9.99999e-01,1.90478e-01,9.99999e-01
5.210282418e-01,1.96820e-01,9.99999e-01,1.96820e-01,9.99999e-01
5.236333830e-01,2.03242e-01,9.99999e-01,2.03242e-01,9.99999e-01
5.262515499e-01,2.09741e-01,9.99999e-01,2.09741e-01,9.99999e-01
5.288828077e-01,2.16312e-01,9.99999e-01,2.16312e-01,9.99999e-01
5.315272217e-01,2.22954e-01,9.99999e-01,2.22954e-01,9.99999e-01
5.341848578e-01,2.29662e-01,9.99999e-01,2.29662e-01,9.99999e-01
5.368557821e-01,2.36433e-01,9.99999e-01,2.36433e-01,9.99999e-01
5.395400610e-01,2.43265e-01,9.99999e-01,2.43265e-01,9.99999e-01
5.422377613e-01,2.50153e-01,9.99999e-01,2.50153e-01,9.99999e-01
5.449489501e-01,2.57095e-01,9.99999e-01,2.57095e-01,9.99999e-01
5.476736949e-01,2.64086e-01,9.99999e-01,2.64086e-01,9.99999e-01
5.504120634e-01,2.71124e-01,9.99999e-01,2.71124e-01,9.99999e-01
5.531641237e-01,2.78204e-01,9.99999e-01,2.78204e-01,9.99999e-01
5.559299443e-01,2.85324e-01,9.99999e-01,2.85324e-01,9.99999e-01
5.587095940e-01,2.92481e-01,9.99999e-01,2.92481e-01,9.99999e-01
5.615031420e-01,2.99670e-01,9.99999e-01,2.99670e-01,9.99999e-01
5.643106577e-01,3.06889e-01,9.99999e-01,3.06889e-01,9.99999e-01
5.671322110e-01,3.14133e-01,9.99999e-01,3.14133e-01,9.99999e-01
5.699678720e-01,3.21401e-01,9.99999e-01,3.21401e-01,9.99999e-01
5.728177114e-01,3.28688e-01,9.99999e-01,3.28688e-01,9.99999e-01
5.756818000e-01,3.35992e-01,9.99999e-01,3.35992e-01,9.99999e-01
5.785602090e-01,3.43309e-01,9.99999e-01,3.43309e-01,9.99999e-01
5.814530100e-01,3.50636e-01,9.99999e-01,3.50636e-01,9.99999e-01
5.843602750e-01,3.57970e-01,9.99999e-01,3.57970e-01,9.99999e-01
5.872820764e-01,3.65308e-01,9.99999e-01,3.65308e-01,9.99999e-01
5.902184868e-01,3.72647e-01,9.99999e-01,3.72647e-01,9.99999e-01
5.931695792e-01,3.79984e-01,9.99999e-01,3.79984e-01,9.99999e-01
5.961354271e-01,3.87317e-01,9.99999e-01,3.87317e-01,9.99999e-01
5.991161043e-01,3.94642e-01,9.99999e-01,3.94642e-01,9.99999e-01
6.021116848e-01,4.01957e-01,9.99999e-01,4.01957e-01,9.99999e-01
6.051222432e-01,4.09258e-01,9.99999e-01,4.09258e-01,9.99999e-01
6.081478544e-01,4.16545e-01,9.99999e-01,4.16545e-01,9.99999e-01
6.111885937e-01,4.23813e-01,9.99999e-01,4.23813e-01,9.99999e-01
6.142445367e-01,4.31061e-01,9.99999e-01,4.31061e-01,9.99999e-01
6.173157594e-01,4.38286e-01,9.99999e-01,4.38286e-01,9.99999e-01
6.204023382e-01,4.45485e-01,9.99999e-01,4.45485e-01,9.99999e-01
6.235043498e-01,4.52658e-01,9.99999e-01,4.52658e-01,9.99999e-01
6.266218716e-01,4.59800e-01,9.99999e-01,4.59800e-01,9.99999e-01
6.297549810e-01,4.66911e-01,9.99999e-01,4.66911e-01,9.99999e-01
6.329037559e-01,4.73988e-01,9.99999e-01,4.73988e-01,9.99999e-01
6.360682746e-01,4.81030e-01,9.99999e-01,4.81030e-01,9.99999e-01
6.392486160e-01,4.88034e-01,9.99999e-01,4.88034e-01,9.99999e-01
6.424448591e-01,4.94998e-01,9.99999e-01,4.94998e-01,9.99999e-01
6.456570834e-01,5.01922e-01,9.99999e-01,5.01922e-01,9.99999e-01
6.488853688e-01,5.08803e-01,9.99999e-01,5.08803e-01,9.99999e-01
6.521297956e-01,5.15639e-01,9.99999e-01,5.15639e-01,9.99999e-01
6.553904446e-01,5.22429e-01,9.99999e-01,5.22429e-01,9.99999e-01
6.586673968e-01,5.29172e-01,9.99999e-01,5.29172e-01,9.99999e-01
6.619607338e-01,5.35867e-01,9.99999e-01,5.35867e-01,9.99999e-01
6.652705375e-01,5.42511e-01,9.99999e-01,5.42511e-01,9.99999e-01
6.685968902e-01,5.49104e-01,9.99999e-01,5.49104e-01,9.99999e-01
6.719398746e-01,5.55645e-01,9.99999e-01,5.55645e-01,9.99999e-01
6.752995740e-01,5.62132e-01,9.99999e-01,5.62132e-01,9.99999e-01
6.786760719e-01,5.68564e-01,9.99999e-01,5.68564e-01,9.99999e-01
6.820694522e-01,5.74941e-01,9.99999e-01,5.74941e-01,9.99999e-01
6.854797995e-01,5.81261e-01,9.99999e-01,5.81261e-01,9.99999e-01
6.889071985e-01,5.87524e-01,9.99999e-01,5.87524e-01,9.99999e-01
6.923517345e-01,5.93728e-01,9.99999e-01,5.93728e-01,9.99999e-01
6.958134932e-01,5.99874e-01,9.99999e-01,5.99874e-01,9.99999e-01
6.992925606e-01,6.05960e-01,9.99999e-01,6.05960e-01,9.99999e-01
7.027890234e-01,6.11985e-01,9.99999e-01,6.11985e-01,9.99999e-01
7.063029686e-01,6.17950e-01,9.99999e-01,6.17950e-01,9.99999e-01
7.098344834e-01,6.23853e-01,9.99999e-01,6.23853e-01,9.99999e-01
7.133836558e-01,6.29695e-01,9.99999e-01,6.29695e-01,9.99999e-01
7.169505741e-01,6.35474e-01,9.99999e-01,6.35474e-01,9.99999e-01
7.205353270e-01,6.41191e-01,9.99999e-01,6.41191e-01,9.99999e-01
7.241380036e-01,6.46844e-01,9.99999e-01,6.46844e-01,9.99999e-01
7.277586936e-01,6.52434e-01,9.99999e-01,6.52434e-01,9.99999e-01
7.313974871e-01,6.57961e-01,9.99999e-01,6.57961e-01,9.99999e-01
7.350544745e-01,6.63424e-01,9.99999e-01,6.63424e-01,9.99999e-01
7.387297469e-01,6.68823e-01,9.99999e-01,6.68823e-01,9.99999e-01
7.424233956e-01,6.74158e-01,9.99999e-01,6.74158e-01,9.99999e-01
7.461355126e-01,6.79429e-01,9.99999e-01,6.79429e-01,9.99999e-01
7.498661902e-01,6.84636e-01,9.99999e-01,6.84636e-01,9.99999e-01
7.536155211e-01,6.89779e-01,9.99999e-01,6.89779e-01,9.99999e-01
7.573835987e-01,6.94857e-01,9.99999e-01,6.94857e-01,9.99999e-01
7.611705167e-01,6.99872e-01,9.99999e-01,6.99872e-01,9.99999e-01
7.649763693e-01,7.04823e-01,9.99999e-01,7.04823e-01,9.99999e-01
7.688012511e-01,7.09709e-01,9.99999e-01,7.09709e-01,9.99999e-01
7.726452574e-01,7.14533e-01,9.99999e-01,7.14533e-01,9.99999e-01
7.765084837e-01,7.19292e-01,9.99999e-01,7.19292e-01,9.99999e-01
7.803910261e-01,7.12631e-01,9.84311e-01,7.23989e-01,9.99999e-01
7.842929812e-01,6.79528e-01,9.32619e-01,7.28623e-01,9.99999e-01
7.882144461e-01,6.80474e-01,9.28095e-01,7.33193e-01,9.99999e-01
7.921555184e-01,7.06814e-01,9.58128e-01,7.37702e-01,9.99999e-01
7.961162960e-01,7.21150e-01,9.71706e-01,7.42148e-01,9.99999e-01
8.000968774e-01,7.35030e-01,9.84592e-01,7.46532e-01,9.99999e-01
8.040973618e-01,7.44827e-01,9.91970e-01,7.50855e-01,9.99999e-01
8.081178486e-01,7.52338e-01,9.96319e-01,7.55117e-01,9.99999e-01
8.121584379e-01,7.58449e-01,9.98854e-01,7.59318e-01,9.99999e-01
8.162192301e-01,7.63266e-01,9.99746e-01,7.63459e-01,9.99999e-01
8.203003262e-01,7.67537e-01,9.99995e-01,7.67540e-01,9.99999e-01
8.244018279e-01,7.71561e-01,9.99999e-01,7.71561e-01,9.99999e-01
8.285238370e-01,7.75524e-01,9.99999e-01,7.75524e-01,9.99999e-01
8.326664562e-01,7.79428e-01,9.99999e-01,7.79428e-01,9.99999e-01
8.368297885e-01,7.83274e-01,9.99999e-01,7.83274e-01,9.99999e-01
8.410139374e-01,7.87062e-01,9.99999e-01,7.87062e-01,9.99999e-01
8.452190071e-01,7.90794e-01,9.99999e-01,7.90794e-01,9.99999e-01
8.494451021e-01,7.94468e-01,9.99999e-01,7.94468e-01,9.99999e-01
8.536923276e-01,7.98087e-01,9.99999e-01,7.98087e-01,9.99999e-01
8.579607893e-01,8.01651e-01,9.99999e-01,8.01651e-01,9.99999e-01
8.622505932e-01,8.05159e-01,9.99999e-01,8.05159e-01,9.99999e-01
8.665618462e-01,7.74375e-01,9.57657e-01,8.08613e-01,9.99999e-01
8.708946554e-01,6.78565e-01,8.35657e-01,8.12013e-01,9.99999e-01
8.752491287e-01,7.06727e-01,8.66766e-01,8.15360e-01,9.99999e-01
8.796253743e-01,7.57454e-01,9.25242e-01,8.18654e-01,9.99999e-01
8.840235012e-01,7.89629e-01,9.60740e-01,8.21896e-01,9.99999e-01
8.884436187e-01,8.12155e-01,9.84326e-01,8.25086e-01,9.99999e-01
8.928858368e-01,8.22959e-01,9.93639e-01,8.28226e-01,9.99999e-01
8.973502660e-01,8.30023e-01,9.98444e-01,8.31315e-01,9.99999e-01
9.018370173e-01,8.34211e-01,9.99827e-01,8.34354e-01,9.99999e-01
9.063462024e-01,8.33730e-01,9.95683e-01,8.37344e-01,9.99999e-01
9.108779334e-01,8.31874e-01,9.89989e-01,8.40285e-01,9.99999e-01
9.154323231e-01,8.41178e-01,9.97626e-01,8.43178e-01,9.99999e-01
9.200094847e-01,8.16751e-01,9.65398e-01,8.46024e-01,9.99999e-01
9.246095321e-01,8.07992e-01,9.51897e-01,8.48823e-01,9.99999e-01
9.292325798e-01,8.19378e-01,9.62189e-01,8.51575e-01,9.99999e-01
9.338787427e-01,8.22919e-01,9.63286e-01,8.54282e-01,9.99999e-01
9.385481364e-01,8.33777e-01,9.72965e-01,8.56944e-01,9.99999e-01
9.432408771e-01,8.45250e-01,9.83350e-01,8.59561e-01,9.99999e-01
9.479570815e-01,8.54759e-01,9.91444e-01,8.62134e-01,9.99999e-01
9.526968669e-01,8.61085e-01,9.95859e-01,8.64664e-01,9.99999e-01
9.574603512e-01,8.65615e-01,9.98227e-01,8.67151e-01,9.99999e-01
9.622476530e-01,8.69115e-01,9.99446e-01,8.69596e-01,9.99999e-01
9.670588912e-01,8.71855e-01,9.99833e-01,8.72000e-01,9.99999e-01
9.718941857e-01,8.74352e-01,9.99987e-01,8.74362e-01,9.99999e-01
9.767536566e-01,8.76684e-01,9.99999e-01,8.76684e-01,9.99999e-01
9.816374249e-01,8.78966e-01,9.99999e-01,8.78966e-01,9.99999e-01
9.865456120e-01,8.81208e-01,9.99999e-01,8.81208e-01,9.99999e-01
9.914783401e-01,8.83412e-01,9.99999e-01,8.83412e-01,9.99999e-01
9.964357318e-01,8.85578e-01,9.99999e-01,8.85578e-01,9.99999e-01
1.001417910e+00,8.87706e-01,9.99999e-01,8.87706e-01,9.99999e-01
1.006425000e+00,8.89797e-01,9.99999e-01,8.89797e-01,9.99999e-01
1.011457125e+00,8.91852e-01,9.99999e-01,8.91852e-01,9.99999e-01
1.016514411e+00,8.93870e-01,9.99999e-01,8.93870e-01,9.99999e-01
1.021596983e+00,8.95834e-01,9.99978e-01,8.95853e-01,9.99999e-01
1.026704968e+00,8.96299e-01,9.98325e-01,8.97802e-01,9.99999e-01
1.031838492e+00,8.78259e-01,9.76152e-01,8.99715e-01,9.99999e-01
1.036997685e+00,2.74148e-01,3.04069e-01,9.01595e-01,9.99999e-01
1.042182673e+00,3.29205e-01,3.64389e-01,9.03442e-01,9.99999e-01
1.047393587e+00,3.05039e-01,3.36964e-01,9.05256e-01,9.99999e-01
1.052630555e+00,5.10182e-02,5.62470e-02,9.07038e-01,9.99999e-01
1.057893707e+00,9.33608e-02,1.02731e-01,9.08787e-01,9.99999e-01
1.063183176e+00,1.75770e-01,1.93047e-01,9.10506e-01,9.99999e-01
1.068499092e+00,3.05966e-01,3.35417e-01,9.12194e-01,9.99999e-01
1.073841587e+00,4.58154e-01,5.01344e-01,9.13851e-01,9.99999e-01
1.079210795e+00,5.92571e-01,6.47279e-01,9.15479e-01,9.99999e-01
1.084606849e+00,7.23186e-01,7.88577e-01,9.17077e-01,9.99999e-01
1.090029883e+00,8.12471e-01,8.84421e-01,9.18646e-01,9.99999e-01
1.095480033e+00,8.66154e-01,9.41279e-01,9.20187e-01,9.99999e-01
1.100957433e+00,8.95264e-01,9.71317e-01,9.21700e-01,9.99999e-01
1.106462220e+00,9.12139e-01,9.88033e-01,9.23186e-01,9.99999e-01
1.111994531e+00,9.20530e-01,9.95549e-01,9.24644e-01,9.99999e-01
1.117554504e+00,9.25066e-01,9.98908e-01,9.26076e-01,9.99999e-01
1.123142276e+00,9.27416e-01,9.99927e-01,9.27482e-01,9.99999e-01
1.128757988e+00,9.28862e-01,9.99999e-01,9.28862e-01,9.99999e-01
1.134401778e+00,9.30217e-01,9.99999e-01,9.30217e-01,9.99999e-01
1.140073787e+00,9.31547e-01,9.99999e-01,9.31547e-01,9.99999e-01
1.145774156e+00,9.32853e-01,9.99999e-01,9.32853e-01,9.99999e-01
1.151503026e+00,9.34135e-01,9.99999e-01,9.34135e-01,9.99999e-01
1.157260541e+00,9.35393e-01,9.99999e-01,9.35393e-01,9.99999e-01
1.163046844e+00,9.36627e-01,9.99999e-01,9.36627e-01,9.99999e-01
1.168862078e+00,9.37839e-01,9.99999e-01,9.37839e-01,9.99999e-01
1.174706389e+00,9.39029e-01,9.99999e-01,9.39029e-01,9.99999e-01
1.180579921e+00,9.40197e-01,9.99999e-01,9.40197e-01,9.99999e-01
1.186482820e+00,9.41340e-01,9.99997e-01,9.41343e-01,9.99999e-01
1.192415234e+00,9.36819e-01,9.94006e-01,9.42467e-01,9.99999e-01
1.198377311e+00,5.57075e-01,5.90390e-01,9.43571e-01,9.99999e-01
1.204369197e+00,2.64584e-06,2.80086e-06,9.44654e-01,9.99999e-01
1.210391043e+00,1.11219e-19,1.17603e-19,9.45717e-01,9.99999e-01
1.216442998e+00,2.78434e-17,2.94092e-17,9.46760e-01,9.99999e-01
1.222525213e+00,5.00639e-17,5.28220e-17,9.47784e-01,9.99999e-01
1.228637839e+00,4.41669e-13,4.65508e-13,9.48788e-01,9.99999e-01
1.234781029e+00,3.72251e-09,3.91936e-09,9.49774e-01,9.99999e-01
1.240954934e+00,3.06641e-06,3.22528e-06,9.50741e-01,9.99999e-01
1.247159708e+00,8.06827e-04,8.47782e-04,9.51690e-01,9.99999e-01
1.253395507e+00,1.95675e-02,2.05407e-02,9.52621e-01,9.99999e-01
1.259662485e+00,1.05431e-01,1.10568e-01,9.53535e-01,9.99999e-01
1.265960797e+00,2.65767e-01,2.78456e-01,9.54432e-01,9.99999e-01
1.272290601e+00,5.43057e-01,5.68460e-01,9.55311e-01,9.99999e-01
1.278652054e+00,5.07166e-01,5.30411e-01,9.56174e-01,9.99999e-01
1.285045314e+00,4.69856e-02,4.90956e-02,9.57021e-01,9.99999e-01
1.291470541e+00,5.42140e-03,5.65995e-03,9.57852e-01,9.99999e-01
1.297927893e+00,5.07932e-02,5.29831e-02,9.58667e-01,9.99999e-01
1.304417533e+00,3.71994e-01,3.87709e-01,9.59467e-01,9.99999e-01
1.310939621e+00,1.10030e-01,1.14585e-01,9.60251e-01,9.99999e-01
1.317494319e+00,3.43734e-07,3.57676e-07,9.61021e-01,9.99999e-01
1.324081790e+00,2.27101e-05,2.36126e-05,9.61776e-01,9.99999e-01
1.330702199e+00,3.54404e-03,3.68205e-03,9.62516e-01,9.99999e-01
1.337355710e+00,2.43974e-03,2.53284e-03,9.63243e-01,9.99999e-01
1.344042489e+00,9.02729e-04,9.36483e-04,9.63956e-01,9.99999e-01
1.350762701e+00,2.76403e-03,2.86530e-03,9.64655e-01,9.99999e-01
1.357516515e+00,2.01352e-02,2.08581e-02,9.65341e-01,9.99999e-01
1.364304097e+00,8.80253e-02,9.11221e-02,9.66014e-01,9.99999e-01
1.371125618e+00,2.71269e-01,2.80621e-01,9.66674e-01,9.99999e-01
1.377981246e+00,3.52524e-01,3.64433e-01,9.67321e-01,9.99999e-01
1.384871152e+00,5.37535e-01,5.55330e-01,9.67956e-01,9.99999e-01
1.391795508e+00,5.62713e-01,5.80967e-01,9.68579e-01,9.99999e-01
1.398754485e+00,6.94277e-01,7.16347e-01,9.69190e-01,9.99999e-01
1.405748258e+00,7.57913e-01,7.81522e-01,9.69789e-01,9.99999e-01
1.412776999e+00,8.30704e-01,8.56063e-01,9.70377e-01,9.99999e-01
1.419840884e+00,7.75344e-01,7.98538e-01,9.70954e-01,9.99999e-01
1.426940089e+00,1.07254e-01,1.10398e-01,9.71519e-01,9.99999e-01
1.434074789e+00,5.38963e-275,5.54446e-275,9.72074e-01,9.99999e-01
1.441245163e+00,0.00000e+00,0.00000e+00,9.72618e-01,9.99999e-01
1.448451389e+00,0.00000e+00,0.00000e+00,9.73151e-01,9.99999e-01
1.455693646e+00,2.35174e-149,2.41532e-149,9.73674e-01,9.99999e-01
1.462972114e+00,5.30010e-73,5.44052e-73,9.74188e-01,9.99999e-01
1.470286975e+00,2.32102e-31,2.38129e-31,9.74691e-01,9.99999e-01
1.477638409e+00,2.33164e-20,2.39097e-20,9.75185e-01,9.99999e-01
1.485026601e+00,5.56211e-12,5.70082e-12,9.75669e-01,9.99999e-01
1.492451734e+00,3.39332e-10,3.47625e-10,9.76144e-01,9.99999e-01
1.499913993e+00,2.21761e-05,2.27073e-05,9.76609e-01,9.99999e-01
1.507413563e+00,2.77539e-04,2.84053e-04,9.77066e-01,9.99999e-01
1.514950631e+00,1.23591e-05,1.26434e-05,9.77514e-01,9.99999e-01
1.522525384e+00,5.20163e-15,5.31889e-15,9.77953e-01,9.99999e-01
1.530138011e+00,3.34719e-33,3.42114e-33,9.78384e-01,9.99999e-01
1.537788701e+00,5.21042e-25,5.32323e-25,9.78806e-01,9.99999e-01
1.545477645e+00,9.82824e-07,1.00368e-06,9.79220e-01,9.99999e-01
1.553205033e+00,2.18656e-04,2.23203e-04,9.79626e-01,9.99999e-01
1.560971058e+00,5.82598e-05,5.94472e-05,9.80025e-01,9.99999e-01
1.568775913e+00,9.81927e-82,1.00154e-81,9.80415e-01,9.99999e-01
1.576619793e+00,9.51093e-190,9.69712e-190,9.80799e-01,9.99999e-01
1.584502892e+00,4.33611e-104,4.41930e-104,9.81174e-01,9.99999e-01
1.592425406e+00,7.43269e-73,7.57245e-73,9.81543e-01,9.99999e-01
1.600387533e+00,1.02276e-116,1.04161e-116,9.81904e-01,9.99999e-01
1.608389471e+00,3.09793e-195,3.15388e-195,9.82258e-01,9.99999e-01
1.616431418e+00,1.85210e-196,1.88489e-196,9.82605e-01,9.99999e-01
1.624513575e+00,2.48252e-92,2.52559e-92,9.82946e-01,9.99999e-01
1.632636143e+00,5.82458e-69,5.92362e-69,9.83280e-01,9.99999e-01
1.640799324e+00,3.44822e-29,3.50569e-29,9.83608e-01,9.99999e-01
1.649003321e+00,4.25900e-29,4.32856e-29,9.83929e-01,9.99999e-01
1.657248337e+00,8.40264e-23,8.53715e-23,9.84244e-01,9.99999e-01
1.665534579e+00,5.94692e-23,6.04022e-23,9.84552e-01,9.99999e-01
1.673862252e+00,3.52002e-15,3.57415e-15,9.84855e-01,9.99999e-01
1.682231563e+00,5.89807e-11,5.98696e-11,9.85152e-01,9.99999e-01
1.690642721e+00,8.23487e-07,8.35650e-07,9.85443e-01,9.99999e-01
1.699095934e+00,1.85334e-04,1.88017e-04,9.85729e-01,9.99999e-01
1.707591414e+00,9.96885e-03,1.01103e-02,9.86009e-01,9.99999e-01
1.716129371e+00,8.18360e-02,8.29740e-02,9.86283e-01,9.99999e-01
1.724710018e+00,2.62774e-01,2.66356e-01,9.86552e-01,9.99999e-01
1.733333568e+00,4.23993e-01,4.29657e-01,9.86816e-01,9.99999e-01
1.742000236e+00,5.82857e-01,5.90489e-01,9.87075e-01,9.99999e-01
1.750710237e+00,4.61710e-02,4.67635e-02,9.87328e-01,9.99999e-01
1.759463788e+00,2.06833e-14,2.09435e-14,9.87577e-01,9.99999e-01
1.768261107e+00,2.26119e-15,2.28907e-15,9.87821e-01,9.99999e-01
1.777102413e+00,2.71072e-14,2.74348e-14,9.88060e-01,9.99999e-01
1.785987925e+00,5.37959e-14,5.44330e-14,9.88294e-01,9.99999e-01
1.794917864e+00,4.51294e-13,4.56532e-13,9.88524e-01,9.99999e-01
1.803892454e+00,3.98476e-13,4.03009e-13,9.88750e-01,9.99999e-01
1.812911916e+00,2.29434e-12,2.31993e-12,9.88971e-01,9.99999e-01
1.821976476e+00,1.29759e-12,1.31177e-12,9.89187e-01,9.99999e-01
1.831086358e+00,2.00721e-10,2.02871e-10,9.89400e-01,9.99999e-01
1.840241790e+00,8.46844e-09,8.55735e-09,9.89608e-01,9.99999e-01
1.849442999e+00,2.97466e-06,3.00527e-06,9.89812e-01,9.99999e-01
1.858690214e+00,1.29330e-05,1.30635e-05,9.90012e-01,9.99999e-01
1.867983665e+00,2.19252e-06,2.21419e-06,9.90209e-01,9.99999e-01
1.877323583e+00,1.92375e-26,1.94239e-26,9.90401e-01,9.99999e-01
