#,Wave/freq,Total,CO2,Rayleigh,CIA
4.000000000e-01,1.58031e-08,9.99999e-01,1.58031e-08,9.99999e-01
4.020000000e-01,2.25420e-08,9.99999e-01,2.25420e-08,9.99999e-01
4.040100000e-01,3.19182e-08,9.99999e-01,3.19182e-08,9.99999e-01
4.060300500e-01,4.48851e-08,9.99999e-01,4.48851e-08,9.99999e-01
4.080602003e-01,6.26963e-08,9.99999e-01,6.26963e-08,9.99999e-01
4.101005013e-01,8.69990e-08,9.99999e-01,8.69990e-08,9.99999e-01
4.121510038e-01,1.19943e-07,9.99999e-01,1.19943e-07,9.99999e-01
4.142117588e-01,1.64317e-07,9.99999e-01,1.64317e-07,9.99999e-01
4.162828176e-01,2.23713e-07,9.99999e-01,2.23713e-07,9.99999e-01
4.183642317e-01,3.02727e-07,9.99999e-01,3.02727e-07,9.99999e-01
4.204560528e-01,4.07208e-07,9.99999e-01,4.07208e-07,9.99999e-01
4.225583331e-01,5.44550e-07,9.99999e-01,5.44550e-07,9.99999e-01
4.246711247e-01,7.24047e-07,9.99999e-01,7.24047e-07,9.99999e-01
4.267944804e-01,9.57308e-07,9.99999e-01,9.57308e-07,9.99999e-01
4.289284528e-01,1.25875e-06,9.99999e-01,1.25875e-06,9.99999e-01
4.310730950e-01,1.64620e-06,9.99999e-01,1.64620e-06,9.99999e-01
4.332284605e-01,2.14151e-06,9.99999e-01,2.14151e-06,9.99999e-01
4.353946028e-01,2.77142e-06,9.99999e-01,2.77142e-06,9.99999e-01
4.375715758e-01,3.56840e-06,9.99999e-01,3.56840e-06,9.99999e-01
4.397594337e-01,4.57167e-06,9.99999e-01,4.57167e-06,9.99999e-01
4.419582309e-01,5.82844e-06,9.99999e-01,5.82844e-06,9.99999e-01
4.441680220e-01,7.39512e-06,9.99999e-01,7.39512e-06,9.99999e-01
4.463888621e-01,9.33891e-06,9.99999e-01,9.33891e-06,9.99999e-01
4.486208064e-01,1.17394e-05,9.99999e-01,1.17394e-05,9.99999e-01
4.508639105e-01,1.46904e-05,9.99999e-01,1.46904e-05,9.99999e-01
4.531182300e-01,1.83019e-05,9.99999e-01,1.83019e-05,9.99999e-01
4.553838212e-01,2.27024e-05,9.99999e-01,2.27024e-05,9.99999e-01
4.576607403e-01,2.80415e-05,9.99999e-01,2.80415e-05,9.99999e-01
4.599490440e-01,3.44920e-05,9.99999e-01,3.44920e-05,9.99999e-01
4.622487892e-01,4.22532e-05,9.99999e-01,4.22532e-05,9.99999e-01
4.645600332e-01,5.15537e-05,9.99999e-01,5.15537e-05,9.99999e-01
4.668828333e-01,6.26547e-05,9.99999e-01,6.26547e-05,9.99999e-01
4.692172475e-01,7.58533e-05,9.99999e-01,7.58533e-05,9.99999e-01
4.715633337e-01,9.14861e-05,9.99999e-01,9.14861e-05,9.99999e-01
4.739211504e-01,1.09933e-04,9.99999e-01,1.09933e-04,9.99999e-01
4.762907561e-01,1.31621e-04,9.99999e-01,1.31621e-04,9.99999e-01
4.786722099e-01,1.57029e-04,9.99999e-01,1.57029e-04,9.99999e-01
4.810655710e-01,1.86688e-04,9.99999e-01,1.86688e-04,9.99999e-01
4.834708988e-01,2.21193e-04,9.99999e-01,2.21193e-04,9.99999e-01
4.858882533e-01,2.61199e-04,9.99999e-01,2.61199e-04,9.99999e-01
4.883176946e-01,3.07430e-04,9.99999e-01,3.07430e-04,9.99999e-01
4.907592831e-01,3.60679e-04,9.99999e-01,3.60679e-04,9.99999e-01
4.932130795e-01,4.21820e-04,9.99999e-01,4.21820e-04,9.99999e-01
4.956791449e-01,4.91800e-04,9.99999e-01,4.91800e-04,9.99999e-01
4.981575406e-01,5.71655e-04,9.99999e-01,5.71655e-04,9.99999e-01
5.006483283e-01,6.62504e-04,9.99999e-01,6.62504e-04,9.99999e-01
5.031515699e-01,7.65558e-04,9.99999e-01,7.65558e-04,9.99999e-01
5.056673278e-01,8.82119e-04,9.99999e-01,8.82119e-04,9.99999e-01
5.081956644e-01,1.01359e-03,9.99999e-01,1.01359e-03,9.99999e-01
5.107366428e-01,1.16145e-03,9.99999e-01,1.16145e-03,9.99999e-01
5.132903260e-01,1.32732e-03,9.99999e-01,1.32732e-03,9.99999e-01
5.158567776e-01,1.51288e-03,9.99999e-01,1.51288e-03,9.99999e-01
5.184360615e-01,1.71993e-03,9.99999e-01,1.71993e-03,9.99999e-01
5.210282418e-01,1.95036e-03,9.99999e-01,1.95036e-03,9.99999e-01
5.236333830e-01,2.20619e-03,9.99999e-01,2.20619e-03,9.99999e-01
5.262515499e-01,2.48950e-03,9.99999e-01,2.48950e-03,9.99999e-01
5.288828077e-01,2.80250e-03,9.99999e-01,2.80250e-03,9.99999e-01
5.315272217e-01,3.14748e-03,9.99999e-01,3.14748e-03,9.99999e-01
5.341848578e-01,3.52683e-03,9.99999e-01,3.52683e-03,9.99999e-01
5.368557821e-01,3.94302e-03,9.99999e-01,3.94302e-03,9.99999e-01
5.395400610e-01,4.39863e-03,9.99999e-01,4.39863e-03,9.99999e-01
5.422377613e-01,4.89630e-03,9.99999e-01,4.89630e-03,9.99999e-01
5.449489501e-01,5.43875e-03,9.99999e-01,5.43875e-03,9.99999e-01
5.476736949e-01,6.02876e-03,9.99999e-01,6.02876e-03,9.99999e-01
5.504120634e-01,6.66921e-03,9.99999e-01,6.66921e-03,9.99999e-01
5.531641237e-01,7.36299e-03,9.99999e-01,7.36299e-03,9.99999e-01
5.559299443e-01,8.11307e-03,9.99999e-01,8.11307e-03,9.99999e-01
5.587095940e-01,8.92245e-03,9.99999e-01,8.92245e-03,9.99999e-01
5.615031420e-01,9.79415e-03,9.99999e-01,9.79415e-03,9.99999e-01
5.643106577e-01,1.07312e-02,9.99999e-01,1.07312e-02,9.99999e-01
5.671322110e-01,1.17368e-02,9.99999e-01,1.17368e-02,9.99999e-01
5.699678720e-01,1.28139e-02,9.99999e-01,1.28139e-02,9.99999e-01
5.728177114e-01,1.39656e-02,9.99999e-01,1.39656e-02,9.99999e-01
5.756818000e-01,1.51949e-02,9.99999e-01,1.51949e-02,9.99999e-01
5.785602090e-01,1.65050e-02,9.99999e-01,1.65050e-02,9.99999e-01
5.814530100e-01,1.78987e-02,9.99999e-01,1.78987e-02,9.99999e-01
5.843602750e-01,1.93790e-02,9.99999e-01,1.93790e-02,9.99999e-01
5.872820764e-01,2.09489e-02,9.99999e-01,2.09489e-02,9.99999e-01
5.902184868e-01,2.26112e-02,9.99999e-01,2.26112e-02,9.99999e-01
5.931695792e-01,2.43685e-02,9.99999e-01,2.43685e-02,9.99999e-01
5.961354271e-01,2.62237e-02,9.99999e-01,2.62237e-02,9.99999e-01
5.991161043e-01,2.81791e-02,9.99999e-01,2.81791e-02,9.99999e-01
6.021116848e-01,3.02375e-02,9.99999e-01,3.02375e-02,9.99999e-01
6.051222432e-01,3.24010e-02,9.99999e-01,3.24010e-02,9.99999e-01
6.081478544e-01,3.46720e-02,9.99999e-01,3.46720e-02,9.99999e-01
6.111885937e-01,3.70525e-02,9.99999e-01,3.70525e-02,9.99999e-01
6.142445367e-01,3.95446e-02,9.99999e-01,3.95446e-02,9.99999e-01
6.173157594e-01,4.21501e-02,9.99999e-01,4.21501e-02,9.99999e-01
6.204023382e-01,4.48706e-02,9.99999e-01,4.48706e-02,9.99999e-01
6.235043498e-01,4.77077e-02,9.99999e-01,4.77077e-02,9.99999e-01
6.266218716e-01,5.06629e-02,9.99999e-01,5.06629e-02,9.99999e-01
6.297549810e-01,5.37373e-02,9.99999e-01,5.37373e-02,9.99999e-01
6.329037559e-01,5.69319e-02,9.99999e-01,5.69319e-02,9.99999e-01
6.360682746e-01,6.02477e-02,9.99999e-01,6.02477e-02,9.99999e-01
6.392486160e-01,6.36854e-02,9.99999e-01,6.36854e-02,9.99999e-01
6.424448591e-01,6.72455e-02,9.99999e-01,6.72455e-02,9.99999e-01
6.456570834e-01,7.09283e-02,9.99999e-01,7.09283e-02,9.99999e-01
6.488853688e-01,7.47341e-02,9.99999e-01,7.47341e-02,9.99999e-01
6.521297956e-01,7.86628e-02,9.99999e-01,7.86628e-02,9.99999e-01
6.553904446e-01,8.27143e-02,9.99999e-01,8.27143e-02,9.99999e-01
6.586673968e-01,8.68883e-02,9.99999e-01,8.68883e-02,9.99999e-01
6.619607338e-01,9.11841e-02,9.99999e-01,9.11841e-02,9.99999e-01
6.652705375e-01,9.56012e-02,9.99999e-01,9.56012e-02,9.99999e-01
6.685968902e-01,1.00139e-01,9.99999e-01,1.00139e-01,9.99999e-01
6.719398746e-01,1.04795e-01,9.99999e-01,1.04795e-01,9.99999e-01
6.752995740e-01,1.09570e-01,9.99999e-01,1.09570e-01,9.99999e-01
6.786760719e-01,1.14462e-01,9.99999e-01,1.14462e-01,9.99999e-01
6.820694522e-01,1.19469e-01,9.99999e-01,1.19469e-01,9.99999e-01
6.854797995e-01,1.24590e-01,9.99999e-01,1.24590e-01,9.99999e-01
6.889071985e-01,1.29822e-01,9.99999e-01,1.29822e-01,9.99999e-01
6.923517345e-01,1.35164e-01,9.99999e-01,1.35164e-01,9.99999e-01
6.958134932e-01,1.40614e-01,9.99999e-01,1.40614e-01,9.99999e-01
6.992925606e-01,1.46170e-01,9.99999e-01,1.46170e-01,9.99999e-01
7.027890234e-01,1.51829e-01,9.99999e-01,1.51829e-01,9.99999e-01
7.063029686e-01,1.57588e-01,9.99999e-01,1.57588e-01,9.99999e-01
7.098344834e-01,1.63446e-01,9.99999e-01,1.63446e-01,9.99999e-01
7.133836558e-01,1.69400e-01,9.99999e-01,1.69400e-01,9.99999e-01
7.169505741e-01,1.75446e-01,9.99999e-01,1.75446e-01,9.99999e-01
7.205353270e-01,1.81582e-01,9.99999e-01,1.81582e-01,9.99999e-01
7.241380036e-01,1.87806e-01,9.99999e-01,1.87806e-01,9.99999e-01
7.277586936e-01,1.94113e-01,9.99999e-01,1.94113e-01,9.99999e-01
7.313974871e-01,2.00502e-01,9.99999e-01,2.00502e-01,9.99999e-01
7.350544745e-01,2.06968e-01,9.99999e-01,2.06968e-01,9.99999e-01
7.387297469e-01,2.13509e-01,9.99999e-01,2.13509e-01,9.99999e-01
7.424233956e-01,2.20121e-01,9.99999e-01,2.20121e-01,9.99999e-01
7.461355126e-01,2.26801e-01,9.99999e-01,2.26801e-01,9.99999e-01
7.498661902e-01,2.33546e-01,9.99999e-01,2.33546e-01,9.99999e-01
7.536155211e-01,2.40353e-01,9.99999e-01,2.40353e-01,9.99999e-01
7.573835987e-01,2.47217e-01,9.99999e-01,2.47217e-01,9.99999e-01
7.611705167e-01,2.54136e-01,9.99999e-01,2.54136e-01,9.99999e-01
7.649763693e-01,2.61107e-01,9.99999e-01,2.61107e-01,9.99999e-01
7.688012511e-01,2.68125e-01,9.99999e-01,2.68125e-01,9.99999e-01
7.726452574e-01,2.75188e-01,9.99999e-01,2.75188e-01,9.99999e-01
7.765084837e-01,2.82292e-01,9.99999e-01,2.82292e-01,9.99999e-01
7.803910261e-01,2.73014e-01,9.43271e-01,2.89433e-01,9.99999e-01
7.842929812e-01,2.29869e-01,7.74989e-01,2.96609e-01,9.99999e-01
7.882144461e-01,2.31078e-01,7.60588e-01,3.03815e-01,9.99999e-01
7.921555184e-01,2.64282e-01,8.49645e-01,3.11049e-01,9.99999e-01
7.961162960e-01,2.85555e-01,8.97103e-01,3.18308e-01,9.99999e-01
8.000968774e-01,3.06927e-01,9.42687e-01,3.25587e-01,9.99999e-01
8.040973618e-01,3.22899e-01,9.70005e-01,3.32884e-01,9.99999e-01
8.081178486e-01,3.35451e-01,9.86053e-01,3.40196e-01,9.99999e-01
8.121584379e-01,3.46033e-01,9.95722e-01,3.47519e-01,9.99999e-01
8.162192301e-01,3.54515e-01,9.99053e-01,3.54850e-01,9.99999e-01
8.203003262e-01,3.62182e-01,9.99986e-01,3.62187e-01,9.99999e-01
8.244018279e-01,3.69526e-01,9.99999e-01,3.69526e-01,9.99999e-01
8.285238370e-01,3.76864e-01,9.99999e-01,3.76864e-01,9.99999e-01
8.326664562e-01,3.84199e-01,9.99999e-01,3.84199e-01,9.99999e-01
8.368297885e-01,3.91528e-01,9.99999e-01,3.91528e-01,9.99999e-01
8.410139374e-01,3.98847e-01,9.99999e-01,3.98847e-01,9.99999e-01
8.452190071e-01,4.06155e-01,9.99999e-01,4.06155e-01,9.99999e-01
8.494451021e-01,4.13448e-01,9.99999e-01,4.13448e-01,9.99999e-01
8.536923276e-01,4.20724e-01,9.99999e-01,4.20724e-01,9.99999e-01
8.579607893e-01,4.27981e-01,9.99999e-01,4.27981e-01,9.99999e-01
8.622505932e-01,4.35216e-01,9.99999e-01,4.35216e-01,9.99999e-01
8.665618462e-01,3.96172e-01,8.95452e-01,4.42427e-01,9.99999e-01
8.708946554e-01,2.36516e-01,5.26045e-01,4.49611e-01,9.99999e-01
8.752491287e-01,2.70992e-01,5.93283e-01,4.56766e-01,9.99999e-01
8.796253743e-01,3.47254e-01,7.48568e-01,4.63891e-01,9.99999e-01
8.840235012e-01,4.04895e-01,8.59680e-01,4.70983e-01,9.99999e-01
8.884436187e-01,4.50446e-01,9.42277e-01,4.78040e-01,9.99999e-01
8.928858368e-01,4.73487e-01,9.76139e-01,4.85060e-01,9.99999e-01
8.973502660e-01,4.89182e-01,9.94188e-01,4.92041e-01,9.99999e-01
9.018370173e-01,4.98664e-01,9.99360e-01,4.98983e-01,9.99999e-01
9.063462024e-01,4.97358e-01,9.83149e-01,5.05882e-01,9.99999e-01
9.108779334e-01,4.93525e-01,9.62529e-01,5.12737e-01,9.99999e-01
9.154323231e-01,5.14967e-01,9.91183e-01,5.19547e-01,9.99999e-01
9.200094847e-01,4.63638e-01,8.80920e-01,5.26311e-01,9.99999e-01
9.246095321e-01,4.42212e-01,8.29625e-01,5.33026e-01,9.99999e-01
9.292325798e-01,4.65861e-01,8.63197e-01,5.39692e-01,9.99999e-01
9.338787427e-01,4.74344e-01,8.68273e-01,5.46307e-01,9.99999e-01
9.385481364e-01,4.98181e-01,9.01081e-01,5.52870e-01,9.99999e-01
9.432408771e-01,5.24855e-01,9.38281e-01,5.59379e-01,9.99999e-01
9.479570815e-01,5.47596e-01,9.67765e-01,5.65835e-01,9.99999e-01
9.526968669e-01,5.63292e-01,9.84370e-01,5.72236e-01,9.99999e-01
9.574603512e-01,5.74699e-01,9.93292e-01,5.78580e-01,9.99999e-01
9.622476530e-01,5.83643e-01,9.97906e-01,5.84867e-01,9.99999e-01
9.670588912e-01,5.90727e-01,9.99373e-01,5.91097e-01,9.99999e-01
9.718941857e-01,5.97242e-01,9.99956e-01,5.97267e-01,9.99999e-01
9.767536566e-01,6.03379e-01,9.99999e-01,6.03379e-01,9.99999e-01
9.816374249e-01,6.09430e-01,9.99999e-01,6.09430e-01,9.99999e-01
9.865456120e-01,6.15421e-01,9.99999e-01,6.15421e-01,9.99999e-01
9.914783401e-01,6.21350e-01,9.99999e-01,6.21350e-01,9.99999e-01
9.964357318e-01,6.27218e-01,9.99999e-01,6.27218e-01,9.99999e-01
1.001417910e+00,6.33024e-01,9.99999e-01,6.33024e-01,9.99999e-01
1.006425000e+00,6.38767e-01,9.99999e-01,6.38767e-01,9.99999e-01
1.011457125e+00,6.44447e-01,9.99999e-01,6.44447e-01,9.99999e-01
1.016514411e+00,6.50065e-01,9.99999e-01,6.50065e-01,9.99999e-01
1.021596983e+00,6.55550e-01,9.99895e-01,6.55618e-01,9.99999e-01
1.026704968e+00,6.56704e-01,9.93337e-01,6.61108e-01,9.99999e-01
1.031838492e+00,6.20772e-01,9.31342e-01,6.66535e-01,9.99999e-01
1.036997685e+00,6.04815e-02,9.00159e-02,6.71897e-01,9.99999e-01
1.042182673e+00,2.12724e-02,3.14125e-02,6.77195e-01,9.99999e-01
1.047393587e+00,3.45970e-02,5.06968e-02,6.82429e-01,9.99999e-01
1.052630555e+00,1.22865e-04,1.78687e-04,6.87599e-01,9.99999e-01
1.057893707e+00,4.16540e-04,6.01323e-04,6.92705e-01,9.99999e-01
1.063183176e+00,2.77998e-03,3.98423e-03,6.97747e-01,9.99999e-01
1.068499092e+00,1.29448e-02,1.84208e-02,7.02725e-01,9.99999e-01
1.073841587e+00,5.61557e-02,7.93564e-02,7.07639e-01,9.99999e-01
1.079210795e+00,1.43420e-01,2.01294e-01,7.12489e-01,9.99999e-01
1.084606849e+00,2.94167e-01,4.10116e-01,7.17276e-01,9.99999e-01
1.090029883e+00,4.53530e-01,6.28158e-01,7.21999e-01,9.99999e-01
1.095480033e+00,5.77907e-01,7.95292e-01,7.26660e-01,9.99999e-01
1.100957433e+00,6.54680e-01,8.95279e-01,7.31257e-01,9.99999e-01
1.106462220e+00,7.02933e-01,9.55341e-01,7.35792e-01,9.99999e-01
1.111994531e+00,7.27829e-01,9.83200e-01,7.40265e-01,9.99999e-01
1.117554504e+00,7.41620e-01,9.95897e-01,7.44675e-01,9.99999e-01
1.123142276e+00,7.48824e-01,9.99732e-01,7.49024e-01,9.99999e-01
1.128757988e+00,7.53312e-01,9.99999e-01,7.53312e-01,9.99999e-01
1.134401778e+00,7.57539e-01,9.99999e-01,7.57539e-01,9.99999e-01
1.140073787e+00,7.61705e-01,9.99999e-01,7.61705e-01,9.99999e-01
1.145774156e+00,7.65812e-01,9.99999e-01,7.65812e-01,9.99999e-01
1.151503026e+00,7.69858e-01,9.99999e-01,7.69858e-01,9.99999e-01
1.157260541e+00,7.73846e-01,9.99999e-01,7.73846e-01,9.99999e-01
1.163046844e+00,7.77775e-01,9.99999e-01,7.77775e-01,9.99999e-01
1.168862078e+00,7.81645e-01,9.99999e-01,7.81645e-01,9.99999e-01
1.174706389e+00,7.85458e-01,9.99999e-01,7.85458e-01,9.99999e-01
1.180579921e+00,7.89214e-01,9.99999e-01,7.89214e-01,9.99999e-01
1.186482820e+00,7.92900e-01,9.99983e-01,7.92912e-01,9.99999e-01
1.192415234e+00,7.77890e-01,9.76566e-01,7.96555e-01,9.99999e-01
1.198377311e+00,4.34731e-01,5.43317e-01,8.00142e-01,9.99999e-01
1.204369197e+00,7.88985e-18,9.81722e-18,8.03674e-01,9.99999e-01
1.210391043e+00,3.49386e-69,4.32864e-69,8.07151e-01,9.99999e-01
1.216442998e+00,5.31803e-60,6.56082e-60,8.10574e-01,9.99999e-01
1.222525213e+00,4.09232e-59,5.02777e-59,8.13943e-01,9.99999e-01
1.228637839e+00,9.64651e-46,1.18035e-45,8.17260e-01,9.99999e-01
1.234781029e+00,6.97752e-29,8.50373e-29,8.20524e-01,9.99999e-01
1.240954934e+00,2.51953e-19,3.05866e-19,8.23736e-01,9.99999e-01
1.247159708e+00,6.69237e-10,8.09335e-10,8.26897e-01,9.99999e-01
1.253395507e+00,1.33053e-06,1.60303e-06,8.30007e-01,9.99999e-01
1.259662485e+00,3.98749e-04,4.78651e-04,8.33068e-01,9.99999e-01
1.265960797e+00,1.10042e-02,1.31617e-02,8.36078e-01,9.99999e-01
1.272290601e+00,1.23110e-01,1.46727e-01,8.39040e-01,9.99999e-01
1.278652054e+00,1.03662e-01,1.23120e-01,8.41954e-01,9.99999e-01
1.285045314e+00,6.75841e-04,7.99982e-04,8.44820e-01,9.99999e-01
1.291470541e+00,1.17448e-08,1.38559e-08,8.47638e-01,9.99999e-01
1.297927893e+00,9.25105e-04,1.08783e-03,8.50410e-01,9.99999e-01
1.304417533e+00,2.52294e-02,2.95725e-02,8.53137e-01,9.99999e-01
1.310939621e+00,4.09755e-03,4.78787e-03,8.55817e-01,9.99999e-01
1.317494319e+00,2.75643e-24,3.21092e-24,8.58454e-01,9.99999e-01
1.324081790e+00,8.29230e-12,9.63050e-12,8.61045e-01,9.99999e-01
1.330702199e+00,1.46212e-09,1.69307e-09,8.63594e-01,9.99999e-01
1.337355710e+00,5.24940e-09,6.06097e-09,8.66099e-01,9.99999e-01
1.344042489e+00,1.98085e-09,2.28061e-09,8.68562e-01,9.99999e-01
1.350762701e+00,8.30709e-10,9.53760e-10,8.70983e-01,9.99999e-01
1.357516515e+00,2.37635e-06,2.72092e-06,8.73362e-01,9.99999e-01
1.364304097e+00,1.36818e-04,1.56238e-04,8.75701e-01,9.99999e-01
1.371125618e+00,9.73808e-03,1.10912e-02,8.78000e-01,9.99999e-01
1.377981246e+00,1.96030e-02,2.22695e-02,8.80259e-01,9.99999e-01
1.384871152e+00,9.63812e-02,1.09216e-01,8.82480e-01,9.99999e-01
1.391795508e+00,1.14682e-01,1.29634e-01,8.84662e-01,9.99999e-01
1.398754485e+00,2.48626e-01,2.80360e-01,8.86806e-01,9.99999e-01
1.405748258e+00,3.50489e-01,3.94289e-01,8.88912e-01,9.99999e-01
1.412776999e+00,4.94136e-01,5.54596e-01,8.90982e-01,9.99999e-01
1.419840884e+00,4.39481e-01,4.92130e-01,8.93016e-01,9.99999e-01
1.426940089e+00,2.57978e-02,2.88239e-02,8.95014e-01,9.99999e-01
1.434074789e+00,0.00000e+00,0.00000e+00,8.96977e-01,9.99999e-01
1.441245163e+00,0.00000e+00,0.00000e+00,8.98906e-01,9.99999e-01
1.448451389e+00,0.00000e+00,0.00000e+00,9.00800e-01,9.99999e-01
1.455693646e+00,0.00000e+00,0.00000e+00,9.02661e-01,9.99999e-01
1.462972114e+00,6.23451e-274,6.89285e-274,9.04489e-01,9.99999e-01
1.470286975e+00,4.85115e-114,5.35279e-114,9.06284e-01,9.99999e-01
1.477638409e+00,6.78301e-72,7.46988e-72,9.08047e-01,9.99999e-01
1.485026601e+00,2.70203e-40,2.96999e-40,9.09779e-01,9.99999e-01
1.492451734e+00,2.44697e-34,2.68461e-34,9.11480e-01,9.99999e-01
1.499913993e+00,2.89081e-15,3.16575e-15,9.13150e-01,9.99999e-01
1.507413563e+00,4.80874e-14,5.25665e-14,9.14790e-01,9.99999e-01
1.514950631e+00,1.77926e-15,1.94158e-15,9.16401e-01,9.99999e-01
1.522525384e+00,2.80782e-51,3.05868e-51,9.17982e-01,9.99999e-01
1.530138011e+00,1.17897e-121,1.28214e-121,9.19535e-01,9.99999e-01
1.537788701e+00,3.83912e-90,4.16815e-90,9.21060e-01,9.99999e-01
1.545477645e+00,1.71554e-19,1.85954e-19,9.22557e-01,9.99999e-01
1.553205033e+00,4.46529e-14,4.83241e-14,9.24027e-01,9.99999e-01
1.560971058e+00,1.60503e-14,1.73429e-14,9.25471e-01,9.99999e-01
1.568775913e+00,1.82902e-307,1.97329e-307,9.26888e-01,9.99999e-01
1.576619793e+00,0.00000e+00,0.00000e+00,9.28279e-01,9.99999e-01
1.584502892e+00,0.00000e+00,0.00000e+00,9.29644e-01,9.99999e-01
1.592425406e+00,4.77471e-274,5.12866e-274,9.30985e-01,9.99999e-01
1.600387533e+00,0.00000e+00,0.00000e+00,9.32301e-01,9.99999e-01
1.608389471e+00,0.00000e+00,0.00000e+00,9.33593e-01,9.99999e-01
1.616431418e+00,0.00000e+00,0.00000e+00,9.34861e-01,9.99999e-01
1.624513575e+00,0.00000e+00,0.00000e+00,9.36105e-01,9.99999e-01
1.632636143e+00,1.56047e-258,1.66481e-258,9.37327e-01,9.99999e-01
1.640799324e+00,1.07586e-105,1.14633e-105,9.38526e-01,9.99999e-01
1.649003321e+00,1.07711e-105,1.14622e-105,9.39703e-01,9.99999e-01
1.657248337e+00,8.36470e-82,8.89049e-82,9.40858e-01,9.99999e-01
1.665534579e+00,2.39193e-82,2.53922e-82,9.41991e-01,9.99999e-01
1.673862252e+00,1.06741e-52,1.13180e-52,9.43104e-01,9.99999e-01
1.682231563e+00,1.14607e-36,1.21380e-36,9.44196e-01,9.99999e-01
1.690642721e+00,1.26794e-20,1.34135e-20,9.45267e-01,9.99999e-01
1.699095934e+00,2.89227e-13,3.05633e-13,9.46319e-01,9.99999e-01
1.707591414e+00,3.95678e-07,4.17667e-07,9.47351e-01,9.99999e-01
1.716129371e+00,2.02682e-04,2.13717e-04,9.48363e-01,9.99999e-01
1.724710018e+00,7.92893e-03,8.35189e-03,9.49357e-01,9.99999e-01
1.733333568e+00,4.02084e-02,4.23098e-02,9.50332e-01,9.99999e-01
1.742000236e+00,1.47618e-01,1.55177e-01,9.51289e-01,9.99999e-01
1.750710237e+00,1.41727e-03,1.48837e-03,9.52228e-01,9.99999e-01
1.759463788e+00,2.47218e-50,2.59369e-50,9.53149e-01,9.99999e-01
1.768261107e+00,1.11750e-52,1.17132e-52,9.54053e-01,9.99999e-01
1.777102413e+00,3.42207e-51,3.58355e-51,9.54939e-01,9.99999e-01
1.785987925e+00,4.16039e-48,4.35273e-48,9.55809e-01,9.99999e-01
1.794917864e+00,5.98957e-46,6.26090e-46,9.56663e-01,9.99999e-01
1.803892454e+00,3.32376e-44,3.47128e-44,9.57501e-01,9.99999e-01
1.812911916e+00,1.80251e-42,1.88090e-42,9.58322e-01,9.99999e-01
1.821976476e+00,1.52595e-42,1.59097e-42,9.59128e-01,9.99999e-01
1.831086358e+00,2.87271e-34,2.99266e-34,9.59919e-01,9.99999e-01
1.840241790e+00,3.39478e-29,3.53367e-29,9.60695e-01,9.99999e-01
1.849442999e+00,2.38186e-20,2.47734e-20,9.61456e-01,9.99999e-01
1.858690214e+00,4.57997e-19,4.75987e-19,9.62203e-01,9.99999e-01
1.867983665e+00,9.04195e-20,9.38998e-20,9.62936e-01,9.99999e-01
1.877323583e+00,9.35902e-96,9.71200e-96,9.63654e-01,9.99999e-01
