#,Wave/freq,Total,CO2,Rayleigh,CIA
4.000000000e-01,3.31551e-10,9.99999e-01,3.31551e-10,9.99999e-01
4.020000000e-01,5.10488e-10,9.99999e-01,5.10488e-10,9.99999e-01
4.040100000e-01,7.78979e-10,9.99999e-01,7.78979e-10,9.99999e-01
4.060300500e-01,1.17880e-09,9.99999e-01,1.17880e-09,9.99999e-01
4.080602003e-01,1.76930e-09,9.99999e-01,1.76930e-09,9.99999e-01
4.101005013e-01,2.63438e-09,9.99999e-01,2.63438e-09,9.99999e-01
4.121510038e-01,3.89172e-09,9.99999e-01,3.89172e-09,9.99999e-01
4.142117588e-01,5.70503e-09,9.99999e-01,5.70503e-09,9.99999e-01
4.162828176e-01,8.30026e-09,9.99999e-01,8.30026e-09,9.99999e-01
4.183642317e-01,1.19870e-08,9.99999e-01,1.19870e-08,9.99999e-01
4.204560528e-01,1.71860e-08,9.99999e-01,1.71860e-08,9.99999e-01
4.225583331e-01,2.44652e-08,9.99999e-01,2.44652e-08,9.99999e-01
4.246711247e-01,3.45855e-08,9.99999e-01,3.45855e-08,9.99999e-01
4.267944804e-01,4.85590e-08,9.99999e-01,4.85590e-08,9.99999e-01
4.289284528e-01,6.77227e-08,9.99999e-01,6.77227e-08,9.99999e-01
4.310730950e-01,9.38307e-08,9.99999e-01,9.38307e-08,9.99999e-01
4.332284605e-01,1.29169e-07,9.99999e-01,1.29169e-07,9.99999e-01
4.353946028e-01,1.76697e-07,9.99999e-01,1.76697e-07,9.99999e-01
4.375715758e-01,2.40223e-07,9.99999e-01,2.40223e-07,9.99999e-01
4.397594337e-01,3.24611e-07,9.99999e-01,3.24611e-07,9.99999e-01
4.419582309e-01,4.36044e-07,9.99999e-01,4.36044e-07,9.99999e-01
4.441680220e-01,5.82324e-07,9.99999e-01,5.82324e-07,9.99999e-01
4.463888621e-01,7.73247e-07,9.99999e-01,7.73247e-07,9.99999e-01
4.486208064e-01,1.02103e-06,9.99999e-01,1.02103e-06,9.99999e-01
4.508639105e-01,1.34084e-06,9.99999e-01,1.34084e-06,9.99999e-01
4.531182300e-01,1.75136e-06,9.99999e-01,1.75136e-06,9.99999e-01
4.553838212e-01,2.27553e-06,9.99999e-01,2.27553e-06,9.99999e-01
4.576607403e-01,2.94133e-06,9.99999e-01,2.94133e-06,9.99999e-01
4.599490440e-01,3.78272e-06,9.99999e-01,3.78272e-06,9.99999e-01
4.622487892e-01,4.84067e-06,9.99999e-01,4.84067e-06,9.99999e-01
4.645600332e-01,6.16441e-06,9.99999e-01,6.16441e-06,9.99999e-01
4.668828333e-01,7.81276e-06,9.99999e-01,7.81276e-06,9.99999e-01
4.692172475e-01,9.85562e-06,9.99999e-01,9.85562e-06,9.99999e-01
4.715633337e-01,1.23757e-05,9.99999e-01,1.23757e-05,9.99999e-01
4.739211504e-01,1.54705e-05,9.99999e-01,1.54705e-05,9.99999e-01
4.762907561e-01,1.92541e-05,9.99999e-01,1.92541e-05,9.99999e-01
4.786722099e-01,2.38598e-05,9.99999e-01,2.38598e-05,9.99999e-01
4.810655710e-01,2.94421e-05,9.99999e-01,2.94421e-05,9.99999e-01
4.834708988e-01,3.61800e-05,9.99999e-01,3.61800e-05,9.99999e-01
4.858882533e-01,4.42792e-05,9.99999e-01,4.42792e-05,9.99999e-01
4.883176946e-01,5.39756e-05,9.99999e-01,5.39756e-05,9.99999e-01
4.907592831e-01,6.55386e-05,9.99999e-01,6.55386e-05,9.99999e-01
4.932130795e-01,7.92742e-05,9.99999e-01,7.92742e-05,9.99999e-01
4.956791449e-01,9.55288e-05,9.99999e-01,9.55288e-05,9.99999e-01
4.981575406e-01,1.14693e-04,9.99999e-01,1.14693e-04,9.99999e-01
5.006483283e-01,1.37205e-04,9.99999e-01,1.37205e-04,9.99999e-01
5.031515699e-01,1.63556e-04,9.99999e-01,1.63556e-04,9.99999e-01
5.056673278e-01,1.94293e-04,9.99999e-01,1.94293e-04,9.99999e-01
5.081956644e-01,2.30022e-04,9.99999e-01,2.30022e-04,9.99999e-01
5.107366428e-01,2.71414e-04,9.99999e-01,2.71414e-04,9.99999e-01
5.132903260e-01,3.19211e-04,9.99999e-01,3.19211e-04,9.99999e-01
5.158567776e-01,3.74223e-04,9.99999e-01,3.74223e-04,9.99999e-01
5.184360615e-01,4.37340e-04,9.99999e-01,4.37340e-04,9.99999e-01
5.210282418e-01,5.09532e-04,9.99999e-01,5.09532e-04,9.99999e-01
5.236333830e-01,5.91852e-04,9.99999e-01,5.91852e-04,9.99999e-01
5.262515499e-01,6.85441e-04,9.99999e-01,6.85441e-04,9.99999e-01
5.288828077e-01,7.91530e-04,9.99999e-01,7.91530e-04,9.99999e-01
5.315272217e-01,9.11445e-04,9.99999e-01,9.11445e-04,9.99999e-01
5.341848578e-01,1.04661e-03,9.99999e-01,1.04661e-03,9.99999e-01
5.368557821e-01,1.19853e-03,9.99999e-01,1.19853e-03,9.99999e-01
5.395400610e-01,1.36884e-03,9.99999e-01,1.36884e-03,9.99999e-01
5.422377613e-01,1.55926e-03,9.99999e-01,1.55926e-03,9.99999e-01
5.449489501e-01,1.77160e-03,9.99999e-01,1.77160e-03,9.99999e-01
5.476736949e-01,2.00778e-03,9.99999e-01,2.00778e-03,9.99999e-01
5.504120634e-01,2.26984e-03,9.99999e-01,2.26984e-03,9.99999e-01
5.531641237e-01,2.55988e-03,9.99999e-01,2.55988e-03,9.99999e-01
5.559299443e-01,2.88014e-03,9.99999e-01,2.88014e-03,9.99999e-01
5.587095940e-01,3.23293e-03,9.99999e-01,3.23293e-03,9.99999e-01
5.615031420e-01,3.62067e-03,9.99999e-01,3.62067e-03,9.99999e-01
5.643106577e-01,4.04584e-03,9.99999e-01,4.04584e-03,9.99999e-01
5.671322110e-01,4.51103e-03,9.99999e-01,4.51103e-03,9.99999e-01
5.699678720e-01,5.01892e-03,9.99999e-01,5.01892e-03,9.99999e-01
5.728177114e-01,5.57222e-03,9.99999e-01,5.57222e-03,9.99999e-01
5.756818000e-01,6.17376e-03,9.99999e-01,6.17376e-03,9.99999e-01
5.785602090e-01,6.82641e-03,9.99999e-01,6.82641e-03,9.99999e-01
5.814530100e-01,7.53307e-03,9.99999e-01,7.53307e-03,9.99999e-01
5.843602750e-01,8.29674e-03,9.99999e-01,8.29674e-03,9.99999e-01
5.872820764e-01,9.12040e-03,9.99999e-01,9.12040e-03,9.99999e-01
5.902184868e-01,1.00071e-02,9.99999e-01,1.00071e-02,9.99999e-01
5.931695792e-01,1.09599e-02,9.99999e-01,1.09599e-02,9.99999e-01
5.961354271e-01,1.19819e-02,9.99999e-01,1.19819e-02,9.99999e-01
5.991161043e-01,1.30762e-02,9.99999e-01,1.30762e-02,9.99999e-01
6.021116848e-01,1.42457e-02,9.99999e-01,1.42457e-02,9.99999e-01
6.051222432e-01,1.54936e-02,9.99999e-01,1.54936e-02,9.99999e-01
6.081478544e-01,1.68230e-02,9.99999e-01,1.68230e-02,9.99999e-01
6.111885937e-01,1.82367e-02,9.99999e-01,1.82367e-02,9.99999e-01
6.142445367e-01,1.97377e-02,9.99999e-01,1.97377e-02,9.99999e-01
6.173157594e-01,2.13289e-02,9.99999e-01,2.13289e-02,9.99999e-01
6.204023382e-01,2.30131e-02,9.99999e-01,2.30131e-02,9.99999e-01
6.235043498e-01,2.47931e-02,9.99999e-01,2.47931e-02,9.99999e-01
6.266218716e-01,2.66714e-02,9.99999e-01,2.66714e-02,9.99999e-01
6.297549810e-01,2.86507e-02,9.99999e-01,2.86507e-02,9.99999e-01
6.329037559e-01,3.07334e-02,9.99999e-01,3.07334e-02,9.99999e-01
6.360682746e-01,3.29219e-02,9.99999e-01,3.29219e-02,9.99999e-01
6.392486160e-01,3.52182e-02,9.99999e-01,3.52182e-02,9.99999e-01
6.424448591e-01,3.76247e-02,9.99999e-01,3.76247e-02,9.99999e-01
6.456570834e-01,4.01431e-02,9.99999e-01,4.01431e-02,9.99999e-01
6.488853688e-01,4.27753e-02,9.99999e-01,4.27753e-02,9.99999e-01
6.521297956e-01,4.55229e-02,9.99999e-01,4.55229e-02,9.99999e-01
6.553904446e-01,4.83875e-02,9.99999e-01,4.83875e-02,9.99999e-01
6.586673968e-01,5.13704e-02,9.99999e-01,5.13704e-02,9.99999e-01
6.619607338e-01,5.44728e-02,9.99999e-01,5.44728e-02,9.99999e-01
6.652705375e-01,5.76957e-02,9.99999e-01,5.76957e-02,9.99999e-01
6.685968902e-01,6.10399e-02,9.99999e-01,6.10399e-02,9.99999e-01
6.719398746e-01,6.45061e-02,9.99999e-01,6.45061e-02,9.99999e-01
6.752995740e-01,6.80948e-02,9.99999e-01,6.80948e-02,9.99999e-01
6.786760719e-01,7.18064e-02,9.99999e-01,7.18064e-02,9.99999e-01
6.820694522e-01,7.56409e-02,9.99999e-01,7.56409e-02,9.99999e-01
6.854797995e-01,7.95983e-02,9.99999e-01,7.95983e-02,9.99999e-01
6.889071985e-01,8.36785e-02,9.99999e-01,8.36785e-02,9.99999e-01
6.923517345e-01,8.78810e-02,9.99999e-01,8.78810e-02,9.99999e-01
6.958134932e-01,9.22052e-02,9.99999e-01,9.22052e-02,9.99999e-01
6.992925606e-01,9.66505e-02,9.99999e-01,9.66505e-02,9.99999e-01
7.027890234e-01,1.01216e-01,9.99999e-01,1.01216e-01,9.99999e-01
7.063029686e-01,1.05900e-01,9.99999e-01,1.05900e-01,9.99999e-01
7.098344834e-01,1.10703e-01,9.99999e-01,1.10703e-01,9.99999e-01
7.133836558e-01,1.15622e-01,9.99999e-01,1.15622e-01,9.99999e-01
7.169505741e-01,1.20655e-01,9.99999e-01,1.20655e-01,9.99999e-01
7.205353270e-01,1.25802e-01,9.99999e-01,1.25802e-01,9.99999e-01
7.241380036e-01,1.31060e-01,9.99999e-01,1.31060e-01,9.99999e-01
7.277586936e-01,1.36428e-01,9.99999e-01,1.36428e-01,9.99999e-01
7.313974871e-01,1.41903e-01,9.99999e-01,1.41903e-01,9.99999e-01
7.350544745e-01,1.47483e-01,9.99999e-01,1.47483e-01,9.99999e-01
7.387297469e-01,1.53165e-01,9.99999e-01,1.53165e-01,9.99999e-01
7.424233956e-01,1.58948e-01,9.99999e-01,1.58948e-01,9.99999e-01
7.461355126e-01,1.64829e-01,9.99999e-01,1.64829e-01,9.99999e-01
7.498661902e-01,1.70804e-01,9.99999e-01,1.70804e-01,9.99999e-01
7.536155211e-01,1.76872e-01,9.99999e-01,1.76872e-01,9.99999e-01
7.573835987e-01,1.83029e-01,9.99999e-01,1.83029e-01,9.99999e-01
7.611705167e-01,1.89272e-01,9.99999e-01,1.89272e-01,9.99999e-01
7.649763693e-01,1.95599e-01,9.99999e-01,1.95599e-01,9.99999e-01
7.688012511e-01,2.02005e-01,9.99999e-01,2.02005e-01,9.99999e-01
7.726452574e-01,2.08489e-01,9.99999e-01,2.08489e-01,9.99999e-01
7.765084837e-01,2.15047e-01,9.99999e-01,2.15047e-01,9.99999e-01
7.803910261e-01,2.07499e-01,9.36050e-01,2.21675e-01,9.99999e-01
7.842929812e-01,1.67785e-01,7.34702e-01,2.28371e-01,9.99999e-01
7.882144461e-01,1.69399e-01,7.20443e-01,2.35131e-01,9.99999e-01
7.921555184e-01,1.98688e-01,8.21189e-01,2.41951e-01,9.99999e-01
7.961162960e-01,2.17933e-01,8.75833e-01,2.48829e-01,9.99999e-01
8.000968774e-01,2.38007e-01,9.30586e-01,2.55760e-01,9.99999e-01
8.040973618e-01,2.53127e-01,9.63404e-01,2.62742e-01,9.99999e-01
8.081178486e-01,2.65189e-01,9.83015e-01,2.69771e-01,9.99999e-01
8.121584379e-01,2.75385e-01,9.94730e-01,2.76844e-01,9.99999e-01
8.162192301e-01,2.83626e-01,9.98834e-01,2.83957e-01,9.99999e-01
8.203003262e-01,2.91101e-01,9.99982e-01,2.91106e-01,9.99999e-01
8.244018279e-01,2.98290e-01,9.99999e-01,2.98290e-01,9.99999e-01
8.285238370e-01,3.05503e-01,9.99999e-01,3.05503e-01,9.99999e-01
8.326664562e-01,3.12743e-01,9.99999e-01,3.12743e-01,9.99999e-01
8.368297885e-01,3.20006e-01,9.99999e-01,3.20006e-01,9.99999e-01
8.410139374e-01,3.27290e-01,9.99999e-01,3.27290e-01,9.99999e-01
8.452190071e-01,3.34591e-01,9.99999e-01,3.34591e-01,9.99999e-01
8.494451021e-01,3.41906e-01,9.99999e-01,3.41906e-01,9.99999e-01
8.536923276e-01,3.49231e-01,9.99999e-01,3.49231e-01,9.99999e-01
8.579607893e-01,3.56564e-01,9.99999e-01,3.56564e-01,9.99999e-01
8.622505932e-01,3.63901e-01,9.99999e-01,3.63901e-01,9.99999e-01
8.665618462e-01,3.30107e-01,8.89200e-01,3.71241e-01,9.99999e-01
8.708946554e-01,1.75667e-01,4.64017e-01,3.78578e-01,9.99999e-01
8.752491287e-01,2.05416e-01,5.32287e-01,3.85912e-01,9.99999e-01
8.796253743e-01,2.76588e-01,7.03358e-01,3.93239e-01,9.99999e-01
8.840235012e-01,3.33124e-01,8.31654e-01,4.00556e-01,9.99999e-01
8.884436187e-01,3.79196e-01,9.29719e-01,4.07860e-01,9.99999e-01
8.928858368e-01,4.03056e-01,9.70869e-01,4.15149e-01,9.99999e-01
8.973502660e-01,4.19402e-01,9.92852e-01,4.22421e-01,9.99999e-01
9.018370173e-01,4.29334e-01,9.99210e-01,4.29673e-01,9.99999e-01
9.063462024e-01,4.28175e-01,9.80022e-01,4.36903e-01,9.99999e-01
9.108779334e-01,4.23889e-01,9.54473e-01,4.44107e-01,9.99999e-01
9.154323231e-01,4.46381e-01,9.89132e-01,4.51285e-01,9.99999e-01
9.200094847e-01,3.95242e-01,8.62157e-01,4.58434e-01,9.99999e-01
9.246095321e-01,3.70876e-01,7.96639e-01,4.65551e-01,9.99999e-01
9.292325798e-01,3.96108e-01,8.38085e-01,4.72635e-01,9.99999e-01
9.338787427e-01,4.04016e-01,8.42256e-01,4.79683e-01,9.99999e-01
9.385481364e-01,4.28765e-01,8.80972e-01,4.86694e-01,9.99999e-01
9.432408771e-01,4.56724e-01,9.25166e-01,4.93667e-01,9.99999e-01
9.479570815e-01,4.81001e-01,9.60852e-01,5.00598e-01,9.99999e-01
9.526968669e-01,4.97817e-01,9.80945e-01,5.07487e-01,9.99999e-01
9.574603512e-01,5.10117e-01,9.91805e-01,5.14332e-01,9.99999e-01
9.622476530e-01,5.19796e-01,9.97437e-01,5.21131e-01,9.99999e-01
9.670588912e-01,5.27478e-01,9.99231e-01,5.27884e-01,9.99999e-01
9.718941857e-01,5.34559e-01,9.99945e-01,5.34588e-01,9.99999e-01
9.767536566e-01,5.41242e-01,9.99999e-01,5.41242e-01,9.99999e-01
9.816374249e-01,5.47844e-01,9.99999e-01,5.47844e-01,9.99999e-01
9.865456120e-01,5.54395e-01,9.99999e-01,5.54395e-01,9.99999e-01
9.914783401e-01,5.60893e-01,9.99999e-01,5.60893e-01,9.99999e-01
9.964357318e-01,5.67335e-01,9.99999e-01,5.67335e-01,9.99999e-01
1.001417910e+00,5.73723e-01,9.99999e-01,5.73723e-01,9.99999e-01
1.006425000e+00,5.80054e-01,9.99999e-01,5.80054e-01,9.99999e-01
1.011457125e+00,5.86328e-01,9.99999e-01,5.86328e-01,9.99999e-01
1.016514411e+00,5.92544e-01,9.99999e-01,5.92544e-01,9.99999e-01
1.021596983e+00,5.98636e-01,9.99891e-01,5.98700e-01,9.99999e-01
1.026704968e+00,6.00026e-01,9.92110e-01,6.04798e-01,9.99999e-01
1.031838492e+00,5.65859e-01,9.26368e-01,6.10835e-01,9.99999e-01
1.036997685e+00,4.71345e-02,7.64164e-02,6.16812e-01,9.99999e-01
1.042182673e+00,1.03031e-02,1.65451e-02,6.22727e-01,9.99999e-01
1.047393587e+00,1.98998e-02,3.16583e-02,6.28580e-01,9.99999e-01
1.052630555e+00,2.70696e-05,4.26716e-05,6.34371e-01,9.99999e-01
1.057893707e+00,9.59428e-05,1.49887e-04,6.40100e-01,9.99999e-01
1.063183176e+00,9.13007e-04,1.41384e-03,6.45765e-01,9.99999e-01
1.068499092e+00,5.37605e-03,8.25348e-03,6.51368e-01,9.99999e-01
1.073841587e+00,3.07787e-02,4.68539e-02,6.56907e-01,9.99999e-01
1.079210795e+00,9.58388e-02,1.44688e-01,6.62382e-01,9.99999e-01
1.084606849e+00,2.26164e-01,3.38673e-01,6.67793e-01,9.99999e-01
1.090029883e+00,3.82520e-01,5.68262e-01,6.73140e-01,9.99999e-01
1.095480033e+00,5.13233e-01,7.56508e-01,6.78424e-01,9.99999e-01
1.100957433e+00,5.97411e-01,8.73863e-01,6.83643e-01,9.99999e-01
1.106462220e+00,6.51418e-01,9.45731e-01,6.88798e-01,9.99999e-01
1.111994531e+00,6.79677e-01,9.79518e-01,6.93889e-01,9.99999e-01
1.117554504e+00,6.95397e-01,9.94964e-01,6.98916e-01,9.99999e-01
1.123142276e+00,7.03646e-01,9.99668e-01,7.03879e-01,9.99999e-01
1.128757988e+00,7.08778e-01,9.99999e-01,7.08778e-01,9.99999e-01
1.134401778e+00,7.13613e-01,9.99999e-01,7.13613e-01,9.99999e-01
1.140073787e+00,7.18385e-01,9.99999e-01,7.18385e-01,9.99999e-01
1.145774156e+00,7.23094e-01,9.99999e-01,7.23094e-01,9.99999e-01
1.151503026e+00,7.27739e-01,9.99999e-01,7.27739e-01,9.99999e-01
1.157260541e+00,7.32322e-01,9.99999e-01,7.32322e-01,9.99999e-01
1.163046844e+00,7.36842e-01,9.99999e-01,7.36842e-01,9.99999e-01
1.168862078e+00,7.41300e-01,9.99999e-01,7.41300e-01,9.99999e-01
1.174706389e+00,7.45697e-01,9.99999e-01,7.45697e-01,9.99999e-01
1.180579921e+00,7.50031e-01,9.99999e-01,7.50031e-01,9.99999e-01
1.186482820e+00,7.54294e-01,9.99984e-01,7.54305e-01,9.99999e-01
1.192415234e+00,7.37724e-01,9.72586e-01,7.58518e-01,9.99999e-01
1.198377311e+00,4.09617e-01,5.37083e-01,7.62670e-01,9.99999e-01
1.204369197e+00,3.54081e-21,4.61787e-21,7.66762e-01,9.99999e-01
1.210391043e+00,1.44603e-83,1.87602e-83,7.70795e-01,9.99999e-01
1.216442998e+00,2.06913e-72,2.67064e-72,7.74769e-01,9.99999e-01
1.222525213e+00,2.46858e-71,3.17019e-71,7.78684e-01,9.99999e-01
1.228637839e+00,3.83136e-55,4.89604e-55,7.82541e-01,9.99999e-01
1.234781029e+00,1.31989e-34,1.67851e-34,7.86341e-01,9.99999e-01
1.240954934e+00,4.26354e-23,5.39631e-23,7.90083e-01,9.99999e-01
1.247159708e+00,1.51426e-11,1.90769e-11,7.93768e-01,9.99999e-01
1.253395507e+00,8.94595e-08,1.12189e-07,7.97398e-01,9.99999e-01
1.259662485e+00,8.60278e-05,1.07404e-04,8.00972e-01,9.99999e-01
1.265960797e+00,4.68132e-03,5.81898e-03,8.04491e-01,9.99999e-01
1.272290601e+00,7.95593e-02,9.84698e-02,8.07955e-01,9.99999e-01
1.278652054e+00,6.90749e-02,8.51341e-02,8.11366e-01,9.99999e-01
1.285045314e+00,2.72338e-04,3.34270e-04,8.14723e-01,9.99999e-01
1.291470541e+00,3.06965e-10,3.75250e-10,8.18027e-01,9.99999e-01
1.297927893e+00,7.95454e-05,9.68554e-05,8.21279e-01,9.99999e-01
1.304417533e+00,1.17359e-02,1.42343e-02,8.24479e-01,9.99999e-01
1.310939621e+00,2.79199e-03,3.37347e-03,8.27628e-01,9.99999e-01
1.317494319e+00,8.23257e-29,9.91007e-29,8.30727e-01,9.99999e-01
1.324081790e+00,3.75547e-19,4.50417e-19,8.33775e-01,9.99999e-01
1.330702199e+00,2.22987e-11,2.66484e-11,8.36775e-01,9.99999e-01
1.337355710e+00,1.31378e-10,1.56453e-10,8.39725e-01,9.99999e-01
1.344042489e+00,5.64354e-11,6.69755e-11,8.42628e-01,9.99999e-01
1.350762701e+00,1.19607e-11,1.41466e-11,8.45482e-01,9.99999e-01
1.357516515e+00,2.09179e-07,2.46589e-07,8.48290e-01,9.99999e-01
1.364304097e+00,2.20190e-05,2.58726e-05,8.51051e-01,9.99999e-01
1.371125618e+00,3.82004e-03,4.47433e-03,8.53767e-01,9.99999e-01
1.377981246e+00,8.54169e-03,9.97351e-03,8.56437e-01,9.99999e-01
1.384871152e+00,5.86887e-02,6.83170e-02,8.59063e-01,9.99999e-01
1.391795508e+00,7.23199e-02,8.39324e-02,8.61645e-01,9.99999e-01
1.398754485e+00,1.83971e-01,2.12884e-01,8.64183e-01,9.99999e-01
1.405748258e+00,2.79522e-01,3.22520e-01,8.66678e-01,9.99999e-01
1.412776999e+00,4.23792e-01,4.87603e-01,8.69131e-01,9.99999e-01
1.419840884e+00,3.84537e-01,4.41214e-01,8.71542e-01,9.99999e-01
1.426940089e+00,1.93074e-02,2.20931e-02,8.73912e-01,9.99999e-01
1.434074789e+00,0.00000e+00,0.00000e+00,8.76242e-01,9.99999e-01
1.441245163e+00,0.00000e+00,0.00000e+00,8.78531e-01,9.99999e-01
1.448451389e+00,0.00000e+00,0.00000e+00,8.80782e-01,9.99999e-01
1.455693646e+00,0.00000e+00,0.00000e+00,8.82993e-01,9.99999e-01
1.462972114e+00,0.00000e+00,0.00000e+00,8.85166e-01,9.99999e-01
1.470286975e+00,4.60706e-138,5.19221e-138,8.87301e-01,9.99999e-01
1.477638409e+00,7.33701e-87,8.24940e-87,8.89399e-01,9.99999e-01
1.485026601e+00,1.76451e-48,1.97935e-48,8.91461e-01,9.99999e-01
1.492451734e+00,2.61035e-41,2.92153e-41,8.93486e-01,9.99999e-01
1.499913993e+00,4.30424e-18,4.80665e-18,8.95476e-01,9.99999e-01
1.507413563e+00,7.44864e-17,8.29995e-17,8.97431e-01,9.99999e-01
1.514950631e+00,2.55829e-18,2.84459e-18,8.99351e-01,9.99999e-01
1.522525384e+00,8.18041e-62,9.07685e-62,9.01238e-01,9.99999e-01
1.530138011e+00,2.58368e-147,2.86093e-147,9.03091e-01,9.99999e-01
1.537788701e+00,4.97611e-109,5.49901e-109,9.04911e-01,9.99999e-01
1.545477645e+00,3.38200e-23,3.73001e-23,9.06699e-01,9.99999e-01
1.553205033e+00,7.39538e-17,8.14061e-17,9.08454e-01,9.99999e-01
1.560971058e+00,3.22057e-17,3.53839e-17,9.10179e-01,9.99999e-01
1.568775913e+00,0.00000e+00,0.00000e+00,9.11872e-01,9.99999e-01
1.576619793e+00,0.00000e+00,0.00000e+00,9.13536e-01,9.99999e-01
1.584502892e+00,0.00000e+00,0.00000e+00,9.15169e-01,9.99999e-01
1.592425406e+00,0.00000e+00,0.00000e+00,9.16773e-01,9.99999e-01
1.600387533e+00,0.00000e+00,0.00000e+00,9.18348e-01,9.99999e-01
1.608389471e+00,0.00000e+00,0.00000e+00,9.19894e-01,9.99999e-01
1.616431418e+00,0.00000e+00,0.00000e+00,9.21412e-01,9.99999e-01
1.624513575e+00,0.00000e+00,0.00000e+00,9.22903e-01,9.99999e-01
1.632636143e+00,1.32282e-313,1.43106e-313,9.24367e-01,9.99999e-01
1.640799324e+00,6.35024e-128,6.85915e-128,9.25804e-01,9.99999e-01
1.649003321e+00,6.35762e-128,6.85668e-128,9.27215e-01,9.99999e-01
1.657248337e+00,6.68663e-99,7.20076e-99,9.28600e-01,9.99999e-01
1.665534579e+00,1.46481e-99,1.57513e-99,9.29960e-01,9.99999e-01
1.673862252e+00,1.48144e-63,1.59073e-63,9.31294e-01,9.99999e-01
1.682231563e+00,4.51493e-44,4.84121e-44,9.32605e-01,9.99999e-01
1.690642721e+00,1.40920e-24,1.50896e-24,9.33891e-01,9.99999e-01
1.699095934e+00,9.50000e-16,1.01588e-15,9.35153e-01,9.99999e-01
1.707591414e+00,2.71946e-08,2.90418e-08,9.36393e-01,9.99999e-01
1.716129371e+00,3.96645e-05,4.23039e-05,9.37609e-01,9.99999e-01
1.724710018e+00,2.95382e-03,3.14637e-03,9.38803e-01,9.99999e-01
1.733333568e+00,2.05938e-02,2.19089e-02,9.39975e-01,9.99999e-01
1.742000236e+00,1.00860e-01,1.07169e-01,9.41125e-01,9.99999e-01
1.750710237e+00,6.30314e-04,6.68943e-04,9.42253e-01,9.99999e-01
1.759463788e+00,1.08331e-60,1.14835e-60,9.43361e-01,9.99999e-01
1.768261107e+00,1.62847e-63,1.72425e-63,9.44448e-01,9.99999e-01
1.777102413e+00,8.01400e-62,8.47579e-62,9.45515e-01,9.99999e-01
1.785987925e+00,5.71976e-58,6.04267e-58,9.46562e-01,9.99999e-01
1.794917864e+00,2.31587e-55,2.44395e-55,9.47589e-01,9.99999e-01
1.803892454e+00,3.20589e-53,3.37961e-53,9.48597e-01,9.99999e-01
1.812911916e+00,3.85162e-51,4.05609e-51,9.49586e-01,9.99999e-01
1.821976476e+00,3.33975e-51,3.51346e-51,9.50557e-01,9.99999e-01
1.831086358e+00,3.77581e-41,3.96823e-41,9.51510e-01,9.99999e-01
1.840241790e+00,4.61909e-35,4.84972e-35,9.52444e-01,9.99999e-01
1.849442999e+00,2.15700e-24,2.26251e-24,9.53361e-01,9.99999e-01
1.858690214e+00,6.41727e-23,6.72485e-23,9.54261e-01,9.99999e-01
1.867983665e+00,1.51142e-23,1.58240e-23,9.55144e-01,9.99999e-01
1.877323583e+00,7.54313e-116,7.89021e-116,9.56010e-01,9.99999e-01
