#,Wave/freq,Total,CO2,Rayleigh,CIA
4.000000000e-01,9.83057e-10,9.99999e-01,9.83057e-10,9.99999e-01
4.020000000e-01,1.48143e-09,9.99999e-01,1.48143e-09,9.99999e-01
4.040100000e-01,2.21351e-09,9.99999e-01,2.21351e-09,9.99999e-01
4.060300500e-01,3.28123e-09,9.99999e-01,3.28123e-09,9.99999e-01
4.080602003e-01,4.82632e-09,9.99999e-01,4.82632e-09,9.99999e-01
4.101005013e-01,7.04507e-09,9.99999e-01,7.04507e-09,9.99999e-01
4.121510038e-01,1.02073e-08,9.99999e-01,1.02073e-08,9.99999e-01
4.142117588e-01,1.46809e-08,9.99999e-01,1.46809e-08,9.99999e-01
4.162828176e-01,2.09643e-08,9.99999e-01,2.09643e-08,9.99999e-01
4.183642317e-01,2.97269e-08,9.99999e-01,2.97269e-08,9.99999e-01
4.204560528e-01,4.18624e-08,9.99999e-01,4.18624e-08,9.99999e-01
4.225583331e-01,5.85546e-08,9.99999e-01,5.85546e-08,9.99999e-01
4.246711247e-01,8.13616e-08,9.99999e-01,8.13616e-08,9.99999e-01
4.267944804e-01,1.12320e-07,9.99999e-01,1.12320e-07,9.99999e-01
4.289284528e-01,1.54073e-07,9.99999e-01,1.54073e-07,9.99999e-01
4.310730950e-01,2.10032e-07,9.99999e-01,2.10032e-07,9.99999e-01
4.332284605e-01,2.84569e-07,9.99999e-01,2.84569e-07,9.99999e-01
4.353946028e-01,3.83251e-07,9.99999e-01,3.83251e-07,9.99999e-01
4.375715758e-01,5.13128e-07,9.99999e-01,5.13128e-07,9.99999e-01
4.397594337e-01,6.83069e-07,9.99999e-01,6.83069e-07,9.99999e-01
4.419582309e-01,9.04168e-07,9.99999e-01,9.04168e-07,9.99999e-01
4.441680220e-01,1.19022e-06,9.99999e-01,1.19022e-06,9.99999e-01
4.463888621e-01,1.55829e-06,9.99999e-01,1.55829e-06,9.99999e-01
4.486208064e-01,2.02936e-06,9.99999e-01,2.02936e-06,9.99999e-01
4.508639105e-01,2.62907e-06,9.99999e-01,2.62907e-06,9.99999e-01
4.531182300e-01,3.38864e-06,9.99999e-01,3.38864e-06,9.99999e-01
4.553838212e-01,4.34581e-06,9.99999e-01,4.34581e-06,9.99999e-01
4.576607403e-01,5.54603e-06,9.99999e-01,5.54603e-06,9.99999e-01
4.599490440e-01,7.04371e-06,9.99999e-01,7.04371e-06,9.99999e-01
4.622487892e-01,8.90369e-06,9.99999e-01,8.90369e-06,9.99999e-01
4.645600332e-01,1.12029e-05,9.99999e-01,1.12029e-05,9.99999e-01
4.668828333e-01,1.40319e-05,9.99999e-01,1.40319e-05,9.99999e-01
4.692172475e-01,1.74974e-05,9.99999e-01,1.74974e-05,9.99999e-01
4.715633337e-01,2.17238e-05,9.99999e-01,2.17238e-05,9.99999e-01
4.739211504e-01,2.68561e-05,9.99999e-01,2.68561e-05,9.99999e-01
4.762907561e-01,3.30621e-05,9.99999e-01,3.30621e-05,9.99999e-01
4.786722099e-01,4.05355e-05,9.99999e-01,4.05355e-05,9.99999e-01
4.810655710e-01,4.94984e-05,9.99999e-01,4.94984e-05,9.99999e-01
4.834708988e-01,6.02052e-05,9.99999e-01,6.02052e-05,9.99999e-01
4.858882533e-01,7.29452e-05,9.99999e-01,7.29452e-05,9.99999e-01
4.883176946e-01,8.80466e-05,9.99999e-01,8.80466e-05,9.99999e-01
4.907592831e-01,1.05880e-04,9.99999e-01,1.05880e-04,9.99999e-01
4.932130795e-01,1.26863e-04,9.99999e-01,1.26863e-04,9.99999e-01
4.956791449e-01,1.51462e-04,9.99999e-01,1.51462e-04,9.99999e-01
4.981575406e-01,1.80199e-04,9.99999e-01,1.80199e-04,9.99999e-01
5.006483283e-01,2.13653e-04,9.99999e-01,2.13653e-04,9.99999e-01
5.031515699e-01,2.52468e-04,9.99999e-01,2.52468e-04,9.99999e-01
5.056673278e-01,2.97353e-04,9.99999e-01,2.97353e-04,9.99999e-01
5.081956644e-01,3.49087e-04,9.99999e-01,3.49087e-04,9.99999e-01
5.107366428e-01,4.08526e-04,9.99999e-01,4.08526e-04,9.99999e-01
5.132903260e-01,4.76603e-04,9.99999e-01,4.76603e-04,9.99999e-01
5.158567776e-01,5.54333e-04,9.99999e-01,5.54333e-04,9.99999e-01
5.184360615e-01,6.42820e-04,9.99999e-01,6.42820e-04,9.99999e-01
5.210282418e-01,7.43255e-04,9.99999e-01,7.43255e-04,9.99999e-01
5.236333830e-01,8.56920e-04,9.99999e-01,8.56920e-04,9.99999e-01
5.262515499e-01,9.85196e-04,9.99999e-01,9.85196e-04,9.99999e-01
5.288828077e-01,1.12956e-03,9.99999e-01,1.12956e-03,9.99999e-01
5.315272217e-01,1.29158e-03,9.99999e-01,1.29158e-03,9.99999e-01
5.341848578e-01,1.47293e-03,9.99999e-01,1.47293e-03,9.99999e-01
5.368557821e-01,1.67540e-03,9.99999e-01,1.67540e-03,9.99999e-01
5.395400610e-01,1.90085e-03,9.99999e-01,1.90085e-03,9.99999e-01
5.422377613e-01,2.15128e-03,9.99999e-01,2.15128e-03,9.99999e-01
5.449489501e-01,2.42875e-03,9.99999e-01,2.42875e-03,9.99999e-01
5.476736949e-01,2.73544e-03,9.99999e-01,2.73544e-03,9.99999e-01
5.504120634e-01,3.07364e-03,9.99999e-01,3.07364e-03,9.99999e-01
5.531641237e-01,3.44570e-03,9.99999e-01,3.44570e-03,9.99999e-01
5.559299443e-01,3.85409e-03,9.99999e-01,3.85409e-03,9.99999e-01
5.587095940e-01,4.30136e-03,9.99999e-01,4.30136e-03,9.99999e-01
5.615031420e-01,4.79014e-03,9.99999e-01,4.79014e-03,9.99999e-01
5.643106577e-01,5.32313e-03,9.99999e-01,5.32313e-03,9.99999e-01
5.671322110e-01,5.90311e-03,9.99999e-01,5.90311e-03,9.99999e-01
5.699678720e-01,6.53293e-03,9.99999e-01,6.53293e-03,9.99999e-01
5.728177114e-01,7.21547e-03,9.99999e-01,7.21547e-03,9.99999e-01
5.756818000e-01,7.95370e-03,9.99999e-01,7.95370e-03,9.99999e-01
5.785602090e-01,8.75061e-03,9.99999e-01,8.75061e-03,9.99999e-01
5.814530100e-01,9.60922e-03,9.99999e-01,9.60922e-03,9.99999e-01
5.843602750e-01,1.05326e-02,9.99999e-01,1.05326e-02,9.99999e-01
5.872820764e-01,1.15238e-02,9.99999e-01,1.15238e-02,9.99999e-01
5.902184868e-01,1.25859e-02,9.99999e-01,1.25859e-02,9.99999e-01
5.931695792e-01,1.37219e-02,9.99999e-01,1.37219e-02,9.99999e-01
5.961354271e-01,1.49350e-02,9.99999e-01,1.49350e-02,9.99999e-01
5.991161043e-01,1.62282e-02,9.99999e-01,1.62282e-02,9.99999e-01
6.021116848e-01,1.76044e-02,9.99999e-01,1.76044e-02,9.99999e-01
6.051222432e-01,1.90667e-02,9.99999e-01,1.90667e-02,9.99999e-01
6.081478544e-01,2.06179e-02,9.99999e-01,2.06179e-02,9.99999e-01
6.111885937e-01,2.22608e-02,9.99999e-01,2.22608e-02,9.99999e-01
6.142445367e-01,2.39984e-02,9.99999e-01,2.39984e-02,9.99999e-01
6.173157594e-01,2.58331e-02,9.99999e-01,2.58331e-02,9.99999e-01
6.204023382e-01,2.77677e-02,9.99999e-01,2.77677e-02,9.99999e-01
6.235043498e-01,2.98047e-02,9.99999e-01,2.98047e-02,9.99999e-01
6.266218716e-01,3.19463e-02,9.99999e-01,3.19463e-02,9.99999e-01
6.297549810e-01,3.41950e-02,9.99999e-01,3.41950e-02,9.99999e-01
6.329037559e-01,3.65528e-02,9.99999e-01,3.65528e-02,9.99999e-01
6.360682746e-01,3.90217e-02,9.99999e-01,3.90217e-02,9.99999e-01
6.392486160e-01,4.16036e-02,9.99999e-01,4.16036e-02,9.99999e-01
6.424448591e-01,4.43003e-02,9.99999e-01,4.43003e-02,9.99999e-01
6.456570834e-01,4.71133e-02,9.99999e-01,4.71133e-02,9.99999e-01
6.488853688e-01,5.00440e-02,9.99999e-01,5.00440e-02,9.99999e-01
6.521297956e-01,5.30937e-02,9.99999e-01,5.30937e-02,9.99999e-01
6.553904446e-01,5.62635e-02,9.99999e-01,5.62635e-02,9.99999e-01
6.586673968e-01,5.95543e-02,9.99999e-01,5.95543e-02,9.99999e-01
6.619607338e-01,6.29668e-02,9.99999e-01,6.29668e-02,9.99999e-01
6.652705375e-01,6.65016e-02,9.99999e-01,6.65016e-02,9.99999e-01
6.685968902e-01,7.01591e-02,9.99999e-01,7.01591e-02,9.99999e-01
6.719398746e-01,7.39395e-02,9.99999e-01,7.39395e-02,9.99999e-01
6.752995740e-01,7.78429e-02,9.99999e-01,7.78429e-02,9.99999e-01
6.786760719e-01,8.18692e-02,9.99999e-01,8.18692e-02,9.99999e-01
6.820694522e-01,8.60179e-02,9.99999e-01,8.60179e-02,9.99999e-01
6.854797995e-01,9.02887e-02,9.99999e-01,9.02887e-02,9.99999e-01
6.889071985e-01,9.46809e-02,9.99999e-01,9.46809e-02,9.99999e-01
6.923517345e-01,9.91936e-02,9.99999e-01,9.91936e-02,9.99999e-01
6.958134932e-01,1.03826e-01,9.99999e-01,1.03826e-01,9.99999e-01
6.992925606e-01,1.08577e-01,9.99999e-01,1.08577e-01,9.99999e-01
7.027890234e-01,1.13444e-01,9.99999e-01,1.13444e-01,9.99999e-01
7.063029686e-01,1.18428e-01,9.99999e-01,1.18428e-01,9.99999e-01
7.098344834e-01,1.23525e-01,9.99999e-01,1.23525e-01,9.99999e-01
7.133836558e-01,1.28734e-01,9.99999e-01,1.28734e-01,9.99999e-01
7.169505741e-01,1.34054e-01,9.99999e-01,1.34054e-01,9.99999e-01
7.205353270e-01,1.39482e-01,9.99999e-01,1.39482e-01,9.99999e-01
7.241380036e-01,1.45016e-01,9.99999e-01,1.45016e-01,9.99999e-01
7.277586936e-01,1.50654e-01,9.99999e-01,1.50654e-01,9.99999e-01
7.313974871e-01,1.56393e-01,9.99999e-01,1.56393e-01,9.99999e-01
7.350544745e-01,1.62231e-01,9.99999e-01,1.62231e-01,9.99999e-01
7.387297469e-01,1.68165e-01,9.99999e-01,1.68165e-01,9.99999e-01
7.424233956e-01,1.74192e-01,9.99999e-01,1.74192e-01,9.99999e-01
7.461355126e-01,1.80310e-01,9.99999e-01,1.80310e-01,9.99999e-01
7.498661902e-01,1.86516e-01,9.99999e-01,1.86516e-01,9.99999e-01
7.536155211e-01,1.92806e-01,9.99999e-01,1.92806e-01,9.99999e-01
7.573835987e-01,1.99178e-01,9.99999e-01,1.99178e-01,9.99999e-01
7.611705167e-01,2.05629e-01,9.99999e-01,2.05629e-01,9.99999e-01
7.649763693e-01,2.12154e-01,9.99999e-01,2.12154e-01,9.99999e-01
7.688012511e-01,2.18752e-01,9.99999e-01,2.18752e-01,9.99999e-01
7.726452574e-01,2.25419e-01,9.99999e-01,2.25419e-01,9.99999e-01
7.765084837e-01,2.32151e-01,9.99999e-01,2.32151e-01,9.99999e-01
7.803910261e-01,2.24285e-01,9.38648e-01,2.38945e-01,9.99999e-01
7.842929812e-01,1.83232e-01,7.45459e-01,2.45798e-01,9.99999e-01
7.882144461e-01,1.84855e-01,7.31504e-01,2.52706e-01,9.99999e-01
7.921555184e-01,2.15302e-01,8.29149e-01,2.59666e-01,9.99999e-01
7.961162960e-01,2.35101e-01,8.81602e-01,2.66675e-01,9.99999e-01
8.000968774e-01,2.55639e-01,9.33912e-01,2.73728e-01,9.99999e-01
8.040973618e-01,2.71049e-01,9.65191e-01,2.80824e-01,9.99999e-01
8.081178486e-01,2.83309e-01,9.83853e-01,2.87958e-01,9.99999e-01
8.121584379e-01,2.93649e-01,9.94992e-01,2.95127e-01,9.99999e-01
8.162192301e-01,3.01992e-01,9.98892e-01,3.02327e-01,9.99999e-01
8.203003262e-01,3.09551e-01,9.99983e-01,3.09556e-01,9.99999e-01
8.244018279e-01,3.16810e-01,9.99999e-01,3.16810e-01,9.99999e-01
8.285238370e-01,3.24085e-01,9.99999e-01,3.24085e-01,9.99999e-01
8.326664562e-01,3.31379e-01,9.99999e-01,3.31379e-01,9.99999e-01
8.368297885e-01,3.38688e-01,9.99999e-01,3.38688e-01,9.99999e-01
8.410139374e-01,3.46009e-01,9.99999e-01,3.46009e-01,9.99999e-01
8.452190071e-01,3.53339e-01,9.99999e-01,3.53339e-01,9.99999e-01
8.494451021e-01,3.60674e-01,9.99999e-01,3.60674e-01,9.99999e-01
8.536923276e-01,3.68013e-01,9.99999e-01,3.68013e-01,9.99999e-01
8.579607893e-01,3.75352e-01,9.99999e-01,3.75352e-01,9.99999e-01
8.622505932e-01,3.82688e-01,9.99999e-01,3.82688e-01,9.99999e-01
8.665618462e-01,3.47824e-01,8.91815e-01,3.90018e-01,9.99999e-01
8.708946554e-01,1.90954e-01,4.80580e-01,3.97339e-01,9.99999e-01
8.752491287e-01,2.21902e-01,5.48379e-01,4.04650e-01,9.99999e-01
8.796253743e-01,2.94720e-01,7.15434e-01,4.11946e-01,9.99999e-01
8.840235012e-01,3.51831e-01,8.39238e-01,4.19226e-01,9.99999e-01
8.884436187e-01,3.97949e-01,9.33085e-01,4.26487e-01,9.99999e-01
8.928858368e-01,4.21712e-01,9.72298e-01,4.33726e-01,9.99999e-01
8.973502660e-01,4.37947e-01,9.93206e-01,4.40942e-01,9.99999e-01
9.018370173e-01,4.47796e-01,9.99249e-01,4.48132e-01,9.99999e-01
9.063462024e-01,4.46638e-01,9.80988e-01,4.55294e-01,9.99999e-01
9.108779334e-01,4.42394e-01,9.56681e-01,4.62425e-01,9.99999e-01
9.154323231e-01,4.64674e-01,9.89669e-01,4.69524e-01,9.99999e-01
9.200094847e-01,4.13541e-01,8.67711e-01,4.76588e-01,9.99999e-01
9.246095321e-01,3.89611e-01,8.05619e-01,4.83616e-01,9.99999e-01
9.292325798e-01,4.14704e-01,8.45290e-01,4.90606e-01,9.99999e-01
9.338787427e-01,4.22611e-01,8.49375e-01,4.97555e-01,9.99999e-01
9.385481364e-01,4.47210e-01,8.86507e-01,5.04463e-01,9.99999e-01
9.432408771e-01,4.74895e-01,9.28748e-01,5.11328e-01,9.99999e-01
9.479570815e-01,4.98853e-01,9.62762e-01,5.18147e-01,9.99999e-01
9.526968669e-01,5.15411e-01,9.81883e-01,5.24920e-01,9.99999e-01
9.574603512e-01,5.27505e-01,9.92211e-01,5.31646e-01,9.99999e-01
9.622476530e-01,5.37011e-01,9.97564e-01,5.38322e-01,9.99999e-01
9.670588912e-01,5.44550e-01,9.99269e-01,5.44947e-01,9.99999e-01
9.718941857e-01,5.51493e-01,9.99948e-01,5.51521e-01,9.99999e-01
9.767536566e-01,5.58042e-01,9.99999e-01,5.58042e-01,9.99999e-01
9.816374249e-01,5.64509e-01,9.99999e-01,5.64509e-01,9.99999e-01
9.865456120e-01,5.70921e-01,9.99999e-01,5.70921e-01,9.99999e-01
9.914783401e-01,5.77277e-01,9.99999e-01,5.77277e-01,9.99999e-01
9.964357318e-01,5.83576e-01,9.99999e-01,5.83576e-01,9.99999e-01
1.001417910e+00,5.89817e-01,9.99999e-01,5.89817e-01,9.99999e-01
1.006425000e+00,5.96000e-01,9.99999e-01,5.96000e-01,9.99999e-01
1.011457125e+00,6.02124e-01,9.99999e-01,6.02124e-01,9.99999e-01
1.016514411e+00,6.08188e-01,9.99999e-01,6.08188e-01,9.99999e-01
1.021596983e+00,6.14128e-01,9.99896e-01,6.14191e-01,9.99999e-01
1.026704968e+00,6.15482e-01,9.92499e-01,6.20133e-01,9.99999e-01
1.031838492e+00,5.81449e-01,9.28811e-01,6.26014e-01,9.99999e-01
1.036997685e+00,5.07016e-02,8.02453e-02,6.31832e-01,9.99999e-01
1.042182673e+00,1.25565e-02,1.96938e-02,6.37588e-01,9.99999e-01
1.047393587e+00,2.33071e-02,3.62314e-02,6.43282e-01,9.99999e-01
1.052630555e+00,4.12571e-05,6.35789e-05,6.48912e-01,9.99999e-01
1.057893707e+00,1.43933e-04,2.19920e-04,6.54479e-01,9.99999e-01
1.063183176e+00,1.24110e-03,1.88050e-03,6.59982e-01,9.99999e-01
1.068499092e+00,6.87526e-03,1.03322e-02,6.65421e-01,9.99999e-01
1.073841587e+00,3.63769e-02,5.42293e-02,6.70797e-01,9.99999e-01
1.079210795e+00,1.07180e-01,1.58525e-01,6.76108e-01,9.99999e-01
1.084606849e+00,2.43255e-01,3.57016e-01,6.81356e-01,9.99999e-01
1.090029883e+00,4.01121e-01,5.84266e-01,6.86539e-01,9.99999e-01
1.095480033e+00,5.30499e-01,7.66996e-01,6.91658e-01,9.99999e-01
1.100957433e+00,6.12918e-01,8.79727e-01,6.96713e-01,9.99999e-01
1.106462220e+00,6.65466e-01,9.48356e-01,7.01704e-01,9.99999e-01
1.111994531e+00,6.92871e-01,9.80527e-01,7.06631e-01,9.99999e-01
1.117554504e+00,7.08090e-01,9.95214e-01,7.11495e-01,9.99999e-01
1.123142276e+00,7.16069e-01,9.99685e-01,7.16294e-01,9.99999e-01
1.128757988e+00,7.21031e-01,9.99999e-01,7.21031e-01,9.99999e-01
1.134401778e+00,7.25704e-01,9.99999e-01,7.25704e-01,9.99999e-01
1.140073787e+00,7.30315e-01,9.99999e-01,7.30315e-01,9.99999e-01
1.145774156e+00,7.34862e-01,9.99999e-01,7.34862e-01,9.99999e-01
1.151503026e+00,7.39348e-01,9.99999e-01,7.39348e-01,9.99999e-01
1.157260541e+00,7.43771e-01,9.99999e-01,7.43771e-01,9.99999e-01
1.163046844e+00,7.48133e-01,9.99999e-01,7.48133e-01,9.99999e-01
1.168862078e+00,7.52433e-01,9.99999e-01,7.52433e-01,9.99999e-01
1.174706389e+00,7.56672e-01,9.99999e-01,7.56672e-01,9.99999e-01
1.180579921e+00,7.60851e-01,9.99999e-01,7.60851e-01,9.99999e-01
1.186482820e+00,7.64959e-01,9.99985e-01,7.64970e-01,9.99999e-01
1.192415234e+00,7.48944e-01,9.73882e-01,7.69029e-01,9.99999e-01
1.198377311e+00,4.16836e-01,5.39224e-01,7.73029e-01,9.99999e-01
1.204369197e+00,3.10364e-20,3.99454e-20,7.76970e-01,9.99999e-01
1.210391043e+00,1.62210e-79,2.07734e-79,7.80852e-01,9.99999e-01
1.216442998e+00,6.45873e-69,8.23106e-69,7.84677e-01,9.99999e-01
1.222525213e+00,6.81008e-68,8.63736e-68,7.88444e-01,9.99999e-01
1.228637839e+00,1.69453e-52,2.13913e-52,7.92155e-01,9.99999e-01
1.234781029e+00,5.39578e-33,6.78024e-33,7.95809e-01,9.99999e-01
1.240954934e+00,4.86047e-22,6.08008e-22,7.99407e-01,9.99999e-01
1.247159708e+00,4.39926e-11,5.47886e-11,8.02950e-01,9.99999e-01
1.253395507e+00,1.89467e-07,2.34943e-07,8.06438e-01,9.99999e-01
1.259662485e+00,1.31427e-04,1.62281e-04,8.09872e-01,9.99999e-01
1.265960797e+00,5.88975e-03,7.24221e-03,8.13253e-01,9.99999e-01
1.272290601e+00,8.97564e-02,1.09917e-01,8.16580e-01,9.99999e-01
1.278652054e+00,7.75876e-02,9.46356e-02,8.19855e-01,9.99999e-01
1.285045314e+00,3.52882e-04,4.28734e-04,8.23078e-01,9.99999e-01
1.291470541e+00,8.52914e-10,1.03227e-09,8.26250e-01,9.99999e-01
1.297927893e+00,1.14000e-04,1.37454e-04,8.29370e-01,9.99999e-01
1.304417533e+00,1.45312e-02,1.74561e-02,8.32441e-01,9.99999e-01
1.310939621e+00,3.43749e-03,4.11447e-03,8.35462e-01,9.99999e-01
1.317494319e+00,1.80414e-27,2.15179e-27,8.38434e-01,9.99999e-01
1.324081790e+00,2.67840e-18,3.18342e-18,8.41357e-01,9.99999e-01
1.330702199e+00,7.22122e-11,8.55358e-11,8.44233e-01,9.99999e-01
1.337355710e+00,3.68180e-10,4.34655e-10,8.47061e-01,9.99999e-01
1.344042489e+00,1.53654e-10,1.80802e-10,8.49843e-01,9.99999e-01
1.350762701e+00,3.90593e-11,4.58131e-11,8.52578e-01,9.99999e-01
1.357516515e+00,4.07653e-07,4.76637e-07,8.55269e-01,9.99999e-01
1.364304097e+00,3.65588e-05,4.26136e-05,8.57914e-01,9.99999e-01
1.371125618e+00,4.94434e-03,5.74579e-03,8.60515e-01,9.99999e-01
1.377981246e+00,1.07652e-02,1.24731e-02,8.63072e-01,9.99999e-01
1.384871152e+00,6.73927e-02,7.78578e-02,8.65586e-01,9.99999e-01
1.391795508e+00,8.21666e-02,9.46557e-02,8.68057e-01,9.99999e-01
1.398754485e+00,2.00088e-01,2.29857e-01,8.70487e-01,9.99999e-01
1.405748258e+00,2.97588e-01,3.40928e-01,8.72875e-01,9.99999e-01
1.412776999e+00,4.42192e-01,5.05233e-01,8.75222e-01,9.99999e-01
1.419840884e+00,4.00058e-01,4.55890e-01,8.77530e-01,9.99999e-01
1.426940089e+00,2.10092e-02,2.38796e-02,8.79797e-01,9.99999e-01
1.434074789e+00,0.00000e+00,0.00000e+00,8.82025e-01,9.99999e-01
1.441245163e+00,0.00000e+00,0.00000e+00,8.84215e-01,9.99999e-01
1.448451389e+00,0.00000e+00,0.00000e+00,8.86367e-01,9.99999e-01
1.455693646e+00,0.00000e+00,0.00000e+00,8.88481e-01,9.99999e-01
1.462972114e+00,7.14257e-316,8.02031e-316,8.90559e-01,9.99999e-01
1.470286975e+00,2.67978e-131,3.00222e-131,8.92600e-01,9.99999e-01
1.477638409e+00,1.20164e-82,1.34321e-82,8.94605e-01,9.99999e-01
1.485026601e+00,3.54768e-46,3.95691e-46,8.96576e-01,9.99999e-01
1.492451734e+00,2.37930e-39,2.64805e-39,8.98511e-01,9.99999e-01
1.499913993e+00,2.66791e-17,2.96299e-17,9.00412e-01,9.99999e-01
1.507413563e+00,4.60604e-16,5.10489e-16,9.02280e-01,9.99999e-01
1.514950631e+00,1.61557e-17,1.78691e-17,9.04114e-01,9.99999e-01
1.522525384e+00,7.57560e-59,8.36236e-59,9.05916e-01,9.99999e-01
1.530138011e+00,4.33246e-140,4.77307e-140,9.07686e-01,9.99999e-01
1.537788701e+00,1.03469e-103,1.13774e-103,9.09424e-01,9.99999e-01
1.545477645e+00,3.73662e-22,4.10107e-22,9.11131e-01,9.99999e-01
1.553205033e+00,4.45153e-16,4.87673e-16,9.12808e-01,9.99999e-01
1.560971058e+00,1.86525e-16,2.03974e-16,9.14454e-01,9.99999e-01
1.568775913e+00,0.00000e+00,0.00000e+00,9.16071e-01,9.99999e-01
1.576619793e+00,0.00000e+00,0.00000e+00,9.17659e-01,9.99999e-01
1.584502892e+00,0.00000e+00,0.00000e+00,9.19217e-01,9.99999e-01
1.592425406e+00,5.22648e-316,5.67634e-316,9.20748e-01,9.99999e-01
1.600387533e+00,0.00000e+00,0.00000e+00,9.22251e-01,9.99999e-01
1.608389471e+00,0.00000e+00,0.00000e+00,9.23727e-01,9.99999e-01
1.616431418e+00,0.00000e+00,0.00000e+00,9.25175e-01,9.99999e-01
1.624513575e+00,0.00000e+00,0.00000e+00,9.26598e-01,9.99999e-01
1.632636143e+00,4.25326e-298,4.58328e-298,9.27994e-01,9.99999e-01
1.640799324e+00,1.15407e-121,1.24178e-121,9.29365e-01,9.99999e-01
1.649003321e+00,1.15538e-121,1.24140e-121,9.30710e-01,9.99999e-01
1.657248337e+00,4.35611e-94,4.67378e-94,9.32031e-01,9.99999e-01
1.665534579e+00,1.02900e-94,1.10250e-94,9.33328e-01,9.99999e-01
1.673862252e+00,1.68052e-60,1.79811e-60,9.34601e-01,9.99999e-01
1.682231563e+00,5.48065e-42,5.85633e-42,9.35850e-01,9.99999e-01
1.690642721e+00,1.82595e-23,1.94856e-23,9.37077e-01,9.99999e-01
1.699095934e+00,4.70323e-15,5.01260e-15,9.38281e-01,9.99999e-01
1.707591414e+00,5.65990e-08,6.02461e-08,9.39462e-01,9.99999e-01
1.716129371e+00,6.20049e-05,6.59190e-05,9.40621e-01,9.99999e-01
1.724710018e+00,3.87186e-03,4.11130e-03,9.41759e-01,9.99999e-01
1.733333568e+00,2.48228e-02,2.63266e-02,9.42876e-01,9.99999e-01
1.742000236e+00,1.12344e-01,1.19012e-01,9.43972e-01,9.99999e-01
1.750710237e+00,7.92280e-04,8.38348e-04,9.45048e-01,9.99999e-01
1.759463788e+00,8.92782e-58,9.43640e-58,9.46104e-01,9.99999e-01
1.768261107e+00,1.83327e-60,1.93559e-60,9.47140e-01,9.99999e-01
1.777102413e+00,7.85289e-59,8.28226e-59,9.48156e-01,9.99999e-01
1.785987925e+00,3.41660e-55,3.59963e-55,9.49154e-01,9.99999e-01
1.794917864e+00,1.03285e-52,1.08706e-52,9.50133e-01,9.99999e-01
1.803892454e+00,1.10867e-50,1.16568e-50,9.51093e-01,9.99999e-01
1.812911916e+00,1.06226e-48,1.11578e-48,9.52036e-01,9.99999e-01
1.821976476e+00,9.16604e-49,9.61848e-49,9.52960e-01,9.99999e-01
1.831086358e+00,3.27121e-39,3.42941e-39,9.53868e-01,9.99999e-01
1.840241790e+00,2.05087e-33,2.14805e-33,9.54758e-01,9.99999e-01
1.849442999e+00,2.95093e-23,3.08794e-23,9.55631e-01,9.99999e-01
1.858690214e+00,7.71262e-22,8.06346e-22,9.56488e-01,9.99999e-01
1.867983665e+00,1.76508e-22,1.84376e-22,9.57329e-01,9.99999e-01
1.877323583e+00,3.42789e-110,3.57759e-110,9.58154e-01,9.99999e-01
