#,Wave/freq,Total,CO2,Rayleigh,CIA
4.000000000e-01,3.01304e-07,9.99999e-01,3.01304e-07,9.99999e-01
4.020000000e-01,4.05457e-07,9.99999e-01,4.05457e-07,9.99999e-01
4.040100000e-01,5.42256e-07,9.99999e-01,5.42256e-07,9.99999e-01
4.060300500e-01,7.21056e-07,9.99999e-01,7.21056e-07,9.99999e-01
4.080602003e-01,9.53432e-07,9.99999e-01,9.53432e-07,9.99999e-01
4.101005013e-01,1.25376e-06,9.99999e-01,1.25376e-06,9.99999e-01
4.121510038e-01,1.63979e-06,9.99999e-01,1.63979e-06,9.99999e-01
4.142117588e-01,2.13334e-06,9.99999e-01,2.13334e-06,9.99999e-01
4.162828176e-01,2.76106e-06,9.99999e-01,2.76106e-06,9.99999e-01
4.183642317e-01,3.55532e-06,9.99999e-01,3.55532e-06,9.99999e-01
4.204560528e-01,4.55525e-06,9.99999e-01,4.55525e-06,9.99999e-01
4.225583331e-01,5.80791e-06,9.99999e-01,5.80791e-06,9.99999e-01
4.246711247e-01,7.36959e-06,9.99999e-01,7.36959e-06,9.99999e-01
4.267944804e-01,9.30730e-06,9.99999e-01,9.30730e-06,9.99999e-01
4.289284528e-01,1.17004e-05,9.99999e-01,1.17004e-05,9.99999e-01
4.310730950e-01,1.46426e-05,9.99999e-01,1.46426e-05,9.99999e-01
4.332284605e-01,1.82435e-05,9.99999e-01,1.82435e-05,9.99999e-01
4.353946028e-01,2.26315e-05,9.99999e-01,2.26315e-05,9.99999e-01
4.375715758e-01,2.79556e-05,9.99999e-01,2.79556e-05,9.99999e-01
4.397594337e-01,3.43884e-05,9.99999e-01,3.43884e-05,9.99999e-01
4.419582309e-01,4.21288e-05,9.99999e-01,4.21288e-05,9.99999e-01
4.441680220e-01,5.14049e-05,9.99999e-01,5.14049e-05,9.99999e-01
4.463888621e-01,6.24774e-05,9.99999e-01,6.24774e-05,9.99999e-01
4.486208064e-01,7.56429e-05,9.99999e-01,7.56429e-05,9.99999e-01
4.508639105e-01,9.12373e-05,9.99999e-01,9.12373e-05,9.99999e-01
4.531182300e-01,1.09640e-04,9.99999e-01,1.09640e-04,9.99999e-01
4.553838212e-01,1.31277e-04,9.99999e-01,1.31277e-04,9.99999e-01
4.576607403e-01,1.56626e-04,9.99999e-01,1.56626e-04,9.99999e-01
4.599490440e-01,1.86220e-04,9.99999e-01,1.86220e-04,9.99999e-01
4.622487892e-01,2.20649e-04,9.99999e-01,2.20649e-04,9.99999e-01
4.645600332e-01,2.60569e-04,9.99999e-01,2.60569e-04,9.99999e-01
4.668828333e-01,3.06702e-04,9.99999e-01,3.06702e-04,9.99999e-01
4.692172475e-01,3.59843e-04,9.99999e-01,3.59843e-04,9.99999e-01
4.715633337e-01,4.20861e-04,9.99999e-01,4.20861e-04,9.99999e-01
4.739211504e-01,4.90705e-04,9.99999e-01,4.90705e-04,9.99999e-01
4.762907561e-01,5.70407e-04,9.99999e-01,5.70407e-04,9.99999e-01
4.786722099e-01,6.61086e-04,9.99999e-01,6.61086e-04,9.99999e-01
4.810655710e-01,7.63952e-04,9.99999e-01,7.63952e-04,9.99999e-01
4.834708988e-01,8.80305e-04,9.99999e-01,8.80305e-04,9.99999e-01
4.858882533e-01,1.01154e-03,9.99999e-01,1.01154e-03,9.99999e-01
4.883176946e-01,1.15916e-03,9.99999e-01,1.15916e-03,9.99999e-01
4.907592831e-01,1.32475e-03,9.99999e-01,1.32475e-03,9.99999e-01
4.932130795e-01,1.51001e-03,9.99999e-01,1.51001e-03,9.99999e-01
4.956791449e-01,1.71672e-03,9.99999e-01,1.71672e-03,9.99999e-01
4.981575406e-01,1.94680e-03,9.99999e-01,1.94680e-03,9.99999e-01
5.006483283e-01,2.20224e-03,9.99999e-01,2.20224e-03,9.99999e-01
5.031515699e-01,2.48513e-03,9.99999e-01,2.48513e-03,9.99999e-01
5.056673278e-01,2.79768e-03,9.99999e-01,2.79768e-03,9.99999e-01
5.081956644e-01,3.14217e-03,9.99999e-01,3.14217e-03,9.99999e-01
5.107366428e-01,3.52100e-03,9.99999e-01,3.52100e-03,9.99999e-01
5.132903260e-01,3.93664e-03,9.99999e-01,3.93664e-03,9.99999e-01
5.158567776e-01,4.39165e-03,9.99999e-01,4.39165e-03,9.99999e-01
5.184360615e-01,4.88868e-03,9.99999e-01,4.88868e-03,9.99999e-01
5.210282418e-01,5.43045e-03,9.99999e-01,5.43045e-03,9.99999e-01
5.236333830e-01,6.01975e-03,9.99999e-01,6.01975e-03,9.99999e-01
5.262515499e-01,6.65943e-03,9.99999e-01,6.65943e-03,9.99999e-01
5.288828077e-01,7.35241e-03,9.99999e-01,7.35241e-03,9.99999e-01
5.315272217e-01,8.10164e-03,9.99999e-01,8.10164e-03,9.99999e-01
5.341848578e-01,8.91013e-03,9.99999e-01,8.91013e-03,9.99999e-01
5.368557821e-01,9.78090e-03,9.99999e-01,9.78090e-03,9.99999e-01
5.395400610e-01,1.07170e-02,9.99999e-01,1.07170e-02,9.99999e-01
5.422377613e-01,1.17215e-02,9.99999e-01,1.17215e-02,9.99999e-01
5.449489501e-01,1.27976e-02,9.99999e-01,1.27976e-02,9.99999e-01
5.476736949e-01,1.39481e-02,9.99999e-01,1.39481e-02,9.99999e-01
5.504120634e-01,1.51763e-02,9.99999e-01,1.51763e-02,9.99999e-01
5.531641237e-01,1.64851e-02,9.99999e-01,1.64851e-02,9.99999e-01
5.559299443e-01,1.78776e-02,9.99999e-01,1.78776e-02,9.99999e-01
5.587095940e-01,1.93567e-02,9.99999e-01,1.93567e-02,9.99999e-01
5.615031420e-01,2.09252e-02,9.99999e-01,2.09252e-02,9.99999e-01
5.643106577e-01,2.25861e-02,9.99999e-01,2.25861e-02,9.99999e-01
5.671322110e-01,2.43420e-02,9.99999e-01,2.43420e-02,9.99999e-01
5.699678720e-01,2.61957e-02,9.99999e-01,2.61957e-02,9.99999e-01
5.728177114e-01,2.81497e-02,9.99999e-01,2.81497e-02,9.99999e-01
5.756818000e-01,3.02065e-02,9.99999e-01,3.02065e-02,9.99999e-01
5.785602090e-01,3.23685e-02,9.99999e-01,3.23685e-02,9.99999e-01
5.814530100e-01,3.46379e-02,9.99999e-01,3.46379e-02,9.99999e-01
5.843602750e-01,3.70168e-02,9.99999e-01,3.70168e-02,9.99999e-01
5.872820764e-01,3.95072e-02,9.99999e-01,3.95072e-02,9.99999e-01
5.902184868e-01,4.21110e-02,9.99999e-01,4.21110e-02,9.99999e-01
5.931695792e-01,4.48298e-02,9.99999e-01,4.48298e-02,9.99999e-01
5.961354271e-01,4.76653e-02,9.99999e-01,4.76653e-02,9.99999e-01
5.991161043e-01,5.06187e-02,9.99999e-01,5.06187e-02,9.99999e-01
6.021116848e-01,5.36913e-02,9.99999e-01,5.36913e-02,9.99999e-01
6.051222432e-01,5.68842e-02,9.99999e-01,5.68842e-02,9.99999e-01
6.081478544e-01,6.01982e-02,9.99999e-01,6.01982e-02,9.99999e-01
6.111885937e-01,6.36341e-02,9.99999e-01,6.36341e-02,9.99999e-01
6.142445367e-01,6.71923e-02,9.99999e-01,6.71923e-02,9.99999e-01
6.173157594e-01,7.08734e-02,9.99999e-01,7.08734e-02,9.99999e-01
6.204023382e-01,7.46773e-02,9.99999e-01,7.46773e-02,9.99999e-01
6.235043498e-01,7.86043e-02,9.99999e-01,7.86043e-02,9.99999e-01
6.266218716e-01,8.26540e-02,9.99999e-01,8.26540e-02,9.99999e-01
6.297549810e-01,8.68262e-02,9.99999e-01,8.68262e-02,9.99999e-01
6.329037559e-01,9.11202e-02,9.99999e-01,9.11202e-02,9.99999e-01
6.360682746e-01,9.55355e-02,9.99999e-01,9.55355e-02,9.99999e-01
6.392486160e-01,1.00071e-01,9.99999e-01,1.00071e-01,9.99999e-01
6.424448591e-01,1.04726e-01,9.99999e-01,1.04726e-01,9.99999e-01
6.456570834e-01,1.09499e-01,9.99999e-01,1.09499e-01,9.99999e-01
6.488853688e-01,1.14389e-01,9.99999e-01,1.14389e-01,9.99999e-01
6.521297956e-01,1.19395e-01,9.99999e-01,1.19395e-01,9.99999e-01
6.553904446e-01,1.24514e-01,9.99999e-01,1.24514e-01,9.99999e-01
6.586673968e-01,1.29744e-01,9.99999e-01,1.29744e-01,9.99999e-01
6.619607338e-01,1.35085e-01,9.99999e-01,1.35085e-01,9.99999e-01
6.652705375e-01,1.40534e-01,9.99999e-01,1.40534e-01,9.99999e-01
6.685968902e-01,1.46088e-01,9.99999e-01,1.46088e-01,9.99999e-01
6.719398746e-01,1.51745e-01,9.99999e-01,1.51745e-01,9.99999e-01
6.752995740e-01,1.57503e-01,9.99999e-01,1.57503e-01,9.99999e-01
6.786760719e-01,1.63360e-01,9.99999e-01,1.63360e-01,9.99999e-01
6.820694522e-01,1.69312e-01,9.99999e-01,1.69312e-01,9.99999e-01
6.854797995e-01,1.75357e-01,9.99999e-01,1.75357e-01,9.99999e-01
6.889071985e-01,1.81492e-01,9.99999e-01,1.81492e-01,9.99999e-01
6.923517345e-01,1.87714e-01,9.99999e-01,1.87714e-01,9.99999e-01
6.958134932e-01,1.94020e-01,9.99999e-01,1.94020e-01,9.99999e-01
6.992925606e-01,2.00407e-01,9.99999e-01,2.00407e-01,9.99999e-01
7.027890234e-01,2.06872e-01,9.99999e-01,2.06872e-01,9.99999e-01
7.063029686e-01,2.13412e-01,9.99999e-01,2.13412e-01,9.99999e-01
7.098344834e-01,2.20023e-01,9.99999e-01,2.20023e-01,9.99999e-01
7.133836558e-01,2.26703e-01,9.99999e-01,2.26703e-01,9.99999e-01
7.169505741e-01,2.33447e-01,9.99999e-01,2.33447e-01,9.99999e-01
7.205353270e-01,2.40252e-01,9.99999e-01,2.40252e-01,9.99999e-01
7.241380036e-01,2.47116e-01,9.99999e-01,2.47116e-01,9.99999e-01
7.277586936e-01,2.54034e-01,9.99999e-01,2.54034e-01,9.99999e-01
7.313974871e-01,2.61004e-01,9.99999e-01,2.61004e-01,9.99999e-01
7.350544745e-01,2.68022e-01,9.99999e-01,2.68022e-01,9.99999e-01
7.387297469e-01,2.75084e-01,9.99999e-01,2.75084e-01,9.99999e-01
7.424233956e-01,2.82187e-01,9.99999e-01,2.82187e-01,9.99999e-01
7.461355126e-01,2.89328e-01,9.99999e-01,2.89328e-01,9.99999e-01
7.498661902e-01,2.96503e-01,9.99999e-01,2.96503e-01,9.99999e-01
7.536155211e-01,3.03709e-01,9.99999e-01,3.03709e-01,9.99999e-01
7.573835987e-01,3.10943e-01,9.99999e-01,3.10943e-01,9.99999e-01
7.611705167e-01,3.18201e-01,9.99999e-01,3.18201e-01,9.99999e-01
7.649763693e-01,3.25480e-01,9.99999e-01,3.25480e-01,9.99999e-01
7.688012511e-01,3.32777e-01,9.99999e-01,3.32777e-01,9.99999e-01
7.726452574e-01,3.40088e-01,9.99999e-01,3.40088e-01,9.99999e-01
7.765084837e-01,3.47411e-01,9.99999e-01,3.47411e-01,9.99999e-01
7.803910261e-01,3.38677e-01,9.54711e-01,3.54743e-01,9.99999e-01
7.842929812e-01,2.91478e-01,8.05011e-01,3.62079e-01,9.99999e-01
7.882144461e-01,2.93377e-01,7.94159e-01,3.69418e-01,9.99999e-01
7.921555184e-01,3.28830e-01,8.72790e-01,3.76757e-01,9.99999e-01
7.961162960e-01,3.50400e-01,9.12282e-01,3.84092e-01,9.99999e-01
8.000968774e-01,3.72435e-01,9.51496e-01,3.91420e-01,9.99999e-01
8.040973618e-01,3.88568e-01,9.74490e-01,3.98740e-01,9.99999e-01
8.081178486e-01,4.01274e-01,9.88243e-01,4.06048e-01,9.99999e-01
8.121584379e-01,4.11825e-01,9.96332e-01,4.13341e-01,9.99999e-01
8.162192301e-01,4.20277e-01,9.99188e-01,4.20618e-01,9.99999e-01
8.203003262e-01,4.27869e-01,9.99986e-01,4.27875e-01,9.99999e-01
8.244018279e-01,4.35110e-01,9.99999e-01,4.35110e-01,9.99999e-01
8.285238370e-01,4.42321e-01,9.99999e-01,4.42321e-01,9.99999e-01
8.326664562e-01,4.49506e-01,9.99999e-01,4.49506e-01,9.99999e-01
8.368297885e-01,4.56662e-01,9.99999e-01,4.56662e-01,9.99999e-01
8.410139374e-01,4.63787e-01,9.99999e-01,4.63787e-01,9.99999e-01
8.452190071e-01,4.70879e-01,9.99999e-01,4.70879e-01,9.99999e-01
8.494451021e-01,4.77936e-01,9.99999e-01,4.77936e-01,9.99999e-01
8.536923276e-01,4.84957e-01,9.99999e-01,4.84957e-01,9.99999e-01
8.579607893e-01,4.91939e-01,9.99999e-01,4.91939e-01,9.99999e-01
8.622505932e-01,4.98881e-01,9.99999e-01,4.98881e-01,9.99999e-01
8.665618462e-01,4.60492e-01,9.10458e-01,5.05781e-01,9.99999e-01
8.708946554e-01,2.97680e-01,5.80684e-01,5.12637e-01,9.99999e-01
8.752491287e-01,3.33503e-01,6.42032e-01,5.19448e-01,9.99999e-01
8.796253743e-01,4.11669e-01,7.82324e-01,5.26212e-01,9.99999e-01
8.840235012e-01,4.68997e-01,8.80037e-01,5.32928e-01,9.99999e-01
8.884436187e-01,5.12982e-01,9.50681e-01,5.39594e-01,9.99999e-01
8.928858368e-01,5.35151e-01,9.79753e-01,5.46210e-01,9.99999e-01
8.973502660e-01,5.50022e-01,9.95022e-01,5.52774e-01,9.99999e-01
9.018370173e-01,5.58977e-01,9.99449e-01,5.59284e-01,9.99999e-01
9.063462024e-01,5.58017e-01,9.86346e-01,5.65741e-01,9.99999e-01
9.108779334e-01,5.54003e-01,9.68295e-01,5.72142e-01,9.99999e-01
9.154323231e-01,5.74100e-01,9.92415e-01,5.78487e-01,9.99999e-01
9.200094847e-01,5.26257e-01,8.99929e-01,5.84775e-01,9.99999e-01
9.246095321e-01,5.04953e-01,8.54395e-01,5.91006e-01,9.99999e-01
9.292325798e-01,5.28638e-01,8.85227e-01,5.97177e-01,9.99999e-01
9.338787427e-01,5.35605e-01,8.87807e-01,6.03289e-01,9.99999e-01
9.385481364e-01,5.58238e-01,9.16131e-01,6.09342e-01,9.99999e-01
9.432408771e-01,5.83095e-01,9.47608e-01,6.15333e-01,9.99999e-01
9.479570815e-01,6.04379e-01,9.72821e-01,6.21264e-01,9.99999e-01
9.526968669e-01,6.18848e-01,9.86788e-01,6.27133e-01,9.99999e-01
9.574603512e-01,6.29348e-01,9.94326e-01,6.32939e-01,9.99999e-01
9.622476530e-01,6.37550e-01,9.98225e-01,6.38683e-01,9.99999e-01
9.670588912e-01,6.44021e-01,9.99467e-01,6.44365e-01,9.99999e-01
9.718941857e-01,6.49958e-01,9.99961e-01,6.49983e-01,9.99999e-01
9.767536566e-01,6.55537e-01,9.99999e-01,6.55537e-01,9.99999e-01
9.816374249e-01,6.61028e-01,9.99999e-01,6.61028e-01,9.99999e-01
9.865456120e-01,6.66455e-01,9.99999e-01,6.66455e-01,9.99999e-01
9.914783401e-01,6.71819e-01,9.99999e-01,6.71819e-01,9.99999e-01
9.964357318e-01,6.77118e-01,9.99999e-01,6.77118e-01,9.99999e-01
1.001417910e+00,6.82353e-01,9.99999e-01,6.82353e-01,9.99999e-01
1.006425000e+00,6.87524e-01,9.99999e-01,6.87524e-01,9.99999e-01
1.011457125e+00,6.92631e-01,9.99999e-01,6.92631e-01,9.99999e-01
1.016514411e+00,6.97673e-01,9.99999e-01,6.97673e-01,9.99999e-01
1.021596983e+00,7.02605e-01,9.99931e-01,7.02652e-01,9.99999e-01
1.026704968e+00,7.03786e-01,9.94655e-01,7.07567e-01,9.99999e-01
1.031838492e+00,6.73789e-01,9.45777e-01,7.12418e-01,9.99999e-01
1.036997685e+00,7.88756e-02,1.09976e-01,7.17206e-01,9.99999e-01
1.042182673e+00,3.70047e-02,5.12579e-02,7.21930e-01,9.99999e-01
1.047393587e+00,5.52838e-02,7.60864e-02,7.26592e-01,9.99999e-01
1.052630555e+00,4.18098e-04,5.71804e-04,7.31190e-01,9.99999e-01
1.057893707e+00,1.25611e-03,1.70730e-03,7.35726e-01,9.99999e-01
1.063183176e+00,6.50345e-03,8.78607e-03,7.40199e-01,9.99999e-01
1.068499092e+00,2.56480e-02,3.44448e-02,7.44611e-01,9.99999e-01
1.073841587e+00,8.80719e-02,1.17592e-01,7.48961e-01,9.99999e-01
1.079210795e+00,1.94206e-01,2.57824e-01,7.53249e-01,9.99999e-01
1.084606849e+00,3.56868e-01,4.71126e-01,7.57477e-01,9.99999e-01
1.090029883e+00,5.14963e-01,6.76119e-01,7.61645e-01,9.99999e-01
1.095480033e+00,6.31214e-01,8.24305e-01,7.65752e-01,9.99999e-01
1.100957433e+00,7.01310e-01,9.11029e-01,7.69799e-01,9.99999e-01
1.106462220e+00,7.44505e-01,9.62156e-01,7.73788e-01,9.99999e-01
1.111994531e+00,7.66674e-01,9.85800e-01,7.77717e-01,9.99999e-01
1.117554504e+00,7.78857e-01,9.96503e-01,7.81589e-01,9.99999e-01
1.123142276e+00,7.85221e-01,9.99768e-01,7.85403e-01,9.99999e-01
1.128757988e+00,7.89159e-01,9.99999e-01,7.89159e-01,9.99999e-01
1.134401778e+00,7.92859e-01,9.99999e-01,7.92859e-01,9.99999e-01
1.140073787e+00,7.96502e-01,9.99999e-01,7.96502e-01,9.99999e-01
1.145774156e+00,8.00090e-01,9.99999e-01,8.00090e-01,9.99999e-01
1.151503026e+00,8.03622e-01,9.99999e-01,8.03622e-01,9.99999e-01
1.157260541e+00,8.07100e-01,9.99999e-01,8.07100e-01,9.99999e-01
1.163046844e+00,8.10524e-01,9.99999e-01,8.10524e-01,9.99999e-01
1.168862078e+00,8.13894e-01,9.99999e-01,8.13894e-01,9.99999e-01
1.174706389e+00,8.17211e-01,9.99999e-01,8.17211e-01,9.99999e-01
1.180579921e+00,8.20476e-01,9.99999e-01,8.20476e-01,9.99999e-01
1.186482820e+00,8.23683e-01,9.99991e-01,8.23689e-01,9.99999e-01
1.192415234e+00,8.11356e-01,9.81259e-01,8.26851e-01,9.99999e-01
1.198377311e+00,4.57919e-01,5.51734e-01,8.29962e-01,9.99999e-01
1.204369197e+00,2.87343e-15,3.44940e-15,8.33023e-01,9.99999e-01
1.210391043e+00,3.52554e-58,4.21697e-58,8.36035e-01,9.99999e-01
1.216442998e+00,1.65984e-50,1.97836e-50,8.38997e-01,9.99999e-01
1.222525213e+00,9.13277e-50,1.08476e-49,8.41911e-01,9.99999e-01
1.228637839e+00,1.56100e-38,1.84782e-38,8.44778e-01,9.99999e-01
1.234781029e+00,1.66810e-24,1.96803e-24,8.47597e-01,9.99999e-01
1.240954934e+00,1.80667e-16,2.12457e-16,8.50370e-01,9.99999e-01
1.247159708e+00,1.22017e-08,1.43028e-08,8.53097e-01,9.99999e-01
1.253395507e+00,1.00467e-05,1.17399e-05,8.55778e-01,9.99999e-01
1.259662485e+00,1.26924e-03,1.47858e-03,8.58415e-01,9.99999e-01
1.265960797e+00,2.03264e-02,2.36076e-02,8.61008e-01,9.99999e-01
1.272290601e+00,1.50028e-01,1.73732e-01,8.63557e-01,9.99999e-01
1.278652054e+00,1.46717e-01,1.69407e-01,8.66062e-01,9.99999e-01
1.285045314e+00,1.93991e-03,2.23356e-03,8.68526e-01,9.99999e-01
1.291470541e+00,1.95622e-07,2.24608e-07,8.70947e-01,9.99999e-01
1.297927893e+00,7.85786e-04,8.99760e-04,8.73328e-01,9.99999e-01
1.304417533e+00,4.49854e-02,5.13727e-02,8.75667e-01,9.99999e-01
1.310939621e+00,1.08944e-02,1.24087e-02,8.77967e-01,9.99999e-01
1.317494319e+00,2.31504e-20,2.63004e-20,8.80227e-01,9.99999e-01
1.324081790e+00,8.75989e-14,9.92680e-14,8.82447e-01,9.99999e-01
1.330702199e+00,3.63201e-08,4.10568e-08,8.84630e-01,9.99999e-01
1.337355710e+00,8.55524e-08,9.64758e-08,8.86775e-01,9.99999e-01
1.344042489e+00,3.05209e-08,3.43363e-08,8.88882e-01,9.99999e-01
1.350762701e+00,2.03950e-08,2.28912e-08,8.90952e-01,9.99999e-01
1.357516515e+00,1.45761e-05,1.63228e-05,8.92987e-01,9.99999e-01
1.364304097e+00,5.41040e-04,6.04523e-04,8.94985e-01,9.99999e-01
1.371125618e+00,1.94346e-02,2.16674e-02,8.96949e-01,9.99999e-01
1.377981246e+00,3.66489e-02,4.07718e-02,8.98878e-01,9.99999e-01
1.384871152e+00,1.39914e-01,1.55326e-01,9.00772e-01,9.99999e-01
1.391795508e+00,1.61237e-01,1.78630e-01,9.02634e-01,9.99999e-01
1.398754485e+00,3.10982e-01,3.43830e-01,9.04462e-01,9.99999e-01
1.405748258e+00,4.13565e-01,4.56344e-01,9.06258e-01,9.99999e-01
1.412776999e+00,5.52475e-01,6.08438e-01,9.08021e-01,9.99999e-01
1.419840884e+00,4.99123e-01,5.48635e-01,9.09754e-01,9.99999e-01
1.426940089e+00,3.50379e-02,3.84417e-02,9.11455e-01,9.99999e-01
1.434074789e+00,0.00000e+00,0.00000e+00,9.13125e-01,9.99999e-01
1.441245163e+00,0.00000e+00,0.00000e+00,9.14766e-01,9.99999e-01
1.448451389e+00,0.00000e+00,0.00000e+00,9.16377e-01,9.99999e-01
1.455693646e+00,0.00000e+00,0.00000e+00,9.17959e-01,9.99999e-01
1.462972114e+00,2.87912e-229,3.13114e-229,9.19513e-01,9.99999e-01
1.470286975e+00,1.15951e-95,1.25891e-95,9.21038e-01,9.99999e-01
1.477638409e+00,1.91057e-60,2.07100e-60,9.22536e-01,9.99999e-01
1.485026601e+00,4.86041e-34,5.26015e-34,9.24006e-01,9.99999e-01
1.492451734e+00,5.15041e-29,5.56530e-29,9.25450e-01,9.99999e-01
1.499913993e+00,4.01902e-13,4.33613e-13,9.26867e-01,9.99999e-01
1.507413563e+00,6.94213e-12,7.47865e-12,9.28258e-01,9.99999e-01
1.514950631e+00,2.65925e-13,2.86056e-13,9.29624e-01,9.99999e-01
1.522525384e+00,3.22620e-43,3.46543e-43,9.30965e-01,9.99999e-01
1.530138011e+00,5.05891e-102,5.42637e-102,9.32282e-01,9.99999e-01
1.537788701e+00,1.08439e-75,1.16155e-75,9.33574e-01,9.99999e-01
1.545477645e+00,1.17247e-16,1.25419e-16,9.34842e-01,9.99999e-01
1.553205033e+00,5.86407e-12,6.26444e-12,9.36087e-01,9.99999e-01
1.560971058e+00,2.09227e-12,2.23220e-12,9.37309e-01,9.99999e-01
1.568775913e+00,2.75124e-257,2.93150e-257,9.38508e-01,9.99999e-01
1.576619793e+00,0.00000e+00,0.00000e+00,9.39686e-01,9.99999e-01
1.584502892e+00,0.00000e+00,0.00000e+00,9.40841e-01,9.99999e-01
1.592425406e+00,2.32387e-229,2.46701e-229,9.41975e-01,9.99999e-01
1.600387533e+00,0.00000e+00,0.00000e+00,9.43088e-01,9.99999e-01
1.608389471e+00,0.00000e+00,0.00000e+00,9.44180e-01,9.99999e-01
1.616431418e+00,0.00000e+00,0.00000e+00,9.45252e-01,9.99999e-01
1.624513575e+00,2.73326e-291,2.88836e-291,9.46304e-01,9.99999e-01
1.632636143e+00,2.12006e-216,2.23792e-216,9.47336e-01,9.99999e-01
1.640799324e+00,1.09183e-88,1.15129e-88,9.48349e-01,9.99999e-01
1.649003321e+00,1.09442e-88,1.15282e-88,9.49343e-01,9.99999e-01
1.657248337e+00,1.00945e-68,1.06222e-68,9.50318e-01,9.99999e-01
1.665534579e+00,3.55330e-69,3.73530e-69,9.51275e-01,9.99999e-01
1.673862252e+00,2.09017e-44,2.19506e-44,9.52214e-01,9.99999e-01
1.682231563e+00,5.31620e-31,5.57758e-31,9.53135e-01,9.99999e-01
1.690642721e+00,1.32913e-17,1.39316e-17,9.54039e-01,9.99999e-01
1.699095934e+00,2.21900e-11,2.32374e-11,9.54926e-01,9.99999e-01
1.707591414e+00,2.84683e-06,2.97849e-06,9.55797e-01,9.99999e-01
1.716129371e+00,6.76545e-04,7.07201e-04,9.56651e-01,9.99999e-01
1.724710018e+00,1.63343e-02,1.70596e-02,9.57488e-01,9.99999e-01
1.733333568e+00,6.69856e-02,6.98996e-02,9.58310e-01,9.99999e-01
1.742000236e+00,1.99746e-01,2.08260e-01,9.59117e-01,9.99999e-01
1.750710237e+00,2.82982e-03,2.94801e-03,9.59908e-01,9.99999e-01
1.759463788e+00,2.14528e-42,2.23307e-42,9.60684e-01,9.99999e-01
1.768261107e+00,2.18144e-44,2.26891e-44,9.61445e-01,9.99999e-01
1.777102413e+00,4.79335e-43,4.98169e-43,9.62192e-01,9.99999e-01
1.785987925e+00,1.45796e-40,1.51409e-40,9.62925e-01,9.99999e-01
1.794917864e+00,9.85718e-39,1.02291e-38,9.63644e-01,9.99999e-01
1.803892454e+00,2.62489e-37,2.72192e-37,9.64349e-01,9.99999e-01
1.812911916e+00,7.98033e-36,8.26941e-36,9.65041e-01,9.99999e-01
1.821976476e+00,6.43973e-36,6.66832e-36,9.65719e-01,9.99999e-01
1.831086358e+00,5.28521e-29,5.46905e-29,9.66385e-01,9.99999e-01
1.840241790e+00,1.00082e-24,1.03493e-24,9.67038e-01,9.99999e-01
1.849442999e+00,2.94601e-17,3.04440e-17,9.67678e-01,9.99999e-01
1.858690214e+00,3.96841e-16,4.09830e-16,9.68306e-01,9.99999e-01
1.867983665e+00,8.07943e-17,8.33856e-17,9.68923e-01,9.99999e-01
1.877323583e+00,2.21506e-80,2.28467e-80,9.69527e-01,9.99999e-01
