#,Wave/freq,Total,CO2,Rayleigh,CIA
4.000000000e-01,1.50392e-23,9.99999e-01,1.50392e-23,9.99999e-01
4.020000000e-01,4.25095e-23,9.99999e-01,4.25095e-23,9.99999e-01
4.040100000e-01,1.17592e-22,9.99999e-01,1.17592e-22,9.99999e-01
4.060300500e-01,3.18818e-22,9.99999e-01,3.18818e-22,9.99999e-01
4.080602003e-01,8.47523e-22,9.99999e-01,8.47523e-22,9.99999e-01
4.101005013e-01,2.20990e-21,9.99999e-01,2.20990e-21,9.99999e-01
4.121510038e-01,5.65422e-21,9.99999e-01,5.65422e-21,9.99999e-01
4.142117588e-01,1.42008e-20,9.99999e-01,1.42008e-20,9.99999e-01
4.162828176e-01,3.50231e-20,9.99999e-01,3.50231e-20,9.99999e-01
4.183642317e-01,8.48500e-20,9.99999e-01,8.48500e-20,9.99999e-01
4.204560528e-01,2.02003e-19,9.99999e-01,2.02003e-19,9.99999e-01
4.225583331e-01,4.72741e-19,9.99999e-01,4.72741e-19,9.99999e-01
4.246711247e-01,1.08792e-18,9.99999e-01,1.08792e-18,9.99999e-01
4.267944804e-01,2.46273e-18,9.99999e-01,2.46273e-18,9.99999e-01
4.289284528e-01,5.48568e-18,9.99999e-01,5.48568e-18,9.99999e-01
4.310730950e-01,1.20274e-17,9.99999e-01,1.20274e-17,9.99999e-01
4.332284605e-01,2.59646e-17,9.99999e-01,2.59646e-17,9.99999e-01
4.353946028e-01,5.52063e-17,9.99999e-01,5.52063e-17,9.99999e-01
4.375715758e-01,1.15644e-16,9.99999e-01,1.15644e-16,9.99999e-01
4.397594337e-01,2.38736e-16,9.99999e-01,2.38736e-16,9.99999e-01
4.419582309e-01,4.85839e-16,9.99999e-01,4.85839e-16,9.99999e-01
4.441680220e-01,9.74927e-16,9.99999e-01,9.74927e-16,9.99999e-01
4.463888621e-01,1.92964e-15,9.99999e-01,1.92964e-15,9.99999e-01
4.486208064e-01,3.76812e-15,9.99999e-01,3.76812e-15,9.99999e-01
4.508639105e-01,7.26160e-15,9.99999e-01,7.26160e-15,9.99999e-01
4.531182300e-01,1.38138e-14,9.99999e-01,1.38138e-14,9.99999e-01
4.553838212e-01,2.59463e-14,9.99999e-01,2.59463e-14,9.99999e-01
4.576607403e-01,4.81317e-14,9.99999e-01,4.81317e-14,9.99999e-01
4.599490440e-01,8.82035e-14,9.99999e-01,8.82035e-14,9.99999e-01
4.622487892e-01,1.59715e-13,9.99999e-01,1.59715e-13,9.99999e-01
4.645600332e-01,2.85832e-13,9.99999e-01,2.85832e-13,9.99999e-01
4.668828333e-01,5.05689e-13,9.99999e-01,5.05689e-13,9.99999e-01
4.692172475e-01,8.84631e-13,9.99999e-01,8.84631e-13,9.99999e-01
4.715633337e-01,1.53054e-12,9.99999e-01,1.53054e-12,9.99999e-01
4.739211504e-01,2.61952e-12,9.99999e-01,2.61952e-12,9.99999e-01
4.762907561e-01,4.43599e-12,9.99999e-01,4.43599e-12,9.99999e-01
4.786722099e-01,7.43432e-12,9.99999e-01,7.43432e-12,9.99999e-01
4.810655710e-01,1.23328e-11,9.99999e-01,1.23328e-11,9.99999e-01
4.834708988e-01,2.02554e-11,9.99999e-01,2.02554e-11,9.99999e-01
4.858882533e-01,3.29430e-11,9.99999e-01,3.29430e-11,9.99999e-01
4.883176946e-01,5.30656e-11,9.99999e-01,5.30656e-11,9.99999e-01
4.907592831e-01,8.46785e-11,9.99999e-01,8.46785e-11,9.99999e-01
4.932130795e-01,1.33883e-10,9.99999e-01,1.33883e-10,9.99999e-01
4.956791449e-01,2.09771e-10,9.99999e-01,2.09771e-10,9.99999e-01
4.981575406e-01,3.25773e-10,9.99999e-01,3.25773e-10,9.99999e-01
5.006483283e-01,5.01544e-10,9.99999e-01,5.01544e-10,9.99999e-01
5.031515699e-01,7.65598e-10,9.99999e-01,7.65598e-10,9.99999e-01
5.056673278e-01,1.15895e-09,9.99999e-01,1.15895e-09,9.99999e-01
5.081956644e-01,1.74009e-09,9.99999e-01,1.74009e-09,9.99999e-01
5.107366428e-01,2.59174e-09,9.99999e-01,2.59174e-09,9.99999e-01
5.132903260e-01,3.82996e-09,9.99999e-01,3.82996e-09,9.99999e-01
5.158567776e-01,5.61626e-09,9.99999e-01,5.61626e-09,9.99999e-01
5.184360615e-01,8.17365e-09,9.99999e-01,8.17365e-09,9.99999e-01
5.210282418e-01,1.18077e-08,9.99999e-01,1.18077e-08,9.99999e-01
5.236333830e-01,1.69340e-08,9.99999e-01,1.69340e-08,9.99999e-01
5.262515499e-01,2.41136e-08,9.99999e-01,2.41136e-08,9.99999e-01
5.288828077e-01,3.40982e-08,9.99999e-01,3.40982e-08,9.99999e-01
5.315272217e-01,4.78881e-08,9.99999e-01,4.78881e-08,9.99999e-01
5.341848578e-01,6.68054e-08,9.99999e-01,6.68054e-08,9.99999e-01
5.368557821e-01,9.25847e-08,9.99999e-01,9.25847e-08,9.99999e-01
5.395400610e-01,1.27488e-07,9.99999e-01,1.27488e-07,9.99999e-01
5.422377613e-01,1.74442e-07,9.99999e-01,1.74442e-07,9.99999e-01
5.449489501e-01,2.37217e-07,9.99999e-01,2.37217e-07,9.99999e-01
5.476736949e-01,3.20629e-07,9.99999e-01,3.20629e-07,9.99999e-01
5.504120634e-01,4.30800e-07,9.99999e-01,4.30800e-07,9.99999e-01
5.531641237e-01,5.75459e-07,9.99999e-01,5.75459e-07,9.99999e-01
5.559299443e-01,7.64310e-07,9.99999e-01,7.64310e-07,9.99999e-01
5.587095940e-01,1.00946e-06,9.99999e-01,1.00946e-06,9.99999e-01
5.615031420e-01,1.32594e-06,9.99999e-01,1.32594e-06,9.99999e-01
5.643106577e-01,1.73228e-06,9.99999e-01,1.73228e-06,9.99999e-01
5.671322110e-01,2.25123e-06,9.99999e-01,2.25123e-06,9.99999e-01
5.699678720e-01,2.91054e-06,9.99999e-01,2.91054e-06,9.99999e-01
5.728177114e-01,3.74390e-06,9.99999e-01,3.74390e-06,9.99999e-01
5.756818000e-01,4.79198e-06,9.99999e-01,4.79198e-06,9.99999e-01
5.785602090e-01,6.10362e-06,9.99999e-01,6.10362e-06,9.99999e-01
5.814530100e-01,7.73723e-06,9.99999e-01,7.73723e-06,9.99999e-01
5.843602750e-01,9.76221e-06,9.99999e-01,9.76221e-06,9.99999e-01
5.872820764e-01,1.22608e-05,9.99999e-01,1.22608e-05,9.99999e-01
5.902184868e-01,1.53296e-05,9.99999e-01,1.53296e-05,9.99999e-01
5.931695792e-01,1.90822e-05,9.99999e-01,1.90822e-05,9.99999e-01
5.961354271e-01,2.36509e-05,9.99999e-01,2.36509e-05,9.99999e-01
5.991161043e-01,2.91895e-05,9.99999e-01,2.91895e-05,9.99999e-01
6.021116848e-01,3.58756e-05,9.99999e-01,3.58756e-05,9.99999e-01
6.051222432e-01,4.39140e-05,9.99999e-01,4.39140e-05,9.99999e-01
6.081478544e-01,5.35392e-05,9.99999e-01,5.35392e-05,9.99999e-01
6.111885937e-01,6.50192e-05,9.99999e-01,6.50192e-05,9.99999e-01
6.142445367e-01,7.86582e-05,9.99999e-01,7.86582e-05,9.99999e-01
6.173157594e-01,9.48011e-05,9.99999e-01,9.48011e-05,9.99999e-01
6.204023382e-01,1.13836e-04,9.99999e-01,1.13836e-04,9.99999e-01
6.235043498e-01,1.36201e-04,9.99999e-01,1.36201e-04,9.99999e-01
6.266218716e-01,1.62382e-04,9.99999e-01,1.62382e-04,9.99999e-01
6.297549810e-01,1.92926e-04,9.99999e-01,1.92926e-04,9.99999e-01
6.329037559e-01,2.28435e-04,9.99999e-01,2.28435e-04,9.99999e-01
6.360682746e-01,2.69579e-04,9.99999e-01,2.69579e-04,9.99999e-01
6.392486160e-01,3.17095e-04,9.99999e-01,3.17095e-04,9.99999e-01
6.424448591e-01,3.71792e-04,9.99999e-01,3.71792e-04,9.99999e-01
6.456570834e-01,4.34555e-04,9.99999e-01,4.34555e-04,9.99999e-01
6.488853688e-01,5.06351e-04,9.99999e-01,5.06351e-04,9.99999e-01
6.521297956e-01,5.88229e-04,9.99999e-01,5.88229e-04,9.99999e-01
6.553904446e-01,6.81328e-04,9.99999e-01,6.81328e-04,9.99999e-01
6.586673968e-01,7.86874e-04,9.99999e-01,7.86874e-04,9.99999e-01
6.619607338e-01,9.06189e-04,9.99999e-01,9.06189e-04,9.99999e-01
6.652705375e-01,1.04069e-03,9.99999e-01,1.04069e-03,9.99999e-01
6.685968902e-01,1.19189e-03,9.99999e-01,1.19189e-03,9.99999e-01
6.719398746e-01,1.36141e-03,9.99999e-01,1.36141e-03,9.99999e-01
6.752995740e-01,1.55095e-03,9.99999e-01,1.55095e-03,9.99999e-01
6.786760719e-01,1.76235e-03,9.99999e-01,1.76235e-03,9.99999e-01
6.820694522e-01,1.99751e-03,9.99999e-01,1.99751e-03,9.99999e-01
6.854797995e-01,2.25845e-03,9.99999e-01,2.25845e-03,9.99999e-01
6.889071985e-01,2.54729e-03,9.99999e-01,2.54729e-03,9.99999e-01
6.923517345e-01,2.86626e-03,9.99999e-01,2.86626e-03,9.99999e-01
6.958134932e-01,3.21766e-03,9.99999e-01,3.21766e-03,9.99999e-01
6.992925606e-01,3.60389e-03,9.99999e-01,3.60389e-03,9.99999e-01
7.027890234e-01,4.02746e-03,9.99999e-01,4.02746e-03,9.99999e-01
7.063029686e-01,4.49095e-03,9.99999e-01,4.49095e-03,9.99999e-01
7.098344834e-01,4.99701e-03,9.99999e-01,4.99701e-03,9.99999e-01
7.133836558e-01,5.54838e-03,9.99999e-01,5.54838e-03,9.99999e-01
7.169505741e-01,6.14787e-03,9.99999e-01,6.14787e-03,9.99999e-01
7.205353270e-01,6.79834e-03,9.99999e-01,6.79834e-03,9.99999e-01
7.241380036e-01,7.50271e-03,9.99999e-01,7.50271e-03,9.99999e-01
7.277586936e-01,8.26396e-03,9.99999e-01,8.26396e-03,9.99999e-01
7.313974871e-01,9.08508e-03,9.99999e-01,9.08508e-03,9.99999e-01
7.350544745e-01,9.96912e-03,9.99999e-01,9.96912e-03,9.99999e-01
7.387297469e-01,1.09191e-02,9.99999e-01,1.09191e-02,9.99999e-01
7.424233956e-01,1.19382e-02,9.99999e-01,1.19382e-02,9.99999e-01
7.461355126e-01,1.30294e-02,9.99999e-01,1.30294e-02,9.99999e-01
7.498661902e-01,1.41958e-02,9.99999e-01,1.41958e-02,9.99999e-01
7.536155211e-01,1.54404e-02,9.99999e-01,1.54404e-02,9.99999e-01
7.573835987e-01,1.67663e-02,9.99999e-01,1.67663e-02,9.99999e-01
7.611705167e-01,1.81764e-02,9.99999e-01,1.81764e-02,9.99999e-01
7.649763693e-01,1.96738e-02,9.99999e-01,1.96738e-02,9.99999e-01
7.688012511e-01,2.12612e-02,9.99999e-01,2.12612e-02,9.99999e-01
7.726452574e-01,2.29415e-02,9.99999e-01,2.29415e-02,9.99999e-01
7.765084837e-01,2.47175e-02,9.99999e-01,2.47175e-02,9.99999e-01
7.803910261e-01,2.32470e-02,8.74219e-01,2.65917e-02,9.99999e-01
7.842929812e-01,1.42774e-02,4.99791e-01,2.85668e-02,9.99999e-01
7.882144461e-01,1.48056e-02,4.83130e-01,3.06451e-02,9.99999e-01
7.921555184e-01,2.06421e-02,6.28774e-01,3.28292e-02,9.99999e-01
7.961162960e-01,2.56182e-02,7.29427e-01,3.51210e-02,9.99999e-01
8.000968774e-01,3.16030e-02,8.42233e-01,3.75229e-02,9.99999e-01
8.040973618e-01,3.66284e-02,9.14873e-01,4.00366e-02,9.99999e-01
8.081178486e-01,4.09478e-02,9.59773e-01,4.26640e-02,9.99999e-01
8.121584379e-01,4.48393e-02,9.87500e-01,4.54069e-02,9.99999e-01
8.162192301e-01,4.81327e-02,9.97224e-01,4.82666e-02,9.99999e-01
8.203003262e-01,5.12426e-02,9.99961e-01,5.12446e-02,9.99999e-01
8.244018279e-01,5.43420e-02,9.99999e-01,5.43420e-02,9.99999e-01
8.285238370e-01,5.75599e-02,9.99999e-01,5.75599e-02,9.99999e-01
8.326664562e-01,6.08991e-02,9.99999e-01,6.08991e-02,9.99999e-01
8.368297885e-01,6.43602e-02,9.99999e-01,6.43602e-02,9.99999e-01
8.410139374e-01,6.79439e-02,9.99999e-01,6.79439e-02,9.99999e-01
8.452190071e-01,7.16503e-02,9.99999e-01,7.16503e-02,9.99999e-01
8.494451021e-01,7.54798e-02,9.99999e-01,7.54798e-02,9.99999e-01
8.536923276e-01,7.94321e-02,9.99999e-01,7.94321e-02,9.99999e-01
8.579607893e-01,8.35072e-02,9.99999e-01,8.35072e-02,9.99999e-01
8.622505932e-01,8.77046e-02,9.99999e-01,8.77046e-02,9.99999e-01
8.665618462e-01,7.70072e-02,8.36816e-01,9.20239e-02,9.99999e-01
8.708946554e-01,1.80482e-02,1.87098e-01,9.64641e-02,9.99999e-01
8.752491287e-01,2.40948e-02,2.38504e-01,1.01025e-01,9.99999e-01
8.796253743e-01,4.69143e-02,4.43826e-01,1.05704e-01,9.99999e-01
8.840235012e-01,7.15365e-02,6.47379e-01,1.10502e-01,9.99999e-01
8.884436187e-01,9.70802e-02,8.41134e-01,1.15416e-01,9.99999e-01
8.928858368e-01,1.12236e-01,9.31848e-01,1.20445e-01,9.99999e-01
8.973502660e-01,1.23460e-01,9.83065e-01,1.25587e-01,9.99999e-01
9.018370173e-01,1.30595e-01,9.98123e-01,1.30840e-01,9.99999e-01
9.063462024e-01,1.29838e-01,9.53263e-01,1.36204e-01,9.99999e-01
9.108779334e-01,1.26764e-01,8.94758e-01,1.41674e-01,9.99999e-01
9.154323231e-01,1.43482e-01,9.74414e-01,1.47250e-01,9.99999e-01
9.200094847e-01,1.13044e-01,7.39193e-01,1.52928e-01,9.99999e-01
9.246095321e-01,9.25972e-02,5.83447e-01,1.58707e-01,9.99999e-01
9.292325798e-01,1.08982e-01,6.62167e-01,1.64583e-01,9.99999e-01
9.338787427e-01,1.13857e-01,6.67568e-01,1.70555e-01,9.99999e-01
9.385481364e-01,1.30688e-01,7.39941e-01,1.76619e-01,9.99999e-01
9.432408771e-01,1.51765e-01,8.30351e-01,1.82772e-01,9.99999e-01
9.479570815e-01,1.71756e-01,9.08703e-01,1.89012e-01,9.99999e-01
9.526968669e-01,1.86553e-01,9.55038e-01,1.95335e-01,9.99999e-01
9.574603512e-01,1.97804e-01,9.80496e-01,2.01739e-01,9.99999e-01
9.622476530e-01,2.06945e-01,9.93877e-01,2.08219e-01,9.99999e-01
9.670588912e-01,2.14380e-01,9.98165e-01,2.14774e-01,9.99999e-01
9.718941857e-01,2.21372e-01,9.99872e-01,2.21400e-01,9.99999e-01
9.767536566e-01,2.28093e-01,9.99999e-01,2.28093e-01,9.99999e-01
9.816374249e-01,2.34850e-01,9.99999e-01,2.34850e-01,9.99999e-01
9.865456120e-01,2.41668e-01,9.99999e-01,2.41668e-01,9.99999e-01
9.914783401e-01,2.48543e-01,9.99999e-01,2.48543e-01,9.99999e-01
9.964357318e-01,2.55472e-01,9.99999e-01,2.55472e-01,9.99999e-01
1.001417910e+00,2.62452e-01,9.99999e-01,2.62452e-01,9.99999e-01
1.006425000e+00,2.69479e-01,9.99999e-01,2.69479e-01,9.99999e-01
1.011457125e+00,2.76550e-01,9.99999e-01,2.76550e-01,9.99999e-01
1.016514411e+00,2.83662e-01,9.99999e-01,2.83662e-01,9.99999e-01
1.021596983e+00,2.90726e-01,9.99710e-01,2.90810e-01,9.99999e-01
1.026704968e+00,2.92325e-01,9.80982e-01,2.97992e-01,9.99999e-01
1.031838492e+00,2.64802e-01,8.67622e-01,3.05204e-01,9.99999e-01
1.036997685e+00,8.51872e-03,2.72649e-02,3.12443e-01,9.99999e-01
1.042182673e+00,1.06159e-04,3.32051e-04,3.19705e-01,9.99999e-01
1.047393587e+00,3.05187e-04,9.33325e-04,3.26988e-01,9.99999e-01
1.052630555e+00,4.56450e-10,1.36543e-09,3.34289e-01,9.99999e-01
1.057893707e+00,1.72584e-09,5.05219e-09,3.41603e-01,9.99999e-01
1.063183176e+00,3.64774e-07,1.04541e-06,3.48928e-01,9.99999e-01
1.068499092e+00,8.05730e-06,2.26163e-05,3.56260e-01,9.99999e-01
1.073841587e+00,3.22239e-04,8.86252e-04,3.63598e-01,9.99999e-01
1.079210795e+00,4.71391e-03,1.27081e-02,3.70937e-01,9.99999e-01
1.084606849e+00,3.02387e-02,7.99383e-02,3.78275e-01,9.99999e-01
1.090029883e+00,1.01777e-01,2.63940e-01,3.85609e-01,9.99999e-01
1.095480033e+00,2.02930e-01,5.16446e-01,3.92936e-01,9.99999e-01
1.100957433e+00,2.90181e-01,7.24995e-01,4.00253e-01,9.99999e-01
1.106462220e+00,3.56704e-01,8.75223e-01,4.07558e-01,9.99999e-01
1.111994531e+00,3.94804e-01,9.51682e-01,4.14848e-01,9.99999e-01
1.117554504e+00,4.17069e-01,9.88031e-01,4.22121e-01,9.99999e-01
1.123142276e+00,4.29036e-01,9.99214e-01,4.29374e-01,9.99999e-01
1.128757988e+00,4.36604e-01,9.99999e-01,4.36604e-01,9.99999e-01
1.134401778e+00,4.43810e-01,9.99999e-01,4.43810e-01,9.99999e-01
1.140073787e+00,4.50989e-01,9.99999e-01,4.50989e-01,9.99999e-01
1.145774156e+00,4.58138e-01,9.99999e-01,4.58138e-01,9.99999e-01
1.151503026e+00,4.65257e-01,9.99999e-01,4.65257e-01,9.99999e-01
1.157260541e+00,4.72342e-01,9.99999e-01,4.72342e-01,9.99999e-01
1.163046844e+00,4.79392e-01,9.99999e-01,4.79392e-01,9.99999e-01
1.168862078e+00,4.86405e-01,9.99999e-01,4.86405e-01,9.99999e-01
1.174706389e+00,4.93379e-01,9.99999e-01,4.93379e-01,9.99999e-01
1.180579921e+00,5.00312e-01,9.99999e-01,5.00312e-01,9.99999e-01
1.186482820e+00,5.07181e-01,9.99956e-01,5.07203e-01,9.99999e-01
1.192415234e+00,4.81917e-01,9.37491e-01,5.14050e-01,9.99999e-01
1.198377311e+00,2.50067e-01,4.80112e-01,5.20851e-01,9.99999e-01
1.204369197e+00,8.43690e-48,1.59909e-47,5.27605e-01,9.99999e-01
1.210391043e+00,5.62154e-198,1.05211e-197,5.34311e-01,9.99999e-01
1.216442998e+00,4.04103e-171,7.47000e-171,5.40967e-01,9.99999e-01
1.222525213e+00,1.56541e-168,2.85882e-168,5.47572e-01,9.99999e-01
1.228637839e+00,1.05382e-129,1.90178e-129,5.54125e-01,9.99999e-01
1.234781029e+00,3.97601e-80,7.09211e-80,5.60625e-01,9.99999e-01
1.240954934e+00,9.30177e-53,1.64032e-52,5.67070e-01,9.99999e-01
1.247159708e+00,1.26733e-24,2.20997e-24,5.73460e-01,9.99999e-01
1.253395507e+00,8.91947e-17,1.53839e-16,5.79793e-01,9.99999e-01
1.259662485e+00,1.19582e-09,2.04041e-09,5.86069e-01,9.99999e-01
1.265960797e+00,1.38020e-05,2.33029e-05,5.92287e-01,9.99999e-01
1.272290601e+00,3.03854e-03,5.07737e-03,5.98447e-01,9.99999e-01
1.278652054e+00,3.21304e-03,5.31479e-03,6.04547e-01,9.99999e-01
1.285045314e+00,2.65804e-07,4.35326e-07,6.10586e-01,9.99999e-01
1.291470541e+00,1.89131e-22,3.06749e-22,6.16565e-01,9.99999e-01
1.297927893e+00,3.29400e-07,5.29170e-07,6.22483e-01,9.99999e-01
1.304417533e+00,3.51873e-05,5.60005e-05,6.28339e-01,9.99999e-01
1.310939621e+00,7.94949e-06,1.25360e-05,6.34133e-01,9.99999e-01
1.317494319e+00,1.47532e-67,2.30568e-67,6.39864e-01,9.99999e-01
1.324081790e+00,4.51750e-43,6.99810e-43,6.45532e-01,9.99999e-01
1.330702199e+00,1.29412e-25,1.98747e-25,6.51137e-01,9.99999e-01
1.337355710e+00,4.53926e-23,6.91245e-23,6.56679e-01,9.99999e-01
1.344042489e+00,2.96924e-23,4.48419e-23,6.62156e-01,9.99999e-01
1.350762701e+00,5.73850e-26,8.59609e-26,6.67570e-01,9.99999e-01
1.357516515e+00,3.13183e-15,4.65408e-15,6.72920e-01,9.99999e-01
1.364304097e+00,2.39676e-11,3.53396e-11,6.78206e-01,9.99999e-01
1.371125618e+00,3.40517e-06,4.98247e-06,6.83428e-01,9.99999e-01
1.377981246e+00,1.61040e-05,2.33870e-05,6.88586e-01,9.99999e-01
1.384871152e+00,1.29612e-03,1.86847e-03,6.93679e-01,9.99999e-01
1.391795508e+00,2.30719e-03,3.30208e-03,6.98709e-01,9.99999e-01
1.398754485e+00,1.74442e-02,2.47902e-02,7.03674e-01,9.99999e-01
1.405748258e+00,4.94339e-02,6.97651e-02,7.08576e-01,9.99999e-01
1.412776999e+00,1.29638e-01,1.81715e-01,7.13414e-01,9.99999e-01
1.419840884e+00,1.32606e-01,1.84640e-01,7.18189e-01,9.99999e-01
1.426940089e+00,3.46261e-03,4.78988e-03,7.22900e-01,9.99999e-01
1.434074789e+00,0.00000e+00,0.00000e+00,7.27548e-01,9.99999e-01
1.441245163e+00,0.00000e+00,0.00000e+00,7.32134e-01,9.99999e-01
1.448451389e+00,0.00000e+00,0.00000e+00,7.36657e-01,9.99999e-01
1.455693646e+00,0.00000e+00,0.00000e+00,7.41117e-01,9.99999e-01
1.462972114e+00,0.00000e+00,0.00000e+00,7.45516e-01,9.99999e-01
1.470286975e+00,0.00000e+00,0.00000e+00,7.49853e-01,9.99999e-01
1.477638409e+00,7.04976e-206,9.34821e-206,7.54129e-01,9.99999e-01
1.485026601e+00,1.61925e-113,2.13524e-113,7.58344e-01,9.99999e-01
1.492451734e+00,1.76641e-96,2.31661e-96,7.62499e-01,9.99999e-01
1.499913993e+00,2.10763e-40,2.74935e-40,7.66594e-01,9.99999e-01
1.507413563e+00,4.39749e-39,5.70636e-39,7.70629e-01,9.99999e-01
1.514950631e+00,6.40288e-41,8.26598e-41,7.74606e-01,9.99999e-01
1.522525384e+00,1.31489e-145,1.68896e-145,7.78523e-01,9.99999e-01
1.530138011e+00,0.00000e+00,0.00000e+00,7.82383e-01,9.99999e-01
1.537788701e+00,2.74375e-259,3.48996e-259,7.86184e-01,9.99999e-01
1.545477645e+00,1.14193e-52,1.44561e-52,7.89929e-01,9.99999e-01
1.553205033e+00,1.32713e-38,1.67225e-38,7.93617e-01,9.99999e-01
1.560971058e+00,1.42637e-38,1.78911e-38,7.97249e-01,9.99999e-01
1.568775913e+00,0.00000e+00,0.00000e+00,8.00825e-01,9.99999e-01
1.576619793e+00,0.00000e+00,0.00000e+00,8.04346e-01,9.99999e-01
1.584502892e+00,0.00000e+00,0.00000e+00,8.07813e-01,9.99999e-01
1.592425406e+00,0.00000e+00,0.00000e+00,8.11225e-01,9.99999e-01
1.600387533e+00,0.00000e+00,0.00000e+00,8.14585e-01,9.99999e-01
1.608389471e+00,0.00000e+00,0.00000e+00,8.17891e-01,9.99999e-01
1.616431418e+00,0.00000e+00,0.00000e+00,8.21145e-01,9.99999e-01
1.624513575e+00,0.00000e+00,0.00000e+00,8.24348e-01,9.99999e-01
1.632636143e+00,0.00000e+00,0.00000e+00,8.27499e-01,9.99999e-01
1.640799324e+00,1.05284e-304,1.26757e-304,8.30599e-01,9.99999e-01
1.649003321e+00,1.05567e-304,1.26632e-304,8.33650e-01,9.99999e-01
1.657248337e+00,6.90145e-235,8.24889e-235,8.36652e-01,9.99999e-01
1.665534579e+00,1.77108e-236,2.10942e-236,8.39604e-01,9.99999e-01
1.673862252e+00,8.20462e-150,9.73831e-150,8.42508e-01,9.99999e-01
1.682231563e+00,6.57663e-103,7.77962e-103,8.45365e-01,9.99999e-01
1.690642721e+00,5.52268e-56,6.51124e-56,8.48175e-01,9.99999e-01
1.699095934e+00,4.04033e-35,4.74809e-35,8.50938e-01,9.99999e-01
1.707591414e+00,5.40976e-17,6.33716e-17,8.53655e-01,9.99999e-01
1.716129371e+00,2.40684e-10,2.81066e-10,8.56328e-01,9.99999e-01
1.724710018e+00,2.52229e-06,2.93646e-06,8.58955e-01,9.99999e-01
1.733333568e+00,1.35397e-04,1.57157e-04,8.61539e-01,9.99999e-01
1.742000236e+00,5.13795e-03,5.94616e-03,8.64079e-01,9.99999e-01
1.750710237e+00,1.62166e-06,1.87135e-06,8.66576e-01,9.99999e-01
1.759463788e+00,6.14933e-143,7.07607e-143,8.69030e-01,9.99999e-01
1.768261107e+00,1.08168e-149,1.24125e-149,8.71443e-01,9.99999e-01
1.777102413e+00,5.28159e-146,6.04428e-146,8.73815e-01,9.99999e-01
1.785987925e+00,2.43271e-136,2.77659e-136,8.76146e-01,9.99999e-01
1.794917864e+00,4.29136e-130,4.88521e-130,8.78437e-01,9.99999e-01
1.803892454e+00,6.63565e-125,7.53460e-125,8.80689e-01,9.99999e-01
1.812911916e+00,5.96838e-120,6.75995e-120,8.82902e-01,9.99999e-01
1.821976476e+00,4.76453e-120,5.38318e-120,8.85077e-01,9.99999e-01
1.831086358e+00,7.44289e-96,8.38905e-96,8.87214e-01,9.99999e-01
1.840241790e+00,2.20323e-81,2.47745e-81,8.89313e-01,9.99999e-01
1.849442999e+00,3.00822e-56,3.37480e-56,8.91376e-01,9.99999e-01
1.858690214e+00,4.69842e-53,5.25901e-53,8.93403e-01,9.99999e-01
1.867983665e+00,1.45915e-53,1.62961e-53,8.95394e-01,9.99999e-01
1.877323583e+00,1.03124e-275,1.14921e-275,8.97351e-01,9.99999e-01
