#,Wave/freq,Total,CO2,Rayleigh,CIA
4.000000000e-01,2.33285e-11,9.99999e-01,2.33285e-11,9.99999e-01
4.020000000e-01,3.78540e-11,9.99999e-01,3.78540e-11,9.99999e-01
4.040100000e-01,6.08093e-11,9.99999e-01,6.08093e-11,9.99999e-01
4.060300500e-01,9.67748e-11,9.99999e-01,9.67748e-11,9.99999e-01
4.080602003e-01,1.52605e-10,9.99999e-01,1.52605e-10,9.99999e-01
4.101005013e-01,2.38488e-10,9.99999e-01,2.38488e-10,9.99999e-01
4.121510038e-01,3.69433e-10,9.99999e-01,3.69433e-10,9.99999e-01
4.142117588e-01,5.67349e-10,9.99999e-01,5.67349e-10,9.99999e-01
4.162828176e-01,8.63942e-10,9.99999e-01,8.63942e-10,9.99999e-01
4.183642317e-01,1.30470e-09,9.99999e-01,1.30470e-09,9.99999e-01
4.204560528e-01,1.95435e-09,9.99999e-01,1.95435e-09,9.99999e-01
4.225583331e-01,2.90420e-09,9.99999e-01,2.90420e-09,9.99999e-01
4.246711247e-01,4.28206e-09,9.99999e-01,4.28206e-09,9.99999e-01
4.267944804e-01,6.26540e-09,9.99999e-01,6.26540e-09,9.99999e-01
4.289284528e-01,9.09869e-09,9.99999e-01,9.09869e-09,9.99999e-01
4.310730950e-01,1.31162e-08,9.99999e-01,1.31162e-08,9.99999e-01
4.332284605e-01,1.87716e-08,9.99999e-01,1.87716e-08,9.99999e-01
4.353946028e-01,2.66759e-08,9.99999e-01,2.66759e-08,9.99999e-01
4.375715758e-01,3.76463e-08,9.99999e-01,3.76463e-08,9.99999e-01
4.397594337e-01,5.27679e-08,9.99999e-01,5.27679e-08,9.99999e-01
4.419582309e-01,7.34719e-08,9.99999e-01,7.34719e-08,9.99999e-01
4.441680220e-01,1.01633e-07,9.99999e-01,1.01633e-07,9.99999e-01
4.463888621e-01,1.39689e-07,9.99999e-01,1.39689e-07,9.99999e-01
4.486208064e-01,1.90793e-07,9.99999e-01,1.90793e-07,9.99999e-01
4.508639105e-01,2.58993e-07,9.99999e-01,2.58993e-07,9.99999e-01
4.531182300e-01,3.49455e-07,9.99999e-01,3.49455e-07,9.99999e-01
4.553838212e-01,4.68733e-07,9.99999e-01,4.68733e-07,9.99999e-01
4.576607403e-01,6.25086e-07,9.99999e-01,6.25086e-07,9.99999e-01
4.599490440e-01,8.28868e-07,9.99999e-01,8.28868e-07,9.99999e-01
4.622487892e-01,1.09298e-06,9.99999e-01,1.09298e-06,9.99999e-01
4.645600332e-01,1.43338e-06,9.99999e-01,1.43338e-06,9.99999e-01
4.668828333e-01,1.86977e-06,9.99999e-01,1.86977e-06,9.99999e-01
4.692172475e-01,2.42625e-06,9.99999e-01,2.42625e-06,9.99999e-01
4.715633337e-01,3.13218e-06,9.99999e-01,3.13218e-06,9.99999e-01
4.739211504e-01,4.02316e-06,9.99999e-01,4.02316e-06,9.99999e-01
4.762907561e-01,5.14210e-06,9.99999e-01,5.14210e-06,9.99999e-01
4.786722099e-01,6.54047e-06,9.99999e-01,6.54047e-06,9.99999e-01
4.810655710e-01,8.27967e-06,9.99999e-01,8.27967e-06,9.99999e-01
4.834708988e-01,1.04327e-05,9.99999e-01,1.04327e-05,9.99999e-01
4.858882533e-01,1.30856e-05,9.99999e-01,1.30856e-05,9.99999e-01
4.883176946e-01,1.63399e-05,9.99999e-01,1.63399e-05,9.99999e-01
4.907592831e-01,2.03142e-05,9.99999e-01,2.03142e-05,9.99999e-01
4.932130795e-01,2.51468e-05,9.99999e-01,2.51468e-05,9.99999e-01
4.956791449e-01,3.09980e-05,9.99999e-01,3.09980e-05,9.99999e-01
4.981575406e-01,3.80532e-05,9.99999e-01,3.80532e-05,9.99999e-01
5.006483283e-01,4.65254e-05,9.99999e-01,4.65254e-05,9.99999e-01
5.031515699e-01,5.66583e-05,9.99999e-01,5.66583e-05,9.99999e-01
5.056673278e-01,6.87301e-05,9.99999e-01,6.87301e-05,9.99999e-01
5.081956644e-01,8.30565e-05,9.99999e-01,8.30565e-05,9.99999e-01
5.107366428e-01,9.99945e-05,9.99999e-01,9.99945e-05,9.99999e-01
5.132903260e-01,1.19946e-04,9.99999e-01,1.19946e-04,9.99999e-01
5.158567776e-01,1.43363e-04,9.99999e-01,1.43363e-04,9.99999e-01
5.184360615e-01,1.70748e-04,9.99999e-01,1.70748e-04,9.99999e-01
5.210282418e-01,2.02664e-04,9.99999e-01,2.02664e-04,9.99999e-01
5.236333830e-01,2.39732e-04,9.99999e-01,2.39732e-04,9.99999e-01
5.262515499e-01,2.82642e-04,9.99999e-01,2.82642e-04,9.99999e-01
5.288828077e-01,3.32149e-04,9.99999e-01,3.32149e-04,9.99999e-01
5.315272217e-01,3.89086e-04,9.99999e-01,3.89086e-04,9.99999e-01
5.341848578e-01,4.54360e-04,9.99999e-01,4.54360e-04,9.99999e-01
5.368557821e-01,5.28963e-04,9.99999e-01,5.28963e-04,9.99999e-01
5.395400610e-01,6.13968e-04,9.99999e-01,6.13968e-04,9.99999e-01
5.422377613e-01,7.10538e-04,9.99999e-01,7.10538e-04,9.99999e-01
5.449489501e-01,8.19929e-04,9.99999e-01,8.19929e-04,9.99999e-01
5.476736949e-01,9.43489e-04,9.99999e-01,9.43489e-04,9.99999e-01
5.504120634e-01,1.08266e-03,9.99999e-01,1.08266e-03,9.99999e-01
5.531641237e-01,1.23900e-03,9.99999e-01,1.23900e-03,9.99999e-01
5.559299443e-01,1.41413e-03,9.99999e-01,1.41413e-03,9.99999e-01
5.587095940e-01,1.60981e-03,9.99999e-01,1.60981e-03,9.99999e-01
5.615031420e-01,1.82788e-03,9.99999e-01,1.82788e-03,9.99999e-01
5.643106577e-01,2.07028e-03,9.99999e-01,2.07028e-03,9.99999e-01
5.671322110e-01,2.33908e-03,9.99999e-01,2.33908e-03,9.99999e-01
5.699678720e-01,2.63641e-03,9.99999e-01,2.63641e-03,9.99999e-01
5.728177114e-01,2.96452e-03,9.99999e-01,2.96452e-03,9.99999e-01
5.756818000e-01,3.32575e-03,9.99999e-01,3.32575e-03,9.99999e-01
5.785602090e-01,3.72253e-03,9.99999e-01,3.72253e-03,9.99999e-01
5.814530100e-01,4.15739e-03,9.99999e-01,4.15739e-03,9.99999e-01
5.843602750e-01,4.63292e-03,9.99999e-01,4.63292e-03,9.99999e-01
5.872820764e-01,5.15181e-03,9.99999e-01,5.15181e-03,9.99999e-01
5.902184868e-01,5.71681e-03,9.99999e-01,5.71681e-03,9.99999e-01
5.931695792e-01,6.33076e-03,9.99999e-01,6.33076e-03,9.99999e-01
5.961354271e-01,6.99653e-03,9.99999e-01,6.99653e-03,9.99999e-01
5.991161043e-01,7.71705e-03,9.99999e-01,7.71705e-03,9.99999e-01
6.021116848e-01,8.49531e-03,9.99999e-01,8.49531e-03,9.99999e-01
6.051222432e-01,9.33433e-03,9.99999e-01,9.33433e-03,9.99999e-01
6.081478544e-01,1.02372e-02,9.99999e-01,1.02372e-02,9.99999e-01
6.111885937e-01,1.12068e-02,9.99999e-01,1.12068e-02,9.99999e-01
6.142445367e-01,1.22465e-02,9.99999e-01,1.22465e-02,9.99999e-01
6.173157594e-01,1.33591e-02,9.99999e-01,1.33591e-02,9.99999e-01
6.204023382e-01,1.45478e-02,9.99999e-01,1.45478e-02,9.99999e-01
6.235043498e-01,1.58156e-02,9.99999e-01,1.58156e-02,9.99999e-01
6.266218716e-01,1.71656e-02,9.99999e-01,1.71656e-02,9.99999e-01
6.297549810e-01,1.86007e-02,9.99999e-01,1.86007e-02,9.99999e-01
6.329037559e-01,2.01238e-02,9.99999e-01,2.01238e-02,9.99999e-01
6.360682746e-01,2.17378e-02,9.99999e-01,2.17378e-02,9.99999e-01
6.392486160e-01,2.34455e-02,9.99999e-01,2.34455e-02,9.99999e-01
6.424448591e-01,2.52497e-02,9.99999e-01,2.52497e-02,9.99999e-01
6.456570834e-01,2.71528e-02,9.99999e-01,2.71528e-02,9.99999e-01
6.488853688e-01,2.91576e-02,9.99999e-01,2.91576e-02,9.99999e-01
6.521297956e-01,3.12663e-02,9.99999e-01,3.12663e-02,9.99999e-01
6.553904446e-01,3.34813e-02,9.99999e-01,3.34813e-02,9.99999e-01
6.586673968e-01,3.58048e-02,9.99999e-01,3.58048e-02,9.99999e-01
6.619607338e-01,3.82388e-02,9.99999e-01,3.82388e-02,9.99999e-01
6.652705375e-01,4.07853e-02,9.99999e-01,4.07853e-02,9.99999e-01
6.685968902e-01,4.34459e-02,9.99999e-01,4.34459e-02,9.99999e-01
6.719398746e-01,4.62225e-02,9.99999e-01,4.62225e-02,9.99999e-01
6.752995740e-01,4.91163e-02,9.99999e-01,4.91163e-02,9.99999e-01
6.786760719e-01,5.21287e-02,9.99999e-01,5.21287e-02,9.99999e-01
6.820694522e-01,5.52609e-02,9.99999e-01,5.52609e-02,9.99999e-01
6.854797995e-01,5.85138e-02,9.99999e-01,5.85138e-02,9.99999e-01
6.889071985e-01,6.18882e-02,9.99999e-01,6.18882e-02,9.99999e-01
6.923517345e-01,6.53848e-02,9.99999e-01,6.53848e-02,9.99999e-01
6.958134932e-01,6.90039e-02,9.99999e-01,6.90039e-02,9.99999e-01
6.992925606e-01,7.27460e-02,9.99999e-01,7.27460e-02,9.99999e-01
7.027890234e-01,7.66110e-02,9.99999e-01,7.66110e-02,9.99999e-01
7.063029686e-01,8.05989e-02,9.99999e-01,8.05989e-02,9.99999e-01
7.098344834e-01,8.47094e-02,9.99999e-01,8.47094e-02,9.99999e-01
7.133836558e-01,8.89422e-02,9.99999e-01,8.89422e-02,9.99999e-01
7.169505741e-01,9.32965e-02,9.99999e-01,9.32965e-02,9.99999e-01
7.205353270e-01,9.77717e-02,9.99999e-01,9.77717e-02,9.99999e-01
7.241380036e-01,1.02367e-01,9.99999e-01,1.02367e-01,9.99999e-01
7.277586936e-01,1.07081e-01,9.99999e-01,1.07081e-01,9.99999e-01
7.313974871e-01,1.11912e-01,9.99999e-01,1.11912e-01,9.99999e-01
7.350544745e-01,1.16859e-01,9.99999e-01,1.16859e-01,9.99999e-01
7.387297469e-01,1.21921e-01,9.99999e-01,1.21921e-01,9.99999e-01
7.424233956e-01,1.27096e-01,9.99999e-01,1.27096e-01,9.99999e-01
7.461355126e-01,1.32381e-01,9.99999e-01,1.32381e-01,9.99999e-01
7.498661902e-01,1.37776e-01,9.99999e-01,1.37776e-01,9.99999e-01
7.536155211e-01,1.43277e-01,9.99999e-01,1.43277e-01,9.99999e-01
7.573835987e-01,1.48883e-01,9.99999e-01,1.48883e-01,9.99999e-01
7.611705167e-01,1.54590e-01,9.99999e-01,1.54590e-01,9.99999e-01
7.649763693e-01,1.60398e-01,9.99999e-01,1.60398e-01,9.99999e-01
7.688012511e-01,1.66302e-01,9.99999e-01,1.66302e-01,9.99999e-01
7.726452574e-01,1.72301e-01,9.99999e-01,1.72301e-01,9.99999e-01
7.765084837e-01,1.78391e-01,9.99999e-01,1.78391e-01,9.99999e-01
7.803910261e-01,1.71504e-01,9.29209e-01,1.84569e-01,9.99999e-01
7.842929812e-01,1.35414e-01,7.09593e-01,1.90833e-01,9.99999e-01
7.882144461e-01,1.36905e-01,6.94313e-01,1.97180e-01,9.99999e-01
7.921555184e-01,1.63303e-01,8.02051e-01,2.03606e-01,9.99999e-01
7.961162960e-01,1.81138e-01,8.62114e-01,2.10109e-01,9.99999e-01
8.000968774e-01,1.99913e-01,9.22596e-01,2.16685e-01,9.99999e-01
8.040973618e-01,2.14206e-01,9.59144e-01,2.23330e-01,9.99999e-01
8.081178486e-01,2.25669e-01,9.80992e-01,2.30042e-01,9.99999e-01
8.121584379e-01,2.35423e-01,9.94113e-01,2.36817e-01,9.99999e-01
8.162192301e-01,2.43335e-01,9.98697e-01,2.43652e-01,9.99999e-01
8.203003262e-01,2.50538e-01,9.99980e-01,2.50543e-01,9.99999e-01
8.244018279e-01,2.57487e-01,9.99999e-01,2.57487e-01,9.99999e-01
8.285238370e-01,2.64481e-01,9.99999e-01,2.64481e-01,9.99999e-01
8.326664562e-01,2.71521e-01,9.99999e-01,2.71521e-01,9.99999e-01
8.368297885e-01,2.78604e-01,9.99999e-01,2.78604e-01,9.99999e-01
8.410139374e-01,2.85727e-01,9.99999e-01,2.85727e-01,9.99999e-01
8.452190071e-01,2.92885e-01,9.99999e-01,2.92885e-01,9.99999e-01
8.494451021e-01,3.00076e-01,9.99999e-01,3.00076e-01,9.99999e-01
8.536923276e-01,3.07296e-01,9.99999e-01,3.07296e-01,9.99999e-01
8.579607893e-01,3.14542e-01,9.99999e-01,3.14542e-01,9.99999e-01
8.622505932e-01,3.21811e-01,9.99999e-01,3.21811e-01,9.99999e-01
8.665618462e-01,2.90344e-01,8.82237e-01,3.29100e-01,9.99999e-01
8.708946554e-01,1.43400e-01,4.26272e-01,3.36404e-01,9.99999e-01
8.752491287e-01,1.70320e-01,4.95515e-01,3.43722e-01,9.99999e-01
8.796253743e-01,2.37045e-01,6.75246e-01,3.51049e-01,9.99999e-01
8.840235012e-01,2.91619e-01,8.13704e-01,3.58384e-01,9.99999e-01
8.884436187e-01,3.37100e-01,9.21739e-01,3.65722e-01,9.99999e-01
8.928858368e-01,3.60920e-01,9.67457e-01,3.73061e-01,9.99999e-01
8.973502660e-01,3.77361e-01,9.92015e-01,3.80398e-01,9.99999e-01
9.018370173e-01,3.87388e-01,9.99117e-01,3.87730e-01,9.99999e-01
9.063462024e-01,3.86193e-01,9.77568e-01,3.95054e-01,9.99999e-01
9.108779334e-01,3.81913e-01,9.49162e-01,4.02368e-01,9.99999e-01
9.154323231e-01,4.04700e-01,9.87870e-01,4.09669e-01,9.99999e-01
9.200094847e-01,3.53818e-01,8.48575e-01,4.16955e-01,9.99999e-01
9.246095321e-01,3.28913e-01,7.75330e-01,4.24222e-01,9.99999e-01
9.292325798e-01,3.54045e-01,8.20557e-01,4.31469e-01,9.99999e-01
9.338787427e-01,3.62047e-01,8.25287e-01,4.38692e-01,9.99999e-01
9.385481364e-01,3.86903e-01,8.67709e-01,4.45890e-01,9.99999e-01
9.432408771e-01,4.15275e-01,9.16597e-01,4.53061e-01,9.99999e-01
9.479570815e-01,4.40065e-01,9.56242e-01,4.60202e-01,9.99999e-01
9.526968669e-01,4.57352e-01,9.78688e-01,4.67311e-01,9.99999e-01
9.574603512e-01,4.70036e-01,9.90829e-01,4.74386e-01,9.99999e-01
9.622476530e-01,4.80045e-01,9.97131e-01,4.81426e-01,9.99999e-01
9.670588912e-01,4.88008e-01,9.99140e-01,4.88427e-01,9.99999e-01
9.718941857e-01,4.95360e-01,9.99939e-01,4.95390e-01,9.99999e-01
9.767536566e-01,5.02311e-01,9.99999e-01,5.02311e-01,9.99999e-01
9.816374249e-01,5.09189e-01,9.99999e-01,5.09189e-01,9.99999e-01
9.865456120e-01,5.16023e-01,9.99999e-01,5.16023e-01,9.99999e-01
9.914783401e-01,5.22811e-01,9.99999e-01,5.22811e-01,9.99999e-01
9.964357318e-01,5.29551e-01,9.99999e-01,5.29551e-01,9.99999e-01
1.001417910e+00,5.36243e-01,9.99999e-01,5.36243e-01,9.99999e-01
1.006425000e+00,5.42884e-01,9.99999e-01,5.42884e-01,9.99999e-01
1.011457125e+00,5.49474e-01,9.99999e-01,5.49474e-01,9.99999e-01
1.016514411e+00,5.56012e-01,9.99999e-01,5.56012e-01,9.99999e-01
1.021596983e+00,5.62424e-01,9.99872e-01,5.62496e-01,9.99999e-01
1.026704968e+00,5.63868e-01,9.91110e-01,5.68925e-01,9.99999e-01
1.031838492e+00,5.28988e-01,9.19501e-01,5.75298e-01,9.99999e-01
1.036997685e+00,3.95176e-02,6.79444e-02,5.81615e-01,9.99999e-01
1.042182673e+00,6.44759e-03,1.09676e-02,5.87875e-01,9.99999e-01
1.047393587e+00,1.35399e-02,2.27915e-02,5.94076e-01,9.99999e-01
1.052630555e+00,9.83281e-06,1.63820e-05,6.00218e-01,9.99999e-01
1.057893707e+00,3.61050e-05,5.95495e-05,6.06301e-01,9.99999e-01
1.063183176e+00,4.37359e-04,7.14261e-04,6.12323e-01,9.99999e-01
1.068499092e+00,2.96347e-03,4.79305e-03,6.18284e-01,9.99999e-01
1.073841587e+00,2.05380e-02,3.29037e-02,6.24184e-01,9.99999e-01
1.079210795e+00,7.31596e-02,1.16122e-01,6.30022e-01,9.99999e-01
1.084606849e+00,1.89629e-01,2.98253e-01,6.35798e-01,9.99999e-01
1.090029883e+00,3.40878e-01,5.31367e-01,6.41511e-01,9.99999e-01
1.095480033e+00,4.73602e-01,7.31815e-01,6.47161e-01,9.99999e-01
1.100957433e+00,5.61277e-01,8.59868e-01,6.52747e-01,9.99999e-01
1.106462220e+00,6.18408e-01,9.39443e-01,6.58271e-01,9.99999e-01
1.111994531e+00,6.48527e-01,9.77093e-01,6.63730e-01,9.99999e-01
1.117554504e+00,6.65359e-01,9.94370e-01,6.69125e-01,9.99999e-01
1.123142276e+00,6.74208e-01,9.99630e-01,6.74457e-01,9.99999e-01
1.128757988e+00,6.79724e-01,9.99999e-01,6.79724e-01,9.99999e-01
1.134401778e+00,6.84927e-01,9.99999e-01,6.84927e-01,9.99999e-01
1.140073787e+00,6.90067e-01,9.99999e-01,6.90067e-01,9.99999e-01
1.145774156e+00,6.95142e-01,9.99999e-01,6.95142e-01,9.99999e-01
1.151503026e+00,7.00153e-01,9.99999e-01,7.00153e-01,9.99999e-01
1.157260541e+00,7.05100e-01,9.99999e-01,7.05100e-01,9.99999e-01
1.163046844e+00,7.09983e-01,9.99999e-01,7.09983e-01,9.99999e-01
1.168862078e+00,7.14803e-01,9.99999e-01,7.14803e-01,9.99999e-01
1.174706389e+00,7.19559e-01,9.99999e-01,7.19559e-01,9.99999e-01
1.180579921e+00,7.24252e-01,9.99999e-01,7.24252e-01,9.99999e-01
1.186482820e+00,7.28869e-01,9.99981e-01,7.28882e-01,9.99999e-01
1.192415234e+00,7.10894e-01,9.69246e-01,7.33449e-01,9.99999e-01
1.198377311e+00,3.92210e-01,5.31483e-01,7.37954e-01,9.99999e-01
1.204369197e+00,1.77568e-23,2.39182e-23,7.42397e-01,9.99999e-01
1.210391043e+00,1.88967e-93,2.53044e-93,7.46778e-01,9.99999e-01
1.216442998e+00,6.14493e-81,8.18127e-81,7.51097e-01,9.99999e-01
1.222525213e+00,9.90092e-80,1.31076e-79,7.55355e-01,9.99999e-01
1.228637839e+00,1.35042e-61,1.77791e-61,7.59553e-01,9.99999e-01
1.234781029e+00,1.54205e-38,2.01921e-38,7.63690e-01,9.99999e-01
1.240954934e+00,1.14050e-25,1.48547e-25,7.67768e-01,9.99999e-01
1.247159708e+00,1.12316e-12,1.45528e-12,7.71786e-01,9.99999e-01
1.253395507e+00,1.45417e-08,1.87454e-08,7.75745e-01,9.99999e-01
1.259662485e+00,3.10518e-05,3.98280e-05,7.79646e-01,9.99999e-01
1.265960797e+00,2.72442e-03,3.47729e-03,7.83489e-01,9.99999e-01
1.272290601e+00,5.94999e-02,7.55771e-02,7.87274e-01,9.99999e-01
1.278652054e+00,5.20421e-02,6.57926e-02,7.91002e-01,9.99999e-01
1.285045314e+00,1.45418e-04,1.82991e-04,7.94674e-01,9.99999e-01
1.291470541e+00,2.56100e-11,3.20811e-11,7.98290e-01,9.99999e-01
1.297927893e+00,1.75972e-04,2.19457e-04,8.01850e-01,9.99999e-01
1.304417533e+00,6.99577e-03,8.68656e-03,8.05355e-01,9.99999e-01
1.310939621e+00,1.67442e-03,2.07023e-03,8.08806e-01,9.99999e-01
1.317494319e+00,4.45505e-32,5.48514e-32,8.12203e-01,9.99999e-01
1.324081790e+00,3.14420e-21,3.85532e-21,8.15547e-01,9.99999e-01
1.330702199e+00,1.27681e-12,1.55929e-12,8.18838e-01,9.99999e-01
1.337355710e+00,1.07432e-11,1.30683e-11,8.22077e-01,9.99999e-01
1.344042489e+00,4.90149e-12,5.93929e-12,8.25265e-01,9.99999e-01
1.350762701e+00,6.75504e-13,8.15431e-13,8.28401e-01,9.99999e-01
1.357516515e+00,4.20701e-08,5.05961e-08,8.31488e-01,9.99999e-01
1.364304097e+00,6.47331e-06,7.75688e-06,8.34524e-01,9.99999e-01
1.371125618e+00,2.05196e-03,2.45007e-03,8.37511e-01,9.99999e-01
1.377981246e+00,4.87912e-03,5.80536e-03,8.40450e-01,9.99999e-01
1.384871152e+00,4.19605e-02,4.97551e-02,8.43340e-01,9.99999e-01
1.391795508e+00,5.31503e-02,6.28117e-02,8.46183e-01,9.99999e-01
1.398754485e+00,1.50023e-01,1.76710e-01,8.48979e-01,9.99999e-01
1.405748258e+00,2.40260e-01,2.82084e-01,8.51729e-01,9.99999e-01
1.412776999e+00,3.82407e-01,4.47556e-01,8.54433e-01,9.99999e-01
1.419840884e+00,3.48713e-01,4.06856e-01,8.57093e-01,9.99999e-01
1.426940089e+00,1.58030e-02,1.83819e-02,8.59707e-01,9.99999e-01
1.434074789e+00,0.00000e+00,0.00000e+00,8.62278e-01,9.99999e-01
1.441245163e+00,0.00000e+00,0.00000e+00,8.64806e-01,9.99999e-01
1.448451389e+00,0.00000e+00,0.00000e+00,8.67290e-01,9.99999e-01
1.455693646e+00,0.00000e+00,0.00000e+00,8.69733e-01,9.99999e-01
1.462972114e+00,0.00000e+00,0.00000e+00,8.72134e-01,9.99999e-01
1.470286975e+00,1.45539e-154,1.66427e-154,8.74494e-01,9.99999e-01
1.477638409e+00,3.84040e-97,4.37995e-97,8.76813e-01,9.99999e-01
1.485026601e+00,4.24392e-54,4.82760e-54,8.79093e-01,9.99999e-01
1.492451734e+00,4.35888e-46,4.94578e-46,8.81334e-01,9.99999e-01
1.499913993e+00,5.05890e-20,5.72574e-20,8.83535e-01,9.99999e-01
1.507413563e+00,8.77125e-19,9.90318e-19,8.85699e-01,9.99999e-01
1.514950631e+00,2.85487e-20,3.21558e-20,8.87825e-01,9.99999e-01
1.522525384e+00,4.72237e-69,5.30654e-69,8.89914e-01,9.99999e-01
1.530138011e+00,5.95997e-165,6.68183e-165,8.91967e-01,9.99999e-01
1.537788701e+00,5.19588e-122,5.81205e-122,8.93983e-01,9.99999e-01
1.545477645e+00,9.62043e-26,1.07375e-25,8.95964e-01,9.99999e-01
1.553205033e+00,9.38768e-19,1.04550e-18,8.97910e-01,9.99999e-01
1.560971058e+00,4.43147e-19,4.92483e-19,8.99822e-01,9.99999e-01
1.568775913e+00,0.00000e+00,0.00000e+00,9.01700e-01,9.99999e-01
1.576619793e+00,0.00000e+00,0.00000e+00,9.03545e-01,9.99999e-01
1.584502892e+00,0.00000e+00,0.00000e+00,9.05357e-01,9.99999e-01
1.592425406e+00,0.00000e+00,0.00000e+00,9.07137e-01,9.99999e-01
1.600387533e+00,0.00000e+00,0.00000e+00,9.08885e-01,9.99999e-01
1.608389471e+00,0.00000e+00,0.00000e+00,9.10602e-01,9.99999e-01
1.616431418e+00,0.00000e+00,0.00000e+00,9.12288e-01,9.99999e-01
1.624513575e+00,0.00000e+00,0.00000e+00,9.13943e-01,9.99999e-01
1.632636143e+00,0.00000e+00,0.00000e+00,9.15569e-01,9.99999e-01
1.640799324e+00,3.40252e-143,3.70981e-143,9.17166e-01,9.99999e-01
1.649003321e+00,3.40681e-143,3.70816e-143,9.18734e-01,9.99999e-01
1.657248337e+00,1.19476e-110,1.29827e-110,9.20273e-01,9.99999e-01
1.665534579e+00,2.17454e-111,2.35905e-111,9.21785e-01,9.99999e-01
1.673862252e+00,5.22595e-71,5.66027e-71,9.23269e-01,9.99999e-01
1.682231563e+00,3.72353e-49,4.02663e-49,9.24726e-01,9.99999e-01
1.690642721e+00,2.72702e-27,2.94445e-27,9.26156e-01,9.99999e-01
1.699095934e+00,1.94992e-17,2.10220e-17,9.27561e-01,9.99999e-01
1.707591414e+00,4.67060e-09,5.02788e-09,9.28939e-01,9.99999e-01
1.716129371e+00,1.35995e-05,1.46185e-05,9.30293e-01,9.99999e-01
1.724710018e+00,1.54717e-03,1.66073e-03,9.31622e-01,9.99999e-01
1.733333568e+00,1.31077e-02,1.40501e-02,9.32926e-01,9.99999e-01
1.742000236e+00,7.75532e-02,8.30150e-02,9.34206e-01,9.99999e-01
1.750710237e+00,3.63512e-04,3.88590e-04,9.35463e-01,9.99999e-01
1.759463788e+00,8.40428e-68,8.97224e-68,9.36696e-01,9.99999e-01
1.768261107e+00,5.85389e-71,6.24143e-71,9.37907e-01,9.99999e-01
1.777102413e+00,4.10862e-69,4.37508e-69,9.39095e-01,9.99999e-01
1.785987925e+00,9.70005e-65,1.03163e-64,9.40262e-01,9.99999e-01
1.794917864e+00,8.03389e-62,8.53391e-62,9.41406e-01,9.99999e-01
1.803892454e+00,2.06030e-59,2.18592e-59,9.42530e-01,9.99999e-01
1.812911916e+00,4.32442e-57,4.58274e-57,9.43632e-01,9.99999e-01
1.821976476e+00,3.77399e-57,3.99484e-57,9.44714e-01,9.99999e-01
1.831086358e+00,7.10572e-46,7.51310e-46,9.45776e-01,9.99999e-01
1.840241790e+00,4.49940e-39,4.75212e-39,9.46818e-01,9.99999e-01
1.849442999e+00,3.69831e-27,3.90183e-27,9.47841e-01,9.99999e-01
1.858690214e+00,1.52650e-25,1.60880e-25,9.48844e-01,9.99999e-01
1.867983665e+00,3.77777e-26,3.97732e-26,9.49829e-01,9.99999e-01
1.877323583e+00,1.16476e-129,1.22503e-129,9.50795e-01,9.99999e-01
