#,Wave/freq,Total,CO2,Rayleigh,CIA
4.000000000e-01,9.32130e-06,9.99999e-01,9.32130e-06,9.99999e-01
4.020000000e-01,1.17204e-05,9.99999e-01,1.17204e-05,9.99999e-01
4.040100000e-01,1.46671e-05,9.99999e-01,1.46671e-05,9.99999e-01
4.060300500e-01,1.82734e-05,9.99999e-01,1.82734e-05,9.99999e-01
4.080602003e-01,2.26679e-05,9.99999e-01,2.26679e-05,9.99999e-01
4.101005013e-01,2.79997e-05,9.99999e-01,2.79997e-05,9.99999e-01
4.121510038e-01,3.44416e-05,9.99999e-01,3.44416e-05,9.99999e-01
4.142117588e-01,4.21927e-05,9.99999e-01,4.21927e-05,9.99999e-01
4.162828176e-01,5.14813e-05,9.99999e-01,5.14813e-05,9.99999e-01
4.183642317e-01,6.25684e-05,9.99999e-01,6.25684e-05,9.99999e-01
4.204560528e-01,7.57508e-05,9.99999e-01,7.57508e-05,9.99999e-01
4.225583331e-01,9.13650e-05,9.99999e-01,9.13650e-05,9.99999e-01
4.246711247e-01,1.09790e-04,9.99999e-01,1.09790e-04,9.99999e-01
4.267944804e-01,1.31454e-04,9.99999e-01,1.31454e-04,9.99999e-01
4.289284528e-01,1.56833e-04,9.99999e-01,1.56833e-04,9.99999e-01
4.310730950e-01,1.86460e-04,9.99999e-01,1.86460e-04,9.99999e-01
4.332284605e-01,2.20928e-04,9.99999e-01,2.20928e-04,9.99999e-01
4.353946028e-01,2.60892e-04,9.99999e-01,2.60892e-04,9.99999e-01
4.375715758e-01,3.07076e-04,9.99999e-01,3.07076e-04,9.99999e-01
4.397594337e-01,3.60272e-04,9.99999e-01,3.60272e-04,9.99999e-01
4.419582309e-01,4.21353e-04,9.99999e-01,4.21353e-04,9.99999e-01
4.441680220e-01,4.91267e-04,9.99999e-01,4.91267e-04,9.99999e-01
4.463888621e-01,5.71048e-04,9.99999e-01,5.71048e-04,9.99999e-01
4.486208064e-01,6.61814e-04,9.99999e-01,6.61814e-04,9.99999e-01
4.508639105e-01,7.64776e-04,9.99999e-01,7.64776e-04,9.99999e-01
4.531182300e-01,8.81236e-04,9.99999e-01,8.81236e-04,9.99999e-01
4.553838212e-01,1.01259e-03,9.99999e-01,1.01259e-03,9.99999e-01
4.576607403e-01,1.16034e-03,9.99999e-01,1.16034e-03,9.99999e-01
4.599490440e-01,1.32607e-03,9.99999e-01,1.32607e-03,9.99999e-01
4.622487892e-01,1.51148e-03,9.99999e-01,1.51148e-03,9.99999e-01
4.645600332e-01,1.71837e-03,9.99999e-01,1.71837e-03,9.99999e-01
4.668828333e-01,1.94863e-03,9.99999e-01,1.94863e-03,9.99999e-01
4.692172475e-01,2.20427e-03,9.99999e-01,2.20427e-03,9.99999e-01
4.715633337e-01,2.48737e-03,9.99999e-01,2.48737e-03,9.99999e-01
4.739211504e-01,2.80015e-03,9.99999e-01,2.80015e-03,9.99999e-01
4.762907561e-01,3.14490e-03,9.99999e-01,3.14490e-03,9.99999e-01
4.786722099e-01,3.52399e-03,9.99999e-01,3.52399e-03,9.99999e-01
4.810655710e-01,3.93992e-03,9.99999e-01,3.93992e-03,9.99999e-01
4.834708988e-01,4.39523e-03,9.99999e-01,4.39523e-03,9.99999e-01
4.858882533e-01,4.89259e-03,9.99999e-01,4.89259e-03,9.99999e-01
4.883176946e-01,5.43471e-03,9.99999e-01,5.43471e-03,9.99999e-01
4.907592831e-01,6.02438e-03,9.99999e-01,6.02438e-03,9.99999e-01
4.932130795e-01,6.66445e-03,9.99999e-01,6.66445e-03,9.99999e-01
4.956791449e-01,7.35784e-03,9.99999e-01,7.35784e-03,9.99999e-01
4.981575406e-01,8.10751e-03,9.99999e-01,8.10751e-03,9.99999e-01
5.006483283e-01,8.91645e-03,9.99999e-01,8.91645e-03,9.99999e-01
5.031515699e-01,9.78770e-03,9.99999e-01,9.78770e-03,9.99999e-01
5.056673278e-01,1.07243e-02,9.99999e-01,1.07243e-02,9.99999e-01
5.081956644e-01,1.17294e-02,9.99999e-01,1.17294e-02,9.99999e-01
5.107366428e-01,1.28059e-02,9.99999e-01,1.28059e-02,9.99999e-01
5.132903260e-01,1.39571e-02,9.99999e-01,1.39571e-02,9.99999e-01
5.158567776e-01,1.51859e-02,9.99999e-01,1.51859e-02,9.99999e-01
5.184360615e-01,1.64953e-02,9.99999e-01,1.64953e-02,9.99999e-01
5.210282418e-01,1.78884e-02,9.99999e-01,1.78884e-02,9.99999e-01
5.236333830e-01,1.93682e-02,9.99999e-01,1.93682e-02,9.99999e-01
5.262515499e-01,2.09374e-02,9.99999e-01,2.09374e-02,9.99999e-01
5.288828077e-01,2.25990e-02,9.99999e-01,2.25990e-02,9.99999e-01
5.315272217e-01,2.43556e-02,9.99999e-01,2.43556e-02,9.99999e-01
5.341848578e-01,2.62101e-02,9.99999e-01,2.62101e-02,9.99999e-01
5.368557821e-01,2.81648e-02,9.99999e-01,2.81648e-02,9.99999e-01
5.395400610e-01,3.02224e-02,9.99999e-01,3.02224e-02,9.99999e-01
5.422377613e-01,3.23852e-02,9.99999e-01,3.23852e-02,9.99999e-01
5.449489501e-01,3.46554e-02,9.99999e-01,3.46554e-02,9.99999e-01
5.476736949e-01,3.70351e-02,9.99999e-01,3.70351e-02,9.99999e-01
5.504120634e-01,3.95264e-02,9.99999e-01,3.95264e-02,9.99999e-01
5.531641237e-01,4.21311e-02,9.99999e-01,4.21311e-02,9.99999e-01
5.559299443e-01,4.48508e-02,9.99999e-01,4.48508e-02,9.99999e-01
5.587095940e-01,4.76871e-02,9.99999e-01,4.76871e-02,9.99999e-01
5.615031420e-01,5.06414e-02,9.99999e-01,5.06414e-02,9.99999e-01
5.643106577e-01,5.37149e-02,9.99999e-01,5.37149e-02,9.99999e-01
5.671322110e-01,5.69087e-02,9.99999e-01,5.69087e-02,9.99999e-01
5.699678720e-01,6.02236e-02,9.99999e-01,6.02236e-02,9.99999e-01
5.728177114e-01,6.36604e-02,9.99999e-01,6.36604e-02,9.99999e-01
5.756818000e-01,6.72196e-02,9.99999e-01,6.72196e-02,9.99999e-01
5.785602090e-01,7.09016e-02,9.99999e-01,7.09016e-02,9.99999e-01
5.814530100e-01,7.47065e-02,9.99999e-01,7.47065e-02,9.99999e-01
5.843602750e-01,7.86343e-02,9.99999e-01,7.86343e-02,9.99999e-01
5.872820764e-01,8.26850e-02,9.99999e-01,8.26850e-02,9.99999e-01
5.902184868e-01,8.68580e-02,9.99999e-01,8.68580e-02,9.99999e-01
5.931695792e-01,9.11530e-02,9.99999e-01,9.11530e-02,9.99999e-01
5.961354271e-01,9.55693e-02,9.99999e-01,9.55693e-02,9.99999e-01
5.991161043e-01,1.00106e-01,9.99999e-01,1.00106e-01,9.99999e-01
6.021116848e-01,1.04762e-01,9.99999e-01,1.04762e-01,9.99999e-01
6.051222432e-01,1.09536e-01,9.99999e-01,1.09536e-01,9.99999e-01
6.081478544e-01,1.14427e-01,9.99999e-01,1.14427e-01,9.99999e-01
6.111885937e-01,1.19433e-01,9.99999e-01,1.19433e-01,9.99999e-01
6.142445367e-01,1.24553e-01,9.99999e-01,1.24553e-01,9.99999e-01
6.173157594e-01,1.29784e-01,9.99999e-01,1.29784e-01,9.99999e-01
6.204023382e-01,1.35126e-01,9.99999e-01,1.35126e-01,9.99999e-01
6.235043498e-01,1.40575e-01,9.99999e-01,1.40575e-01,9.99999e-01
6.266218716e-01,1.46130e-01,9.99999e-01,1.46130e-01,9.99999e-01
6.297549810e-01,1.51788e-01,9.99999e-01,1.51788e-01,9.99999e-01
6.329037559e-01,1.57547e-01,9.99999e-01,1.57547e-01,9.99999e-01
6.360682746e-01,1.63404e-01,9.99999e-01,1.63404e-01,9.99999e-01
6.392486160e-01,1.69357e-01,9.99999e-01,1.69357e-01,9.99999e-01
6.424448591e-01,1.75403e-01,9.99999e-01,1.75403e-01,9.99999e-01
6.456570834e-01,1.81538e-01,9.99999e-01,1.81538e-01,9.99999e-01
6.488853688e-01,1.87761e-01,9.99999e-01,1.87761e-01,9.99999e-01
6.521297956e-01,1.94068e-01,9.99999e-01,1.94068e-01,9.99999e-01
6.553904446e-01,2.00456e-01,9.99999e-01,2.00456e-01,9.99999e-01
6.586673968e-01,2.06921e-01,9.99999e-01,2.06921e-01,9.99999e-01
6.619607338e-01,2.13462e-01,9.99999e-01,2.13462e-01,9.99999e-01
6.652705375e-01,2.20073e-01,9.99999e-01,2.20073e-01,9.99999e-01
6.685968902e-01,2.26753e-01,9.99999e-01,2.26753e-01,9.99999e-01
6.719398746e-01,2.33498e-01,9.99999e-01,2.33498e-01,9.99999e-01
6.752995740e-01,2.40304e-01,9.99999e-01,2.40304e-01,9.99999e-01
6.786760719e-01,2.47168e-01,9.99999e-01,2.47168e-01,9.99999e-01
6.820694522e-01,2.54087e-01,9.99999e-01,2.54087e-01,9.99999e-01
6.854797995e-01,2.61057e-01,9.99999e-01,2.61057e-01,9.99999e-01
6.889071985e-01,2.68075e-01,9.99999e-01,2.68075e-01,9.99999e-01
6.923517345e-01,2.75137e-01,9.99999e-01,2.75137e-01,9.99999e-01
6.958134932e-01,2.82241e-01,9.99999e-01,2.82241e-01,9.99999e-01
6.992925606e-01,2.89382e-01,9.99999e-01,2.89382e-01,9.99999e-01
7.027890234e-01,2.96557e-01,9.99999e-01,2.96557e-01,9.99999e-01
7.063029686e-01,3.03764e-01,9.99999e-01,3.03764e-01,9.99999e-01
7.098344834e-01,3.10997e-01,9.99999e-01,3.10997e-01,9.99999e-01
7.133836558e-01,3.18256e-01,9.99999e-01,3.18256e-01,9.99999e-01
7.169505741e-01,3.25535e-01,9.99999e-01,3.25535e-01,9.99999e-01
7.205353270e-01,3.32832e-01,9.99999e-01,3.32832e-01,9.99999e-01
7.241380036e-01,3.40144e-01,9.99999e-01,3.40144e-01,9.99999e-01
7.277586936e-01,3.47467e-01,9.99999e-01,3.47467e-01,9.99999e-01
7.313974871e-01,3.54798e-01,9.99999e-01,3.54798e-01,9.99999e-01
7.350544745e-01,3.62135e-01,9.99999e-01,3.62135e-01,9.99999e-01
7.387297469e-01,3.69474e-01,9.99999e-01,3.69474e-01,9.99999e-01
7.424233956e-01,3.76812e-01,9.99999e-01,3.76812e-01,9.99999e-01
7.461355126e-01,3.84147e-01,9.99999e-01,3.84147e-01,9.99999e-01
7.498661902e-01,3.91475e-01,9.99999e-01,3.91475e-01,9.99999e-01
7.536155211e-01,3.98795e-01,9.99999e-01,3.98795e-01,9.99999e-01
7.573835987e-01,4.06103e-01,9.99999e-01,4.06103e-01,9.99999e-01
7.611705167e-01,4.13396e-01,9.99999e-01,4.13396e-01,9.99999e-01
7.649763693e-01,4.20672e-01,9.99999e-01,4.20672e-01,9.99999e-01
7.688012511e-01,4.27929e-01,9.99999e-01,4.27929e-01,9.99999e-01
7.726452574e-01,4.35164e-01,9.99999e-01,4.35164e-01,9.99999e-01
7.765084837e-01,4.42375e-01,9.99999e-01,4.42375e-01,9.99999e-01
7.803910261e-01,4.32584e-01,9.62239e-01,4.49560e-01,9.99999e-01
7.842929812e-01,3.86084e-01,8.45348e-01,4.56715e-01,9.99999e-01
7.882144461e-01,3.87342e-01,8.35076e-01,4.63840e-01,9.99999e-01
7.921555184e-01,4.23789e-01,8.99894e-01,4.70932e-01,9.99999e-01
7.961162960e-01,4.45475e-01,9.31975e-01,4.77989e-01,9.99999e-01
8.000968774e-01,4.66824e-01,9.62504e-01,4.85010e-01,9.99999e-01
8.040973618e-01,4.82364e-01,9.80430e-01,4.91992e-01,9.99999e-01
8.081178486e-01,4.94420e-01,9.90954e-01,4.98933e-01,9.99999e-01
8.121584379e-01,5.04421e-01,9.97208e-01,5.05833e-01,9.99999e-01
8.162192301e-01,5.12372e-01,9.99382e-01,5.12688e-01,9.99999e-01
8.203003262e-01,5.19494e-01,9.99990e-01,5.19499e-01,9.99999e-01
8.244018279e-01,5.26262e-01,9.99999e-01,5.26262e-01,9.99999e-01
8.285238370e-01,5.32978e-01,9.99999e-01,5.32978e-01,9.99999e-01
8.326664562e-01,5.39644e-01,9.99999e-01,5.39644e-01,9.99999e-01
8.368297885e-01,5.46260e-01,9.99999e-01,5.46260e-01,9.99999e-01
8.410139374e-01,5.52823e-01,9.99999e-01,5.52823e-01,9.99999e-01
8.452190071e-01,5.59333e-01,9.99999e-01,5.59333e-01,9.99999e-01
8.494451021e-01,5.65789e-01,9.99999e-01,5.65789e-01,9.99999e-01
8.536923276e-01,5.72190e-01,9.99999e-01,5.72190e-01,9.99999e-01
8.579607893e-01,5.78535e-01,9.99999e-01,5.78535e-01,9.99999e-01
8.622505932e-01,5.84823e-01,9.99999e-01,5.84823e-01,9.99999e-01
8.665618462e-01,5.43419e-01,9.19408e-01,5.91052e-01,9.99999e-01
8.708946554e-01,3.89846e-01,6.52763e-01,5.97224e-01,9.99999e-01
8.752491287e-01,4.27746e-01,7.08969e-01,6.03335e-01,9.99999e-01
8.796253743e-01,5.04332e-01,8.27605e-01,6.09387e-01,9.99999e-01
8.840235012e-01,5.57801e-01,9.06435e-01,6.15378e-01,9.99999e-01
8.884436187e-01,5.97741e-01,9.62068e-01,6.21308e-01,9.99999e-01
8.928858368e-01,6.17424e-01,9.84449e-01,6.27176e-01,9.99999e-01
8.973502660e-01,6.30585e-01,9.96211e-01,6.32983e-01,9.99999e-01
9.018370173e-01,6.38460e-01,9.99582e-01,6.38726e-01,9.99999e-01
9.063462024e-01,6.37445e-01,9.89195e-01,6.44407e-01,9.99999e-01
9.108779334e-01,6.34137e-01,9.75558e-01,6.50025e-01,9.99999e-01
9.154323231e-01,6.51798e-01,9.94232e-01,6.55579e-01,9.99999e-01
9.200094847e-01,6.07606e-01,9.19125e-01,6.61069e-01,9.99999e-01
9.246095321e-01,5.90456e-01,8.85910e-01,6.66496e-01,9.99999e-01
9.292325798e-01,6.10846e-01,9.09187e-01,6.71859e-01,9.99999e-01
9.338787427e-01,6.17796e-01,9.12336e-01,6.77158e-01,9.99999e-01
9.385481364e-01,6.37874e-01,9.34761e-01,6.82392e-01,9.99999e-01
9.432408771e-01,6.59768e-01,9.59574e-01,6.87563e-01,9.99999e-01
9.479570815e-01,6.78148e-01,9.79035e-01,6.92669e-01,9.99999e-01
9.526968669e-01,6.90627e-01,9.89846e-01,6.97711e-01,9.99999e-01
9.574603512e-01,6.99632e-01,9.95647e-01,7.02690e-01,9.99999e-01
9.622476530e-01,7.06643e-01,9.98641e-01,7.07604e-01,9.99999e-01
9.670588912e-01,7.12165e-01,9.99592e-01,7.12455e-01,9.99999e-01
9.718941857e-01,7.17222e-01,9.99971e-01,7.17242e-01,9.99999e-01
9.767536566e-01,7.21966e-01,9.99999e-01,7.21966e-01,9.99999e-01
9.816374249e-01,7.26627e-01,9.99999e-01,7.26627e-01,9.99999e-01
9.865456120e-01,7.31224e-01,9.99999e-01,7.31224e-01,9.99999e-01
9.914783401e-01,7.35760e-01,9.99999e-01,7.35760e-01,9.99999e-01
9.964357318e-01,7.40233e-01,9.99999e-01,7.40233e-01,9.99999e-01
1.001417910e+00,7.44644e-01,9.99999e-01,7.44644e-01,9.99999e-01
1.006425000e+00,7.48993e-01,9.99999e-01,7.48993e-01,9.99999e-01
1.011457125e+00,7.53282e-01,9.99999e-01,7.53282e-01,9.99999e-01
1.016514411e+00,7.57509e-01,9.99999e-01,7.57509e-01,9.99999e-01
1.021596983e+00,7.61630e-01,9.99939e-01,7.61676e-01,9.99999e-01
1.026704968e+00,7.62541e-01,9.95767e-01,7.65782e-01,9.99999e-01
1.031838492e+00,7.32033e-01,9.50902e-01,7.69830e-01,9.99999e-01
1.036997685e+00,1.06116e-01,1.37133e-01,7.73818e-01,9.99999e-01
1.042182673e+00,7.44817e-02,9.57659e-02,7.77747e-01,9.99999e-01
1.047393587e+00,9.30056e-02,1.18991e-01,7.81618e-01,9.99999e-01
1.052630555e+00,1.82334e-03,2.32144e-03,7.85431e-01,9.99999e-01
1.057893707e+00,4.94548e-03,6.26655e-03,7.89187e-01,9.99999e-01
1.063183176e+00,1.86052e-02,2.34651e-02,7.92886e-01,9.99999e-01
1.068499092e+00,5.73863e-02,7.20454e-02,7.96529e-01,9.99999e-01
1.073841587e+00,1.51739e-01,1.89646e-01,8.00116e-01,9.99999e-01
1.079210795e+00,2.80363e-01,3.48862e-01,8.03649e-01,9.99999e-01
1.084606849e+00,4.51654e-01,5.59582e-01,8.07126e-01,9.99999e-01
1.090029883e+00,5.99436e-01,7.39542e-01,8.10549e-01,9.99999e-01
1.095480033e+00,7.01515e-01,8.61897e-01,8.13919e-01,9.99999e-01
1.100957433e+00,7.60744e-01,9.30874e-01,8.17236e-01,9.99999e-01
1.106462220e+00,7.96565e-01,9.70828e-01,8.20501e-01,9.99999e-01
1.111994531e+00,8.14724e-01,9.89086e-01,8.23713e-01,9.99999e-01
1.117554504e+00,8.24667e-01,9.97330e-01,8.26875e-01,9.99999e-01
1.123142276e+00,8.29840e-01,9.99824e-01,8.29985e-01,9.99999e-01
1.128757988e+00,8.33046e-01,9.99999e-01,8.33046e-01,9.99999e-01
1.134401778e+00,8.36057e-01,9.99999e-01,8.36057e-01,9.99999e-01
1.140073787e+00,8.39019e-01,9.99999e-01,8.39019e-01,9.99999e-01
1.145774156e+00,8.41933e-01,9.99999e-01,8.41933e-01,9.99999e-01
1.151503026e+00,8.44799e-01,9.99999e-01,8.44799e-01,9.99999e-01
1.157260541e+00,8.47618e-01,9.99999e-01,8.47618e-01,9.99999e-01
1.163046844e+00,8.50391e-01,9.99999e-01,8.50391e-01,9.99999e-01
1.168862078e+00,8.53117e-01,9.99999e-01,8.53117e-01,9.99999e-01
1.174706389e+00,8.55798e-01,9.99999e-01,8.55798e-01,9.99999e-01
1.180579921e+00,8.58435e-01,9.99999e-01,8.58435e-01,9.99999e-01
1.186482820e+00,8.61020e-01,9.99991e-01,8.61027e-01,9.99999e-01
1.192415234e+00,8.50599e-01,9.84973e-01,8.63576e-01,9.99999e-01
1.198377311e+00,4.83347e-01,5.58084e-01,8.66081e-01,9.99999e-01
1.204369197e+00,2.70283e-12,3.11191e-12,8.68544e-01,9.99999e-01
1.210391043e+00,2.09665e-45,2.40727e-45,8.70965e-01,9.99999e-01
1.216442998e+00,1.74531e-39,1.99842e-39,8.73345e-01,9.99999e-01
1.222525213e+00,6.50707e-39,7.43082e-39,8.75685e-01,9.99999e-01
1.228637839e+00,3.82597e-30,4.35768e-30,8.77984e-01,9.99999e-01
1.234781029e+00,2.01945e-19,2.29419e-19,8.80243e-01,9.99999e-01
1.240954934e+00,4.31263e-13,4.88702e-13,8.82464e-01,9.99999e-01
1.247159708e+00,3.66167e-07,4.13913e-07,8.84646e-01,9.99999e-01
1.253395507e+00,1.17297e-04,1.32271e-04,8.86791e-01,9.99999e-01
1.259662485e+00,5.28242e-03,5.94266e-03,8.88898e-01,9.99999e-01
1.265960797e+00,4.63607e-02,5.20340e-02,8.90968e-01,9.99999e-01
1.272290601e+00,2.52941e-01,2.83248e-01,8.93002e-01,9.99999e-01
1.278652054e+00,2.14721e-01,2.39911e-01,8.95000e-01,9.99999e-01
1.285045314e+00,3.53029e-03,3.93582e-03,8.96963e-01,9.99999e-01
1.291470541e+00,5.39053e-06,5.99685e-06,8.98892e-01,9.99999e-01
1.297927893e+00,5.80193e-03,6.44096e-03,9.00787e-01,9.99999e-01
1.304417533e+00,9.05282e-02,1.00292e-01,9.02648e-01,9.99999e-01
1.310939621e+00,2.13429e-02,2.35970e-02,9.04476e-01,9.99999e-01
1.317494319e+00,4.68327e-16,5.16762e-16,9.06271e-01,9.99999e-01
1.324081790e+00,4.87661e-11,5.37050e-11,9.08035e-01,9.99999e-01
1.330702199e+00,1.56226e-06,1.71721e-06,9.09767e-01,9.99999e-01
1.337355710e+00,2.40329e-06,2.63673e-06,9.11467e-01,9.99999e-01
1.344042489e+00,7.46461e-07,8.17467e-07,9.13138e-01,9.99999e-01
1.350762701e+00,9.53391e-07,1.04221e-06,9.14778e-01,9.99999e-01
1.357516515e+00,1.43968e-04,1.57104e-04,9.16389e-01,9.99999e-01
1.364304097e+00,2.87309e-03,3.12983e-03,9.17971e-01,9.99999e-01
1.371125618e+00,4.59626e-02,4.99851e-02,9.19524e-01,9.99999e-01
1.377981246e+00,7.75276e-02,8.41730e-02,9.21049e-01,9.99999e-01
1.384871152e+00,2.18609e-01,2.36962e-01,9.22547e-01,9.99999e-01
1.391795508e+00,2.44334e-01,2.64426e-01,9.24017e-01,9.99999e-01
1.398754485e+00,4.06630e-01,4.39381e-01,9.25460e-01,9.99999e-01
1.405748258e+00,5.06327e-01,5.46272e-01,9.26878e-01,9.99999e-01
1.412776999e+00,6.33449e-01,6.82398e-01,9.28269e-01,9.99999e-01
1.419840884e+00,5.67155e-01,6.10083e-01,9.29635e-01,9.99999e-01
1.426940089e+00,4.80937e-02,5.16595e-02,9.30975e-01,9.99999e-01
1.434074789e+00,0.00000e+00,0.00000e+00,9.32291e-01,9.99999e-01
1.441245163e+00,0.00000e+00,0.00000e+00,9.33583e-01,9.99999e-01
1.448451389e+00,0.00000e+00,0.00000e+00,9.34852e-01,9.99999e-01
1.455693646e+00,0.00000e+00,0.00000e+00,9.36096e-01,9.99999e-01
1.462972114e+00,2.03593e-177,2.17208e-177,9.37318e-01,9.99999e-01
1.470286975e+00,2.50715e-74,2.67139e-74,9.38517e-01,9.99999e-01
1.477638409e+00,3.74152e-47,3.98163e-47,9.39694e-01,9.99999e-01
1.485026601e+00,9.49542e-27,1.00924e-26,9.40850e-01,9.99999e-01
1.492451734e+00,8.52683e-23,9.05199e-23,9.41983e-01,9.99999e-01
1.499913993e+00,1.41034e-10,1.49543e-10,9.43096e-01,9.99999e-01
1.507413563e+00,2.23148e-09,2.36338e-09,9.44188e-01,9.99999e-01
1.514950631e+00,8.89905e-11,9.41438e-11,9.45260e-01,9.99999e-01
1.522525384e+00,7.34086e-34,7.75733e-34,9.46311e-01,9.99999e-01
1.530138011e+00,3.16474e-79,3.34064e-79,9.47343e-01,9.99999e-01
1.537788701e+00,6.53168e-59,6.88736e-59,9.48356e-01,9.99999e-01
1.545477645e+00,2.29023e-13,2.41242e-13,9.49350e-01,9.99999e-01
1.553205033e+00,1.83767e-09,1.93373e-09,9.50325e-01,9.99999e-01
1.560971058e+00,5.47403e-10,5.75436e-10,9.51282e-01,9.99999e-01
1.568775913e+00,4.88737e-199,5.13260e-199,9.52221e-01,9.99999e-01
1.576619793e+00,0.00000e+00,0.00000e+00,9.53142e-01,9.99999e-01
1.584502892e+00,2.19693e-254,2.30275e-254,9.54046e-01,9.99999e-01
1.592425406e+00,1.78049e-177,1.86452e-177,9.54933e-01,9.99999e-01
1.600387533e+00,1.19932e-285,1.25477e-285,9.55803e-01,9.99999e-01
1.608389471e+00,0.00000e+00,0.00000e+00,9.56657e-01,9.99999e-01
1.616431418e+00,0.00000e+00,0.00000e+00,9.57495e-01,9.99999e-01
1.624513575e+00,2.83436e-225,2.95764e-225,9.58317e-01,9.99999e-01
1.632636143e+00,1.72937e-167,1.80307e-167,9.59123e-01,9.99999e-01
1.640799324e+00,6.03128e-69,6.28314e-69,9.59914e-01,9.99999e-01
1.649003321e+00,6.07734e-69,6.32601e-69,9.60690e-01,9.99999e-01
1.657248337e+00,1.58466e-53,1.64819e-53,9.61451e-01,9.99999e-01
1.665534579e+00,7.02019e-54,7.29599e-54,9.62198e-01,9.99999e-01
1.673862252e+00,9.82160e-35,1.01997e-34,9.62931e-01,9.99999e-01
1.682231563e+00,2.11346e-24,2.19318e-24,9.63649e-01,9.99999e-01
1.690642721e+00,4.49008e-14,4.65605e-14,9.64354e-01,9.99999e-01
1.699095934e+00,3.91615e-09,4.05798e-09,9.65046e-01,9.99999e-01
1.707591414e+00,3.69735e-05,3.82858e-05,9.65724e-01,9.99999e-01
1.716129371e+00,3.13916e-03,3.24833e-03,9.66390e-01,9.99999e-01
1.724710018e+00,4.07484e-02,4.21370e-02,9.67043e-01,9.99999e-01
1.733333568e+00,1.22905e-01,1.27010e-01,9.67683e-01,9.99999e-01
1.742000236e+00,2.81798e-01,2.91020e-01,9.68311e-01,9.99999e-01
1.750710237e+00,6.29989e-03,6.50192e-03,9.68927e-01,9.99999e-01
1.759463788e+00,3.65899e-33,3.77397e-33,9.69532e-01,9.99999e-01
1.768261107e+00,9.18232e-35,9.46509e-35,9.70124e-01,9.99999e-01
1.777102413e+00,1.47327e-33,1.51773e-33,9.70706e-01,9.99999e-01
1.785987925e+00,8.76395e-32,9.02313e-32,9.71276e-01,9.99999e-01
1.794917864e+00,2.53915e-30,2.61273e-30,9.71835e-01,9.99999e-01
1.803892454e+00,2.66951e-29,2.74532e-29,9.72384e-01,9.99999e-01
1.812911916e+00,4.30896e-28,4.42888e-28,9.72922e-01,9.99999e-01
1.821976476e+00,3.21863e-28,3.30642e-28,9.73449e-01,9.99999e-01
1.831086358e+00,6.93495e-23,7.12030e-23,9.73967e-01,9.99999e-01
1.840241790e+00,1.76097e-19,1.80710e-19,9.74474e-01,9.99999e-01
1.849442999e+00,1.22794e-13,1.25946e-13,9.74972e-01,9.99999e-01
1.858690214e+00,1.15726e-12,1.18637e-12,9.75461e-01,9.99999e-01
1.867983665e+00,1.93380e-13,1.98148e-13,9.75939e-01,9.99999e-01
1.877323583e+00,1.57758e-62,1.61569e-62,9.76409e-01,9.99999e-01
