#,Wave/freq,Total,CO2,Rayleigh,CIA
4.000000000e-01,4.52812e-23,9.99999e-01,4.52812e-23,9.99999e-01
4.020000000e-01,1.25235e-22,9.99999e-01,1.25235e-22,9.99999e-01
4.040100000e-01,3.39117e-22,9.99999e-01,3.39117e-22,9.99999e-01
4.060300500e-01,9.00384e-22,9.99999e-01,9.00384e-22,9.99999e-01
4.080602003e-01,2.34493e-21,9.99999e-01,2.34493e-21,9.99999e-01
4.101005013e-01,5.99268e-21,9.99999e-01,5.99268e-21,9.99999e-01
4.121510038e-01,1.50336e-20,9.99999e-01,1.50336e-20,9.99999e-01
4.142117588e-01,3.70353e-20,9.99999e-01,3.70353e-20,9.99999e-01
4.162828176e-01,8.96259e-20,9.99999e-01,8.96259e-20,9.99999e-01
4.183642317e-01,2.13143e-19,9.99999e-01,2.13143e-19,9.99999e-01
4.204560528e-01,4.98282e-19,9.99999e-01,4.98282e-19,9.99999e-01
4.225583331e-01,1.14550e-18,9.99999e-01,1.14550e-18,9.99999e-01
4.246711247e-01,2.59045e-18,9.99999e-01,2.59045e-18,9.99999e-01
4.267944804e-01,5.76440e-18,9.99999e-01,5.76440e-18,9.99999e-01
4.289284528e-01,1.26262e-17,9.99999e-01,1.26262e-17,9.99999e-01
4.310730950e-01,2.72310e-17,9.99999e-01,2.72310e-17,9.99999e-01
4.332284605e-01,5.78445e-17,9.99999e-01,5.78445e-17,9.99999e-01
4.353946028e-01,1.21059e-16,9.99999e-01,1.21059e-16,9.99999e-01
4.375715758e-01,2.49688e-16,9.99999e-01,2.49688e-16,9.99999e-01
4.397594337e-01,5.07678e-16,9.99999e-01,5.07678e-16,9.99999e-01
4.419582309e-01,1.01787e-15,9.99999e-01,1.01787e-15,9.99999e-01
4.441680220e-01,2.01292e-15,9.99999e-01,2.01292e-15,9.99999e-01
4.463888621e-01,3.92746e-15,9.99999e-01,3.92746e-15,9.99999e-01
4.486208064e-01,7.56247e-15,9.99999e-01,7.56247e-15,9.99999e-01
4.508639105e-01,1.43746e-14,9.99999e-01,1.43746e-14,9.99999e-01
4.531182300e-01,2.69784e-14,9.99999e-01,2.69784e-14,9.99999e-01
4.553838212e-01,5.00078e-14,9.99999e-01,5.00078e-14,9.99999e-01
4.576607403e-01,9.15724e-14,9.99999e-01,9.15724e-14,9.99999e-01
4.599490440e-01,1.65692e-13,9.99999e-01,1.65692e-13,9.99999e-01
4.622487892e-01,2.96314e-13,9.99999e-01,2.96314e-13,9.99999e-01
4.645600332e-01,5.23862e-13,9.99999e-01,5.23862e-13,9.99999e-01
4.668828333e-01,9.15783e-13,9.99999e-01,9.15783e-13,9.99999e-01
4.692172475e-01,1.58335e-12,9.99999e-01,1.58335e-12,9.99999e-01
4.715633337e-01,2.70810e-12,9.99999e-01,2.70810e-12,9.99999e-01
4.739211504e-01,4.58298e-12,9.99999e-01,4.58298e-12,9.99999e-01
4.762907561e-01,7.67571e-12,9.99999e-01,7.67571e-12,9.99999e-01
4.786722099e-01,1.27252e-11,9.99999e-01,1.27252e-11,9.99999e-01
4.810655710e-01,2.08869e-11,9.99999e-01,2.08869e-11,9.99999e-01
4.834708988e-01,3.39495e-11,9.99999e-01,3.39495e-11,9.99999e-01
4.858882533e-01,5.46545e-11,9.99999e-01,5.46545e-11,9.99999e-01
4.883176946e-01,8.71632e-11,9.99999e-01,8.71632e-11,9.99999e-01
4.907592831e-01,1.37732e-10,9.99999e-01,1.37732e-10,9.99999e-01
4.932130795e-01,2.15682e-10,9.99999e-01,2.15682e-10,9.99999e-01
4.956791449e-01,3.34770e-10,9.99999e-01,3.34770e-10,9.99999e-01
4.981575406e-01,5.15117e-10,9.99999e-01,5.15117e-10,9.99999e-01
5.006483283e-01,7.85902e-10,9.99999e-01,7.85902e-10,9.99999e-01
5.031515699e-01,1.18907e-09,9.99999e-01,1.18907e-09,9.99999e-01
5.056673278e-01,1.78441e-09,9.99999e-01,1.78441e-09,9.99999e-01
5.081956644e-01,2.65643e-09,9.99999e-01,2.65643e-09,9.99999e-01
5.107366428e-01,3.92365e-09,9.99999e-01,3.92365e-09,9.99999e-01
5.132903260e-01,5.75090e-09,9.99999e-01,5.75090e-09,9.99999e-01
5.158567776e-01,8.36568e-09,9.99999e-01,8.36568e-09,9.99999e-01
5.184360615e-01,1.20796e-08,9.99999e-01,1.20796e-08,9.99999e-01
5.210282418e-01,1.73161e-08,9.99999e-01,1.73161e-08,9.99999e-01
5.236333830e-01,2.46468e-08,9.99999e-01,2.46468e-08,9.99999e-01
5.262515499e-01,3.48371e-08,9.99999e-01,3.48371e-08,9.99999e-01
5.288828077e-01,4.89053e-08,9.99999e-01,4.89053e-08,9.99999e-01
5.315272217e-01,6.81960e-08,9.99999e-01,6.81960e-08,9.99999e-01
5.341848578e-01,9.44735e-08,9.99999e-01,9.44735e-08,9.99999e-01
5.368557821e-01,1.30036e-07,9.99999e-01,1.30036e-07,9.99999e-01
5.395400610e-01,1.77860e-07,9.99999e-01,1.77860e-07,9.99999e-01
5.422377613e-01,2.41773e-07,9.99999e-01,2.41773e-07,9.99999e-01
5.449489501e-01,3.26664e-07,9.99999e-01,3.26664e-07,9.99999e-01
5.476736949e-01,4.38746e-07,9.99999e-01,4.38746e-07,9.99999e-01
5.504120634e-01,5.85862e-07,9.99999e-01,5.85862e-07,9.99999e-01
5.531641237e-01,7.77852e-07,9.99999e-01,7.77852e-07,9.99999e-01
5.559299443e-01,1.02699e-06,9.99999e-01,1.02699e-06,9.99999e-01
5.587095940e-01,1.34851e-06,9.99999e-01,1.34851e-06,9.99999e-01
5.615031420e-01,1.76118e-06,9.99999e-01,1.76118e-06,9.99999e-01
5.643106577e-01,2.28804e-06,9.99999e-01,2.28804e-06,9.99999e-01
5.671322110e-01,2.95718e-06,9.99999e-01,2.95718e-06,9.99999e-01
5.699678720e-01,3.80269e-06,9.99999e-01,3.80269e-06,9.99999e-01
5.728177114e-01,4.86573e-06,9.99999e-01,4.86573e-06,9.99999e-01
5.756818000e-01,6.19569e-06,9.99999e-01,6.19569e-06,9.99999e-01
5.785602090e-01,7.85162e-06,9.99999e-01,7.85162e-06,9.99999e-01
5.814530100e-01,9.90367e-06,9.99999e-01,9.90367e-06,9.99999e-01
5.843602750e-01,1.24349e-05,9.99999e-01,1.24349e-05,9.99999e-01
5.872820764e-01,1.55430e-05,9.99999e-01,1.55430e-05,9.99999e-01
5.902184868e-01,1.93426e-05,9.99999e-01,1.93426e-05,9.99999e-01
5.931695792e-01,2.39672e-05,9.99999e-01,2.39672e-05,9.99999e-01
5.961354271e-01,2.95720e-05,9.99999e-01,2.95720e-05,9.99999e-01
5.991161043e-01,3.63364e-05,9.99999e-01,3.63364e-05,9.99999e-01
6.021116848e-01,4.44669e-05,9.99999e-01,4.44669e-05,9.99999e-01
6.051222432e-01,5.41999e-05,9.99999e-01,5.41999e-05,9.99999e-01
6.081478544e-01,6.58056e-05,9.99999e-01,6.58056e-05,9.99999e-01
6.111885937e-01,7.95907e-05,9.99999e-01,7.95907e-05,9.99999e-01
6.142445367e-01,9.59026e-05,9.99999e-01,9.59026e-05,9.99999e-01
6.173157594e-01,1.15133e-04,9.99999e-01,1.15133e-04,9.99999e-01
6.204023382e-01,1.37721e-04,9.99999e-01,1.37721e-04,9.99999e-01
6.235043498e-01,1.64159e-04,9.99999e-01,1.64159e-04,9.99999e-01
6.266218716e-01,1.94995e-04,9.99999e-01,1.94995e-04,9.99999e-01
6.297549810e-01,2.30836e-04,9.99999e-01,2.30836e-04,9.99999e-01
6.329037559e-01,2.72356e-04,9.99999e-01,2.72356e-04,9.99999e-01
6.360682746e-01,3.20297e-04,9.99999e-01,3.20297e-04,9.99999e-01
6.392486160e-01,3.75471e-04,9.99999e-01,3.75471e-04,9.99999e-01
6.424448591e-01,4.38770e-04,9.99999e-01,4.38770e-04,9.99999e-01
6.456570834e-01,5.11165e-04,9.99999e-01,5.11165e-04,9.99999e-01
6.488853688e-01,5.93711e-04,9.99999e-01,5.93711e-04,9.99999e-01
6.521297956e-01,6.87551e-04,9.99999e-01,6.87551e-04,9.99999e-01
6.553904446e-01,7.93919e-04,9.99999e-01,7.93919e-04,9.99999e-01
6.586673968e-01,9.14141e-04,9.99999e-01,9.14141e-04,9.99999e-01
6.619607338e-01,1.04964e-03,9.99999e-01,1.04964e-03,9.99999e-01
6.652705375e-01,1.20194e-03,9.99999e-01,1.20194e-03,9.99999e-01
6.685968902e-01,1.37266e-03,9.99999e-01,1.37266e-03,9.99999e-01
6.719398746e-01,1.56352e-03,9.99999e-01,1.56352e-03,9.99999e-01
6.752995740e-01,1.77634e-03,9.99999e-01,1.77634e-03,9.99999e-01
6.786760719e-01,2.01305e-03,9.99999e-01,2.01305e-03,9.99999e-01
6.820694522e-01,2.27567e-03,9.99999e-01,2.27567e-03,9.99999e-01
6.854797995e-01,2.56634e-03,9.99999e-01,2.56634e-03,9.99999e-01
6.889071985e-01,2.88726e-03,9.99999e-01,2.88726e-03,9.99999e-01
6.923517345e-01,3.24077e-03,9.99999e-01,3.24077e-03,9.99999e-01
6.958134932e-01,3.62926e-03,9.99999e-01,3.62926e-03,9.99999e-01
6.992925606e-01,4.05525e-03,9.99999e-01,4.05525e-03,9.99999e-01
7.027890234e-01,4.52132e-03,9.99999e-01,4.52132e-03,9.99999e-01
7.063029686e-01,5.03014e-03,9.99999e-01,5.03014e-03,9.99999e-01
7.098344834e-01,5.58444e-03,9.99999e-01,5.58444e-03,9.99999e-01
7.133836558e-01,6.18703e-03,9.99999e-01,6.18703e-03,9.99999e-01
7.169505741e-01,6.84078e-03,9.99999e-01,6.84078e-03,9.99999e-01
7.205353270e-01,7.54863e-03,9.99999e-01,7.54863e-03,9.99999e-01
7.241380036e-01,8.31353e-03,9.99999e-01,8.31353e-03,9.99999e-01
7.277586936e-01,9.13850e-03,9.99999e-01,9.13850e-03,9.99999e-01
7.313974871e-01,1.00266e-02,9.99999e-01,1.00266e-02,9.99999e-01
7.350544745e-01,1.09808e-02,9.99999e-01,1.09808e-02,9.99999e-01
7.387297469e-01,1.20043e-02,9.99999e-01,1.20043e-02,9.99999e-01
7.424233956e-01,1.31001e-02,9.99999e-01,1.31001e-02,9.99999e-01
7.461355126e-01,1.42713e-02,9.99999e-01,1.42713e-02,9.99999e-01
7.498661902e-01,1.55209e-02,9.99999e-01,1.55209e-02,9.99999e-01
7.536155211e-01,1.68520e-02,9.99999e-01,1.68520e-02,9.99999e-01
7.573835987e-01,1.82675e-02,9.99999e-01,1.82675e-02,9.99999e-01
7.611705167e-01,1.97704e-02,9.99999e-01,1.97704e-02,9.99999e-01
7.649763693e-01,2.13635e-02,9.99999e-01,2.13635e-02,9.99999e-01
7.688012511e-01,2.30498e-02,9.99999e-01,2.30498e-02,9.99999e-01
7.726452574e-01,2.48318e-02,9.99999e-01,2.48318e-02,9.99999e-01
7.765084837e-01,2.67122e-02,9.99999e-01,2.67122e-02,9.99999e-01
7.803910261e-01,2.52595e-02,8.80313e-01,2.86937e-02,9.99999e-01
7.842929812e-01,1.55390e-02,5.04862e-01,3.07786e-02,9.99999e-01
7.882144461e-01,1.61617e-02,4.90205e-01,3.29693e-02,9.99999e-01
7.921555184e-01,2.23997e-02,6.35128e-01,3.52680e-02,9.99999e-01
7.961162960e-01,2.76171e-02,7.33001e-01,3.76768e-02,9.99999e-01
8.000968774e-01,3.39541e-02,8.44678e-01,4.01976e-02,9.99999e-01
8.040973618e-01,3.92305e-02,9.15912e-01,4.28322e-02,9.99999e-01
8.081178486e-01,4.37791e-02,9.60440e-01,4.55823e-02,9.99999e-01
8.121584379e-01,4.78482e-02,9.87590e-01,4.84494e-02,9.99999e-01
8.162192301e-01,5.12931e-02,9.97245e-01,5.14348e-02,9.99999e-01
8.203003262e-01,5.45374e-02,9.99957e-01,5.45397e-02,9.99999e-01
8.244018279e-01,5.77652e-02,9.99999e-01,5.77652e-02,9.99999e-01
8.285238370e-01,6.11120e-02,9.99999e-01,6.11120e-02,9.99999e-01
8.326664562e-01,6.45808e-02,9.99999e-01,6.45808e-02,9.99999e-01
8.368297885e-01,6.81721e-02,9.99999e-01,6.81721e-02,9.99999e-01
8.410139374e-01,7.18862e-02,9.99999e-01,7.18862e-02,9.99999e-01
8.452190071e-01,7.57233e-02,9.99999e-01,7.57233e-02,9.99999e-01
8.494451021e-01,7.96834e-02,9.99999e-01,7.96834e-02,9.99999e-01
8.536923276e-01,8.37661e-02,9.99999e-01,8.37661e-02,9.99999e-01
8.579607893e-01,8.79712e-02,9.99999e-01,8.79712e-02,9.99999e-01
8.622505932e-01,9.22980e-02,9.99999e-01,9.22980e-02,9.99999e-01
8.665618462e-01,8.16017e-02,8.43464e-01,9.67459e-02,9.99999e-01
8.708946554e-01,1.95691e-02,1.93153e-01,1.01314e-01,9.99999e-01
8.752491287e-01,2.58942e-02,2.44283e-01,1.06001e-01,9.99999e-01
8.796253743e-01,4.97672e-02,4.49139e-01,1.10806e-01,9.99999e-01
8.840235012e-01,7.54104e-02,6.51624e-01,1.15727e-01,9.99999e-01
8.884436187e-01,1.01770e-01,8.42721e-01,1.20763e-01,9.99999e-01
8.928858368e-01,1.17442e-01,9.32732e-01,1.25912e-01,9.99999e-01
8.973502660e-01,1.28968e-01,9.83194e-01,1.31173e-01,9.99999e-01
9.018370173e-01,1.36288e-01,9.98132e-01,1.36543e-01,9.99999e-01
9.063462024e-01,1.35634e-01,9.55033e-01,1.42020e-01,9.99999e-01
9.108779334e-01,1.32306e-01,8.96372e-01,1.47602e-01,9.99999e-01
9.154323231e-01,1.49387e-01,9.74559e-01,1.53287e-01,9.99999e-01
9.200094847e-01,1.18648e-01,7.45874e-01,1.59072e-01,9.99999e-01
9.246095321e-01,9.71477e-02,5.88937e-01,1.64954e-01,9.99999e-01
9.292325798e-01,1.14382e-01,6.69168e-01,1.70932e-01,9.99999e-01
9.338787427e-01,1.19018e-01,6.72414e-01,1.77001e-01,9.99999e-01
9.385481364e-01,1.36264e-01,7.43962e-01,1.83160e-01,9.99999e-01
9.432408771e-01,1.57721e-01,8.32719e-01,1.89405e-01,9.99999e-01
9.479570815e-01,1.78163e-01,9.10232e-01,1.95733e-01,9.99999e-01
9.526968669e-01,1.93190e-01,9.55717e-01,2.02142e-01,9.99999e-01
9.574603512e-01,2.04618e-01,9.80780e-01,2.08627e-01,9.99999e-01
9.622476530e-01,2.13887e-01,9.93961e-01,2.15186e-01,9.99999e-01
9.670588912e-01,2.21414e-01,9.98186e-01,2.21816e-01,9.99999e-01
9.718941857e-01,2.28484e-01,9.99871e-01,2.28513e-01,9.99999e-01
9.767536566e-01,2.35275e-01,9.99999e-01,2.35275e-01,9.99999e-01
9.816374249e-01,2.42096e-01,9.99999e-01,2.42096e-01,9.99999e-01
9.865456120e-01,2.48975e-01,9.99999e-01,2.48975e-01,9.99999e-01
9.914783401e-01,2.55907e-01,9.99999e-01,2.55907e-01,9.99999e-01
9.964357318e-01,2.62890e-01,9.99999e-01,2.62890e-01,9.99999e-01
1.001417910e+00,2.69920e-01,9.99999e-01,2.69920e-01,9.99999e-01
1.006425000e+00,2.76994e-01,9.99999e-01,2.76994e-01,9.99999e-01
1.011457125e+00,2.84108e-01,9.99999e-01,2.84108e-01,9.99999e-01
1.016514411e+00,2.91258e-01,9.99999e-01,2.91258e-01,9.99999e-01
1.021596983e+00,2.98369e-01,9.99754e-01,2.98442e-01,9.99999e-01
1.026704968e+00,3.00093e-01,9.81801e-01,3.05656e-01,9.99999e-01
1.031838492e+00,2.73508e-01,8.74117e-01,3.12896e-01,9.99999e-01
1.036997685e+00,9.17390e-03,2.86541e-02,3.20160e-01,9.99999e-01
1.042182673e+00,1.21337e-04,3.70558e-04,3.27444e-01,9.99999e-01
1.047393587e+00,3.57637e-04,1.06838e-03,3.34746e-01,9.99999e-01
1.052630555e+00,6.70118e-10,1.95906e-09,3.42061e-01,9.99999e-01
1.057893707e+00,2.48977e-09,7.12613e-09,3.49386e-01,9.99999e-01
1.063183176e+00,4.70658e-07,1.31941e-06,3.56719e-01,9.99999e-01
1.068499092e+00,1.00212e-05,2.75265e-05,3.64057e-01,9.99999e-01
1.073841587e+00,3.74354e-04,1.00796e-03,3.71396e-01,9.99999e-01
1.079210795e+00,5.20053e-03,1.37313e-02,3.78734e-01,9.99999e-01
1.084606849e+00,3.21983e-02,8.34007e-02,3.86067e-01,9.99999e-01
1.090029883e+00,1.06283e-01,2.70168e-01,3.93394e-01,9.99999e-01
1.095480033e+00,2.09201e-01,5.22074e-01,4.00710e-01,9.99999e-01
1.100957433e+00,2.97400e-01,7.28895e-01,4.08014e-01,9.99999e-01
1.106462220e+00,3.64226e-01,8.77011e-01,4.15303e-01,9.99999e-01
1.111994531e+00,4.02463e-01,9.52404e-01,4.22575e-01,9.99999e-01
1.117554504e+00,4.24735e-01,9.88154e-01,4.29826e-01,9.99999e-01
1.123142276e+00,4.36713e-01,9.99216e-01,4.37055e-01,9.99999e-01
1.128757988e+00,4.44259e-01,9.99999e-01,4.44260e-01,9.99999e-01
1.134401778e+00,4.51437e-01,9.99999e-01,4.51437e-01,9.99999e-01
1.140073787e+00,4.58584e-01,9.99999e-01,4.58584e-01,9.99999e-01
1.145774156e+00,4.65701e-01,9.99999e-01,4.65701e-01,9.99999e-01
1.151503026e+00,4.72784e-01,9.99999e-01,4.72784e-01,9.99999e-01
1.157260541e+00,4.79832e-01,9.99999e-01,4.79832e-01,9.99999e-01
1.163046844e+00,4.86842e-01,9.99999e-01,4.86842e-01,9.99999e-01
1.168862078e+00,4.93814e-01,9.99999e-01,4.93814e-01,9.99999e-01
1.174706389e+00,5.00744e-01,9.99999e-01,5.00744e-01,9.99999e-01
1.180579921e+00,5.07632e-01,9.99999e-01,5.07632e-01,9.99999e-01
1.186482820e+00,5.14460e-01,9.99968e-01,5.14476e-01,9.99999e-01
1.192415234e+00,4.90123e-01,9.40238e-01,5.21275e-01,9.99999e-01
1.198377311e+00,2.56017e-01,4.84856e-01,5.28026e-01,9.99999e-01
1.204369197e+00,7.57751e-47,1.41707e-46,5.34729e-01,9.99999e-01
1.210391043e+00,7.25400e-194,1.33990e-193,5.41382e-01,9.99999e-01
1.216442998e+00,1.41569e-167,2.58346e-167,5.47984e-01,9.99999e-01
1.222525213e+00,4.85395e-165,8.75321e-165,5.54533e-01,9.99999e-01
1.228637839e+00,5.00982e-127,8.92969e-127,5.61029e-01,9.99999e-01
1.234781029e+00,1.71233e-78,3.01748e-78,5.67471e-01,9.99999e-01
1.240954934e+00,1.05996e-51,1.84707e-51,5.73857e-01,9.99999e-01
1.247159708e+00,3.72664e-24,6.42316e-24,5.80187e-01,9.99999e-01
1.253395507e+00,1.80556e-16,3.07875e-16,5.86460e-01,9.99999e-01
1.259662485e+00,1.72946e-09,2.91805e-09,5.92674e-01,9.99999e-01
1.265960797e+00,1.60327e-05,2.67733e-05,5.98830e-01,9.99999e-01
1.272290601e+00,3.36174e-03,5.55727e-03,6.04926e-01,9.99999e-01
1.278652054e+00,3.61646e-03,5.91928e-03,6.10962e-01,9.99999e-01
1.285045314e+00,3.54702e-07,5.74940e-07,6.16937e-01,9.99999e-01
1.291470541e+00,5.13221e-22,8.23986e-22,6.22851e-01,9.99999e-01
1.297927893e+00,7.40216e-09,1.17737e-08,6.28703e-01,9.99999e-01
1.304417533e+00,4.26857e-05,6.72753e-05,6.34493e-01,9.99999e-01
1.310939621e+00,1.31207e-05,2.04941e-05,6.40220e-01,9.99999e-01
1.317494319e+00,4.77077e-65,7.38640e-65,6.45885e-01,9.99999e-01
1.324081790e+00,3.25030e-42,4.98905e-42,6.51486e-01,9.99999e-01
1.330702199e+00,4.14906e-25,6.31494e-25,6.57023e-01,9.99999e-01
1.337355710e+00,1.24766e-22,1.88327e-22,6.62497e-01,9.99999e-01
1.344042489e+00,8.20019e-23,1.22774e-22,6.67907e-01,9.99999e-01
1.350762701e+00,1.82064e-25,2.70424e-25,6.73253e-01,9.99999e-01
1.357516515e+00,5.82601e-15,8.58615e-15,6.78535e-01,9.99999e-01
1.364304097e+00,3.78876e-11,5.54112e-11,6.83753e-01,9.99999e-01
1.371125618e+00,4.27826e-06,6.21021e-06,6.88906e-01,9.99999e-01
1.377981246e+00,1.97073e-05,2.83968e-05,6.93996e-01,9.99999e-01
1.384871152e+00,1.47866e-03,2.11533e-03,6.99021e-01,9.99999e-01
1.391795508e+00,2.55418e-03,3.62818e-03,7.03983e-01,9.99999e-01
1.398754485e+00,1.88763e-02,2.66282e-02,7.08881e-01,9.99999e-01
1.405748258e+00,5.21171e-02,7.30223e-02,7.13715e-01,9.99999e-01
1.412776999e+00,1.34305e-01,1.86928e-01,7.18485e-01,9.99999e-01
1.419840884e+00,1.39201e-01,1.92481e-01,7.23193e-01,9.99999e-01
1.426940089e+00,3.66055e-03,5.02935e-03,7.27837e-01,9.99999e-01
1.434074789e+00,0.00000e+00,0.00000e+00,7.32418e-01,9.99999e-01
1.441245163e+00,0.00000e+00,0.00000e+00,7.36937e-01,9.99999e-01
1.448451389e+00,0.00000e+00,0.00000e+00,7.41394e-01,9.99999e-01
1.455693646e+00,0.00000e+00,0.00000e+00,7.45789e-01,9.99999e-01
1.462972114e+00,0.00000e+00,0.00000e+00,7.50122e-01,9.99999e-01
1.470286975e+00,3.01380e-322,4.00193e-322,7.54395e-01,9.99999e-01
1.477638409e+00,1.29848e-201,1.71167e-201,7.58606e-01,9.99999e-01
1.485026601e+00,3.47889e-111,4.56094e-111,7.62757e-01,9.99999e-01
1.492451734e+00,1.67617e-94,2.18579e-94,7.66848e-01,9.99999e-01
1.499913993e+00,1.32592e-39,1.72000e-39,7.70880e-01,9.99999e-01
1.507413563e+00,2.74345e-38,3.54061e-38,7.74852e-01,9.99999e-01
1.514950631e+00,4.12687e-40,5.29923e-40,7.78766e-01,9.99999e-01
1.522525384e+00,1.33423e-142,1.70482e-142,7.82622e-01,9.99999e-01
1.530138011e+00,0.00000e+00,0.00000e+00,7.86420e-01,9.99999e-01
1.537788701e+00,7.00866e-254,8.86991e-254,7.90161e-01,9.99999e-01
1.545477645e+00,1.30594e-51,1.64508e-51,7.93846e-01,9.99999e-01
1.553205033e+00,7.77850e-38,9.75391e-38,7.97474e-01,9.99999e-01
1.560971058e+00,8.32790e-38,1.03963e-37,8.01047e-01,9.99999e-01
1.568775913e+00,0.00000e+00,0.00000e+00,8.04565e-01,9.99999e-01
1.576619793e+00,0.00000e+00,0.00000e+00,8.08028e-01,9.99999e-01
1.584502892e+00,0.00000e+00,0.00000e+00,8.11437e-01,9.99999e-01
1.592425406e+00,0.00000e+00,0.00000e+00,8.14793e-01,9.99999e-01
1.600387533e+00,0.00000e+00,0.00000e+00,8.18096e-01,9.99999e-01
1.608389471e+00,0.00000e+00,0.00000e+00,8.21347e-01,9.99999e-01
1.616431418e+00,0.00000e+00,0.00000e+00,8.24546e-01,9.99999e-01
1.624513575e+00,0.00000e+00,0.00000e+00,8.27694e-01,9.99999e-01
1.632636143e+00,0.00000e+00,0.00000e+00,8.30792e-01,9.99999e-01
1.640799324e+00,2.28491e-298,2.74023e-298,8.33839e-01,9.99999e-01
1.649003321e+00,2.29092e-298,2.73759e-298,8.36838e-01,9.99999e-01
1.657248337e+00,5.30295e-230,6.31463e-230,8.39787e-01,9.99999e-01
1.665534579e+00,1.47491e-231,1.75025e-231,8.42688e-01,9.99999e-01
1.673862252e+00,1.02275e-146,1.20958e-146,8.45542e-01,9.99999e-01
1.682231563e+00,8.44725e-101,9.95727e-101,8.48349e-01,9.99999e-01
1.690642721e+00,7.35558e-55,8.64233e-55,8.51109e-01,9.99999e-01
1.699095934e+00,1.96380e-34,2.30001e-34,8.53824e-01,9.99999e-01
1.707591414e+00,1.09615e-16,1.27981e-16,8.56493e-01,9.99999e-01
1.716129371e+00,3.55573e-10,4.13881e-10,8.59118e-01,9.99999e-01
1.724710018e+00,3.07443e-06,3.56786e-06,8.61699e-01,9.99999e-01
1.733333568e+00,1.59323e-04,1.84351e-04,8.64236e-01,9.99999e-01
1.742000236e+00,5.71425e-03,6.59287e-03,8.66730e-01,9.99999e-01
1.750710237e+00,1.99668e-06,2.29719e-06,8.69182e-01,9.99999e-01
1.759463788e+00,5.40068e-140,6.19633e-140,8.71593e-01,9.99999e-01
1.768261107e+00,1.32569e-146,1.51687e-146,8.73962e-01,9.99999e-01
1.777102413e+00,5.37469e-143,6.13345e-143,8.76291e-01,9.99999e-01
1.785987925e+00,1.55001e-133,1.76422e-133,8.78579e-01,9.99999e-01
1.794917864e+00,2.03059e-127,2.30531e-127,8.80829e-01,9.99999e-01
1.803892454e+00,2.42985e-122,2.75169e-122,8.83039e-01,9.99999e-01
1.812911916e+00,1.72214e-117,1.94545e-117,8.85212e-01,9.99999e-01
1.821976476e+00,1.37965e-117,1.55480e-117,8.87346e-01,9.99999e-01
1.831086358e+00,6.71635e-94,7.55118e-94,8.89443e-01,9.99999e-01
1.840241790e+00,9.88318e-80,1.10859e-79,8.91504e-01,9.99999e-01
1.849442999e+00,4.07306e-55,4.55840e-55,8.93529e-01,9.99999e-01
1.858690214e+00,5.40847e-52,6.03949e-52,8.95518e-01,9.99999e-01
1.867983665e+00,1.72007e-52,1.91657e-52,8.97472e-01,9.99999e-01
1.877323583e+00,5.88916e-270,6.54794e-270,8.99392e-01,9.99999e-01
