#,Wave/freq,Total,CO2,Rayleigh,CIA
4.000000000e-01,3.40040e-04,9.99999e-01,3.40040e-04,9.99999e-01
4.020000000e-01,3.98210e-04,9.99999e-01,3.98210e-04,9.99999e-01
4.040100000e-01,4.64803e-04,9.99999e-01,4.64803e-04,9.99999e-01
4.060300500e-01,5.40877e-04,9.99999e-01,5.40877e-04,9.99999e-01
4.080602003e-01,6.27520e-04,9.99999e-01,6.27520e-04,9.99999e-01
4.101005013e-01,7.25910e-04,9.99999e-01,7.25910e-04,9.99999e-01
4.121510038e-01,8.37313e-04,9.99999e-01,8.37313e-04,9.99999e-01
4.142117588e-01,9.63094e-04,9.99999e-01,9.63094e-04,9.99999e-01
4.162828176e-01,1.10471e-03,9.99999e-01,1.10471e-03,9.99999e-01
4.183642317e-01,1.26372e-03,9.99999e-01,1.26372e-03,9.99999e-01
4.204560528e-01,1.44179e-03,9.99999e-01,1.44179e-03,9.99999e-01
4.225583331e-01,1.64067e-03,9.99999e-01,1.64067e-03,9.99999e-01
4.246711247e-01,1.86222e-03,9.99999e-01,1.86222e-03,9.99999e-01
4.267944804e-01,2.10840e-03,9.99999e-01,2.10840e-03,9.99999e-01
4.289284528e-01,2.38129e-03,9.99999e-01,2.38129e-03,9.99999e-01
4.310730950e-01,2.68304e-03,9.99999e-01,2.68304e-03,9.99999e-01
4.332284605e-01,3.01591e-03,9.99999e-01,3.01591e-03,9.99999e-01
4.353946028e-01,3.38225e-03,9.99999e-01,3.38225e-03,9.99999e-01
4.375715758e-01,3.78451e-03,9.99999e-01,3.78451e-03,9.99999e-01
4.397594337e-01,4.22523e-03,9.99999e-01,4.22523e-03,9.99999e-01
4.419582309e-01,4.70702e-03,9.99999e-01,4.70702e-03,9.99999e-01
4.441680220e-01,5.23256e-03,9.99999e-01,5.23256e-03,9.99999e-01
4.463888621e-01,5.80464e-03,9.99999e-01,5.80464e-03,9.99999e-01
4.486208064e-01,6.42609e-03,9.99999e-01,6.42609e-03,9.99999e-01
4.508639105e-01,7.09978e-03,9.99999e-01,7.09978e-03,9.99999e-01
4.531182300e-01,7.82868e-03,9.99999e-01,7.82868e-03,9.99999e-01
4.553838212e-01,8.61575e-03,9.99999e-01,8.61575e-03,9.99999e-01
4.576607403e-01,9.46403e-03,9.99999e-01,9.46403e-03,9.99999e-01
4.599490440e-01,1.03766e-02,9.99999e-01,1.03766e-02,9.99999e-01
4.622487892e-01,1.13564e-02,9.99999e-01,1.13564e-02,9.99999e-01
4.645600332e-01,1.24067e-02,9.99999e-01,1.24067e-02,9.99999e-01
4.668828333e-01,1.35304e-02,9.99999e-01,1.35304e-02,9.99999e-01
4.692172475e-01,1.47306e-02,9.99999e-01,1.47306e-02,9.99999e-01
4.715633337e-01,1.60105e-02,9.99999e-01,1.60105e-02,9.99999e-01
4.739211504e-01,1.73729e-02,9.99999e-01,1.73729e-02,9.99999e-01
4.762907561e-01,1.88208e-02,9.99999e-01,1.88208e-02,9.99999e-01
4.786722099e-01,2.03572e-02,9.99999e-01,2.03572e-02,9.99999e-01
4.810655710e-01,2.19849e-02,9.99999e-01,2.19849e-02,9.99999e-01
4.834708988e-01,2.37068e-02,9.99999e-01,2.37068e-02,9.99999e-01
4.858882533e-01,2.55254e-02,9.99999e-01,2.55254e-02,9.99999e-01
4.883176946e-01,2.74435e-02,9.99999e-01,2.74435e-02,9.99999e-01
4.907592831e-01,2.94635e-02,9.99999e-01,2.94635e-02,9.99999e-01
4.932130795e-01,3.15878e-02,9.99999e-01,3.15878e-02,9.99999e-01
4.956791449e-01,3.38187e-02,9.99999e-01,3.38187e-02,9.99999e-01
4.981575406e-01,3.61585e-02,9.99999e-01,3.61585e-02,9.99999e-01
5.006483283e-01,3.86090e-02,9.99999e-01,3.86090e-02,9.99999e-01
5.031515699e-01,4.11723e-02,9.99999e-01,4.11723e-02,9.99999e-01
5.056673278e-01,4.38501e-02,9.99999e-01,4.38501e-02,9.99999e-01
5.081956644e-01,4.66439e-02,9.99999e-01,4.66439e-02,9.99999e-01
5.107366428e-01,4.95552e-02,9.99999e-01,4.95552e-02,9.99999e-01
5.132903260e-01,5.25853e-02,9.99999e-01,5.25853e-02,9.99999e-01
5.158567776e-01,5.57353e-02,9.99999e-01,5.57353e-02,9.99999e-01
5.184360615e-01,5.90062e-02,9.99999e-01,5.90062e-02,9.99999e-01
5.210282418e-01,6.23987e-02,9.99999e-01,6.23987e-02,9.99999e-01
5.236333830e-01,6.59134e-02,9.99999e-01,6.59134e-02,9.99999e-01
5.262515499e-01,6.95508e-02,9.99999e-01,6.95508e-02,9.99999e-01
5.288828077e-01,7.33110e-02,9.99999e-01,7.33110e-02,9.99999e-01
5.315272217e-01,7.71943e-02,9.99999e-01,7.71943e-02,9.99999e-01
5.341848578e-01,8.12004e-02,9.99999e-01,8.12004e-02,9.99999e-01
5.368557821e-01,8.53291e-02,9.99999e-01,8.53291e-02,9.99999e-01
5.395400610e-01,8.95799e-02,9.99999e-01,8.95799e-02,9.99999e-01
5.422377613e-01,9.39522e-02,9.99999e-01,9.39522e-02,9.99999e-01
5.449489501e-01,9.84452e-02,9.99999e-01,9.84452e-02,9.99999e-01
5.476736949e-01,1.03058e-01,9.99999e-01,1.03058e-01,9.99999e-01
5.504120634e-01,1.07789e-01,9.99999e-01,1.07789e-01,9.99999e-01
5.531641237e-01,1.12638e-01,9.99999e-01,1.12638e-01,9.99999e-01
5.559299443e-01,1.17602e-01,9.99999e-01,1.17602e-01,9.99999e-01
5.587095940e-01,1.22681e-01,9.99999e-01,1.22681e-01,9.99999e-01
5.615031420e-01,1.27872e-01,9.99999e-01,1.27872e-01,9.99999e-01
5.643106577e-01,1.33174e-01,9.99999e-01,1.33174e-01,9.99999e-01
5.671322110e-01,1.38585e-01,9.99999e-01,1.38585e-01,9.99999e-01
5.699678720e-01,1.44101e-01,9.99999e-01,1.44101e-01,9.99999e-01
5.728177114e-01,1.49722e-01,9.99999e-01,1.49722e-01,9.99999e-01
5.756818000e-01,1.55445e-01,9.99999e-01,1.55445e-01,9.99999e-01
5.785602090e-01,1.61267e-01,9.99999e-01,1.61267e-01,9.99999e-01
5.814530100e-01,1.67185e-01,9.99999e-01,1.67185e-01,9.99999e-01
5.843602750e-01,1.73197e-01,9.99999e-01,1.73197e-01,9.99999e-01
5.872820764e-01,1.79301e-01,9.99999e-01,1.79301e-01,9.99999e-01
5.902184868e-01,1.85492e-01,9.99999e-01,1.85492e-01,9.99999e-01
5.931695792e-01,1.91769e-01,9.99999e-01,1.91769e-01,9.99999e-01
5.961354271e-01,1.98128e-01,9.99999e-01,1.98128e-01,9.99999e-01
5.991161043e-01,2.04565e-01,9.99999e-01,2.04565e-01,9.99999e-01
6.021116848e-01,2.11079e-01,9.99999e-01,2.11079e-01,9.99999e-01
6.051222432e-01,2.17665e-01,9.99999e-01,2.17665e-01,9.99999e-01
6.081478544e-01,2.24321e-01,9.99999e-01,2.24321e-01,9.99999e-01
6.111885937e-01,2.31042e-01,9.99999e-01,2.31042e-01,9.99999e-01
6.142445367e-01,2.37826e-01,9.99999e-01,2.37826e-01,9.99999e-01
6.173157594e-01,2.44670e-01,9.99999e-01,2.44670e-01,9.99999e-01
6.204023382e-01,2.51569e-01,9.99999e-01,2.51569e-01,9.99999e-01
6.235043498e-01,2.58521e-01,9.99999e-01,2.58521e-01,9.99999e-01
6.266218716e-01,2.65522e-01,9.99999e-01,2.65522e-01,9.99999e-01
6.297549810e-01,2.72569e-01,9.99999e-01,2.72569e-01,9.99999e-01
6.329037559e-01,2.79658e-01,9.99999e-01,2.79658e-01,9.99999e-01
6.360682746e-01,2.86785e-01,9.99999e-01,2.86785e-01,9.99999e-01
6.392486160e-01,2.93949e-01,9.99999e-01,2.93949e-01,9.99999e-01
6.424448591e-01,3.01144e-01,9.99999e-01,3.01144e-01,9.99999e-01
6.456570834e-01,3.08369e-01,9.99999e-01,3.08369e-01,9.99999e-01
6.488853688e-01,3.15618e-01,9.99999e-01,3.15618e-01,9.99999e-01
6.521297956e-01,3.22890e-01,9.99999e-01,3.22890e-01,9.99999e-01
6.553904446e-01,3.30181e-01,9.99999e-01,3.30181e-01,9.99999e-01
6.586673968e-01,3.37488e-01,9.99999e-01,3.37488e-01,9.99999e-01
6.619607338e-01,3.44807e-01,9.99999e-01,3.44807e-01,9.99999e-01
6.652705375e-01,3.52136e-01,9.99999e-01,3.52136e-01,9.99999e-01
6.685968902e-01,3.59471e-01,9.99999e-01,3.59471e-01,9.99999e-01
6.719398746e-01,3.66809e-01,9.99999e-01,3.66809e-01,9.99999e-01
6.752995740e-01,3.74148e-01,9.99999e-01,3.74148e-01,9.99999e-01
6.786760719e-01,3.81485e-01,9.99999e-01,3.81485e-01,9.99999e-01
6.820694522e-01,3.88816e-01,9.99999e-01,3.88816e-01,9.99999e-01
6.854797995e-01,3.96139e-01,9.99999e-01,3.96139e-01,9.99999e-01
6.889071985e-01,4.03451e-01,9.99999e-01,4.03451e-01,9.99999e-01
6.923517345e-01,4.10750e-01,9.99999e-01,4.10750e-01,9.99999e-01
6.958134932e-01,4.18033e-01,9.99999e-01,4.18033e-01,9.99999e-01
6.992925606e-01,4.25297e-01,9.99999e-01,4.25297e-01,9.99999e-01
7.027890234e-01,4.32541e-01,9.99999e-01,4.32541e-01,9.99999e-01
7.063029686e-01,4.39761e-01,9.99999e-01,4.39761e-01,9.99999e-01
7.098344834e-01,4.46955e-01,9.99999e-01,4.46955e-01,9.99999e-01
7.133836558e-01,4.54121e-01,9.99999e-01,4.54121e-01,9.99999e-01
7.169505741e-01,4.61257e-01,9.99999e-01,4.61257e-01,9.99999e-01
7.205353270e-01,4.68362e-01,9.99999e-01,4.68362e-01,9.99999e-01
7.241380036e-01,4.75432e-01,9.99999e-01,4.75432e-01,9.99999e-01
7.277586936e-01,4.82466e-01,9.99999e-01,4.82466e-01,9.99999e-01
7.313974871e-01,4.89462e-01,9.99999e-01,4.89462e-01,9.99999e-01
7.350544745e-01,4.96418e-01,9.99999e-01,4.96418e-01,9.99999e-01
7.387297469e-01,5.03333e-01,9.99999e-01,5.03333e-01,9.99999e-01
7.424233956e-01,5.10205e-01,9.99999e-01,5.10205e-01,9.99999e-01
7.461355126e-01,5.17032e-01,9.99999e-01,5.17032e-01,9.99999e-01
7.498661902e-01,5.23813e-01,9.99999e-01,5.23813e-01,9.99999e-01
7.536155211e-01,5.30546e-01,9.99999e-01,5.30546e-01,9.99999e-01
7.573835987e-01,5.37230e-01,9.99999e-01,5.37230e-01,9.99999e-01
7.611705167e-01,5.43864e-01,9.99999e-01,5.43864e-01,9.99999e-01
7.649763693e-01,5.50446e-01,9.99999e-01,5.50446e-01,9.99999e-01
7.688012511e-01,5.56976e-01,9.99999e-01,5.56976e-01,9.99999e-01
7.726452574e-01,5.63452e-01,9.99999e-01,5.63452e-01,9.99999e-01
7.765084837e-01,5.69873e-01,9.99999e-01,5.69873e-01,9.99999e-01
7.803910261e-01,5.61470e-01,9.74371e-01,5.76238e-01,9.99999e-01
7.842929812e-01,5.17748e-01,8.88766e-01,5.82547e-01,9.99999e-01
7.882144461e-01,5.19242e-01,8.81867e-01,5.88798e-01,9.99999e-01
7.921555184e-01,5.53232e-01,9.29817e-01,5.94990e-01,9.99999e-01
7.961162960e-01,5.72386e-01,9.52192e-01,6.01124e-01,9.99999e-01
8.000968774e-01,5.91316e-01,9.73844e-01,6.07197e-01,9.99999e-01
8.040973618e-01,6.04821e-01,9.86317e-01,6.13210e-01,9.99999e-01
8.081178486e-01,6.15276e-01,9.93722e-01,6.19163e-01,9.99999e-01
8.121584379e-01,6.23830e-01,9.98042e-01,6.25053e-01,9.99999e-01
8.162192301e-01,6.30609e-01,9.99567e-01,6.30882e-01,9.99999e-01
8.203003262e-01,6.36644e-01,9.99992e-01,6.36649e-01,9.99999e-01
8.244018279e-01,6.42352e-01,9.99999e-01,6.42352e-01,9.99999e-01
8.285238370e-01,6.47993e-01,9.99999e-01,6.47993e-01,9.99999e-01
8.326664562e-01,6.53570e-01,9.99999e-01,6.53570e-01,9.99999e-01
8.368297885e-01,6.59084e-01,9.99999e-01,6.59084e-01,9.99999e-01
8.410139374e-01,6.64534e-01,9.99999e-01,6.64534e-01,9.99999e-01
8.452190071e-01,6.69920e-01,9.99999e-01,6.69920e-01,9.99999e-01
8.494451021e-01,6.75241e-01,9.99999e-01,6.75241e-01,9.99999e-01
8.536923276e-01,6.80499e-01,9.99999e-01,6.80499e-01,9.99999e-01
8.579607893e-01,6.85693e-01,9.99999e-01,6.85693e-01,9.99999e-01
8.622505932e-01,6.90823e-01,9.99999e-01,6.90823e-01,9.99999e-01
8.665618462e-01,6.53188e-01,9.38638e-01,6.95888e-01,9.99999e-01
8.708946554e-01,5.19230e-01,7.40814e-01,7.00890e-01,9.99999e-01
8.752491287e-01,5.54520e-01,7.85631e-01,7.05827e-01,9.99999e-01
8.796253743e-01,6.22771e-01,8.76276e-01,7.10701e-01,9.99999e-01
8.840235012e-01,6.68281e-01,9.33990e-01,7.15512e-01,9.99999e-01
8.884436187e-01,7.01078e-01,9.73369e-01,7.20258e-01,9.99999e-01
8.928858368e-01,7.17084e-01,9.89159e-01,7.24942e-01,9.99999e-01
8.973502660e-01,7.27623e-01,9.97341e-01,7.29563e-01,9.99999e-01
9.018370173e-01,7.33905e-01,9.99705e-01,7.34121e-01,9.99999e-01
9.063462024e-01,7.33221e-01,9.92694e-01,7.38616e-01,9.99999e-01
9.108779334e-01,7.30397e-01,9.82971e-01,7.43050e-01,9.99999e-01
9.154323231e-01,7.44390e-01,9.95943e-01,7.47422e-01,9.99999e-01
9.200094847e-01,7.08924e-01,9.43053e-01,7.51732e-01,9.99999e-01
9.246095321e-01,6.95036e-01,9.19382e-01,7.55981e-01,9.99999e-01
9.292325798e-01,7.12059e-01,9.36709e-01,7.60170e-01,9.99999e-01
9.338787427e-01,7.17134e-01,9.38290e-01,7.64299e-01,9.99999e-01
9.385481364e-01,7.33280e-01,9.54334e-01,7.68367e-01,9.99999e-01
9.432408771e-01,7.50538e-01,9.71725e-01,7.72377e-01,9.99999e-01
9.479570815e-01,7.65021e-01,9.85435e-01,7.76327e-01,9.99999e-01
9.526968669e-01,7.74711e-01,9.92939e-01,7.80219e-01,9.99999e-01
9.574603512e-01,7.81681e-01,9.96973e-01,7.84053e-01,9.99999e-01
9.622476530e-01,7.87085e-01,9.99054e-01,7.87830e-01,9.99999e-01
9.670588912e-01,7.91325e-01,9.99715e-01,7.91550e-01,9.99999e-01
9.718941857e-01,7.95197e-01,9.99979e-01,7.95213e-01,9.99999e-01
9.767536566e-01,7.98821e-01,9.99999e-01,7.98821e-01,9.99999e-01
9.816374249e-01,8.02373e-01,9.99999e-01,8.02373e-01,9.99999e-01
9.865456120e-01,8.05870e-01,9.99999e-01,8.05870e-01,9.99999e-01
9.914783401e-01,8.09313e-01,9.99999e-01,8.09313e-01,9.99999e-01
9.964357318e-01,8.12702e-01,9.99999e-01,8.12702e-01,9.99999e-01
1.001417910e+00,8.16038e-01,9.99999e-01,8.16038e-01,9.99999e-01
1.006425000e+00,8.19322e-01,9.99999e-01,8.19322e-01,9.99999e-01
1.011457125e+00,8.22553e-01,9.99999e-01,8.22553e-01,9.99999e-01
1.016514411e+00,8.25733e-01,9.99999e-01,8.25733e-01,9.99999e-01
1.021596983e+00,8.28833e-01,9.99964e-01,8.28862e-01,9.99999e-01
1.026704968e+00,8.29578e-01,9.97160e-01,8.31941e-01,9.99999e-01
1.031838492e+00,8.06234e-01,9.65584e-01,8.34970e-01,9.99999e-01
1.036997685e+00,1.63333e-01,1.94919e-01,8.37950e-01,9.99999e-01
1.042182673e+00,1.57803e-01,1.87664e-01,8.40881e-01,9.99999e-01
1.047393587e+00,1.69847e-01,2.01297e-01,8.43764e-01,9.99999e-01
1.052630555e+00,9.63080e-03,1.13758e-02,8.46600e-01,9.99999e-01
1.057893707e+00,2.14977e-02,2.53096e-02,8.49390e-01,9.99999e-01
1.063183176e+00,5.77432e-02,6.77631e-02,8.52133e-01,9.99999e-01
1.068499092e+00,1.36063e-01,1.59169e-01,8.54830e-01,9.99999e-01
1.073841587e+00,2.67907e-01,3.12433e-01,8.57483e-01,9.99999e-01
1.079210795e+00,4.12204e-01,4.79255e-01,8.60091e-01,9.99999e-01
1.084606849e+00,5.75958e-01,6.67656e-01,8.62655e-01,9.99999e-01
1.090029883e+00,7.01818e-01,8.11184e-01,8.65177e-01,9.99999e-01
1.095480033e+00,7.82582e-01,9.01950e-01,8.67655e-01,9.99999e-01
1.100957433e+00,8.27928e-01,9.51541e-01,8.70091e-01,9.99999e-01
1.106462220e+00,8.54734e-01,9.79652e-01,8.72486e-01,9.99999e-01
1.111994531e+00,8.68202e-01,9.92411e-01,8.74840e-01,9.99999e-01
1.117554504e+00,8.75518e-01,9.98134e-01,8.77154e-01,9.99999e-01
1.123142276e+00,8.79319e-01,9.99876e-01,8.79428e-01,9.99999e-01
1.128757988e+00,8.81662e-01,9.99999e-01,8.81662e-01,9.99999e-01
1.134401778e+00,8.83858e-01,9.99999e-01,8.83858e-01,9.99999e-01
1.140073787e+00,8.86016e-01,9.99999e-01,8.86016e-01,9.99999e-01
1.145774156e+00,8.88137e-01,9.99999e-01,8.88137e-01,9.99999e-01
1.151503026e+00,8.90221e-01,9.99999e-01,8.90221e-01,9.99999e-01
1.157260541e+00,8.92268e-01,9.99999e-01,8.92268e-01,9.99999e-01
1.163046844e+00,8.94279e-01,9.99999e-01,8.94279e-01,9.99999e-01
1.168862078e+00,8.96255e-01,9.99999e-01,8.96255e-01,9.99999e-01
1.174706389e+00,8.98196e-01,9.99999e-01,8.98196e-01,9.99999e-01
1.180579921e+00,9.00103e-01,9.99999e-01,9.00103e-01,9.99999e-01
1.186482820e+00,9.01973e-01,9.99995e-01,9.01976e-01,9.99999e-01
1.192415234e+00,8.94701e-01,9.89914e-01,9.03816e-01,9.99999e-01
1.198377311e+00,5.15766e-01,5.69514e-01,9.05623e-01,9.99999e-01
1.204369197e+00,3.56986e-09,3.93417e-09,9.07398e-01,9.99999e-01
1.210391043e+00,5.35622e-32,5.89151e-32,9.09141e-01,9.99999e-01
1.216442998e+00,6.45679e-28,7.08872e-28,9.10854e-01,9.99999e-01
1.222525213e+00,1.60586e-27,1.75978e-27,9.12535e-01,9.99999e-01
1.228637839e+00,2.73313e-21,2.98968e-21,9.14186e-01,9.99999e-01
1.234781029e+00,4.37737e-14,4.77978e-14,9.15808e-01,9.99999e-01
1.240954934e+00,1.44968e-09,1.58020e-09,9.17400e-01,9.99999e-01
1.247159708e+00,1.52809e-05,1.66284e-05,9.18964e-01,9.99999e-01
1.253395507e+00,1.57355e-03,1.70946e-03,9.20499e-01,9.99999e-01
1.259662485e+00,1.81109e-02,1.96429e-02,9.22006e-01,9.99999e-01
1.265960797e+00,1.10846e-01,1.20030e-01,9.23486e-01,9.99999e-01
1.272290601e+00,3.56459e-01,3.85386e-01,9.24939e-01,9.99999e-01
1.278652054e+00,3.33934e-01,3.60477e-01,9.26366e-01,9.99999e-01
1.285045314e+00,1.40019e-02,1.50920e-02,9.27767e-01,9.99999e-01
1.291470541e+00,1.85896e-04,2.00072e-04,9.29142e-01,9.99999e-01
1.297927893e+00,1.10549e-02,1.18807e-02,9.30491e-01,9.99999e-01
1.304417533e+00,1.87260e-01,2.00962e-01,9.31816e-01,9.99999e-01
1.310939621e+00,4.91289e-02,5.26503e-02,9.33117e-01,9.99999e-01
1.317494319e+00,1.78237e-11,1.90751e-11,9.34394e-01,9.99999e-01
1.324081790e+00,3.93334e-08,4.20386e-08,9.35647e-01,9.99999e-01
1.330702199e+00,8.42240e-05,8.98985e-05,9.36877e-01,9.99999e-01
1.337355710e+00,8.08694e-05,8.62068e-05,9.38085e-01,9.99999e-01
1.344042489e+00,2.46510e-05,2.62448e-05,9.39270e-01,9.99999e-01
1.350762701e+00,5.56542e-05,5.91793e-05,9.40433e-01,9.99999e-01
1.357516515e+00,1.69261e-03,1.79763e-03,9.41574e-01,9.99999e-01
1.364304097e+00,1.66387e-02,1.76502e-02,9.42695e-01,9.99999e-01
1.371125618e+00,1.13229e-01,1.19972e-01,9.43794e-01,9.99999e-01
1.377981246e+00,1.69770e-01,1.79675e-01,9.44873e-01,9.99999e-01
1.384871152e+00,3.48070e-01,3.67964e-01,9.45932e-01,9.99999e-01
1.391795508e+00,3.75890e-01,3.96939e-01,9.46971e-01,9.99999e-01
1.398754485e+00,5.36605e-01,5.66044e-01,9.47991e-01,9.99999e-01
1.405748258e+00,6.23625e-01,6.57144e-01,9.48991e-01,9.99999e-01
1.412776999e+00,7.28735e-01,7.67110e-01,9.49973e-01,9.99999e-01
1.419840884e+00,6.65834e-01,7.00187e-01,9.50937e-01,9.99999e-01
1.426940089e+00,7.27713e-02,7.64498e-02,9.51882e-01,9.99999e-01
1.434074789e+00,0.00000e+00,0.00000e+00,9.52810e-01,9.99999e-01
1.441245163e+00,0.00000e+00,0.00000e+00,9.53720e-01,9.99999e-01
1.448451389e+00,0.00000e+00,0.00000e+00,9.54613e-01,9.99999e-01
1.455693646e+00,2.64573e-253,2.76898e-253,9.55489e-01,9.99999e-01
1.462972114e+00,5.35147e-123,5.59573e-123,9.56349e-01,9.99999e-01
1.470286975e+00,6.19014e-52,6.46696e-52,9.57192e-01,9.99999e-01
1.477638409e+00,3.35454e-33,3.50153e-33,9.58020e-01,9.99999e-01
1.485026601e+00,4.27601e-19,4.45960e-19,9.58832e-01,9.99999e-01
1.492451734e+00,2.90241e-16,3.02451e-16,9.59628e-01,9.99999e-01
1.499913993e+00,6.44466e-08,6.71032e-08,9.60410e-01,9.99999e-01
1.507413563e+00,9.89547e-07,1.02952e-06,9.61176e-01,9.99999e-01
1.514950631e+00,4.01451e-08,4.17340e-08,9.61928e-01,9.99999e-01
1.522525384e+00,4.86163e-24,5.05017e-24,9.62666e-01,9.99999e-01
1.530138011e+00,2.82130e-55,2.92851e-55,9.63390e-01,9.99999e-01
1.537788701e+00,2.79480e-41,2.89886e-41,9.64100e-01,9.99999e-01
1.545477645e+00,6.51385e-10,6.75152e-10,9.64796e-01,9.99999e-01
1.553205033e+00,7.74592e-07,8.02286e-07,9.65480e-01,9.99999e-01
1.560971058e+00,2.22879e-07,2.30687e-07,9.66150e-01,9.99999e-01
1.568775913e+00,6.69439e-138,6.92422e-138,9.66807e-01,9.99999e-01
1.576619793e+00,3.06321e-322,3.16202e-322,9.67452e-01,9.99999e-01
1.584502892e+00,4.71673e-176,4.87222e-176,9.68085e-01,9.99999e-01
1.592425406e+00,5.43344e-123,5.60896e-123,9.68705e-01,9.99999e-01
1.600387533e+00,1.32851e-197,1.37057e-197,9.69313e-01,9.99999e-01
1.608389471e+00,0.00000e+00,0.00000e+00,9.69910e-01,9.99999e-01
1.616431418e+00,0.00000e+00,0.00000e+00,9.70496e-01,9.99999e-01
1.624513575e+00,5.49742e-156,5.66119e-156,9.71070e-01,9.99999e-01
1.632636143e+00,3.76471e-116,3.87461e-116,9.71633e-01,9.99999e-01
1.640799324e+00,3.17111e-48,3.26184e-48,9.72186e-01,9.99999e-01
1.649003321e+00,3.32658e-48,3.41984e-48,9.72728e-01,9.99999e-01
1.657248337e+00,1.48528e-37,1.52609e-37,9.73259e-01,9.99999e-01
1.665534579e+00,8.54215e-38,8.77215e-38,9.73780e-01,9.99999e-01
1.673862252e+00,1.34462e-24,1.38010e-24,9.74291e-01,9.99999e-01
1.682231563e+00,1.90851e-17,1.95786e-17,9.74793e-01,9.99999e-01
1.690642721e+00,2.30876e-10,2.36726e-10,9.75284e-01,9.99999e-01
1.699095934e+00,9.31773e-07,9.54913e-07,9.75767e-01,9.99999e-01
1.707591414e+00,5.81520e-04,5.95673e-04,9.76240e-01,9.99999e-01
1.716129371e+00,1.61175e-02,1.65019e-02,9.76703e-01,9.99999e-01
1.724710018e+00,1.05339e-01,1.07802e-01,9.77158e-01,9.99999e-01
1.733333568e+00,2.33201e-01,2.38543e-01,9.77604e-01,9.99999e-01
1.742000236e+00,4.10526e-01,4.19743e-01,9.78042e-01,9.99999e-01
1.750710237e+00,1.66527e-02,1.70190e-02,9.78471e-01,9.99999e-01
1.759463788e+00,1.98827e-23,2.03114e-23,9.78891e-01,9.99999e-01
1.768261107e+00,1.16028e-24,1.18480e-24,9.79304e-01,9.99999e-01
1.777102413e+00,1.48042e-23,1.51108e-23,9.79709e-01,9.99999e-01
1.785987925e+00,1.50268e-22,1.53318e-22,9.80105e-01,9.99999e-01
1.794917864e+00,2.08418e-21,2.12564e-21,9.80494e-01,9.99999e-01
1.803892454e+00,6.82916e-21,6.96230e-21,9.80876e-01,9.99999e-01
1.812911916e+00,6.22157e-20,6.34045e-20,9.81250e-01,9.99999e-01
1.821976476e+00,4.00716e-20,4.08220e-20,9.81617e-01,9.99999e-01
1.831086358e+00,1.90452e-16,1.93947e-16,9.81977e-01,9.99999e-01
1.840241790e+00,5.74324e-14,5.84654e-14,9.82330e-01,9.99999e-01
1.849442999e+00,8.05557e-10,8.19758e-10,9.82676e-01,9.99999e-01
1.858690214e+00,5.17258e-09,5.26195e-09,9.83015e-01,9.99999e-01
1.867983665e+00,8.67651e-10,8.82343e-10,9.83348e-01,9.99999e-01
1.877323583e+00,9.10143e-44,9.25248e-44,9.83674e-01,9.99999e-01
