#,Wave/freq,Total,CO2,Rayleigh,CIA
4.000000000e-01,9.24650e-03,9.99999e-01,9.24650e-03,9.99999e-01
4.020000000e-01,1.01437e-02,9.99999e-01,1.01437e-02,9.99999e-01
4.040100000e-01,1.11065e-02,9.99999e-01,1.11065e-02,9.99999e-01
4.060300500e-01,1.21390e-02,9.99999e-01,1.21390e-02,9.99999e-01
4.080602003e-01,1.32442e-02,9.99999e-01,1.32442e-02,9.99999e-01
4.101005013e-01,1.44251e-02,9.99999e-01,1.44251e-02,9.99999e-01
4.121510038e-01,1.56849e-02,9.99999e-01,1.56849e-02,9.99999e-01
4.142117588e-01,1.70265e-02,9.99999e-01,1.70265e-02,9.99999e-01
4.162828176e-01,1.84529e-02,9.99999e-01,1.84529e-02,9.99999e-01
4.183642317e-01,1.99671e-02,9.99999e-01,1.99671e-02,9.99999e-01
4.204560528e-01,2.15718e-02,9.99999e-01,2.15718e-02,9.99999e-01
4.225583331e-01,2.32700e-02,9.99999e-01,2.32700e-02,9.99999e-01
4.246711247e-01,2.50644e-02,9.99999e-01,2.50644e-02,9.99999e-01
4.267944804e-01,2.69575e-02,9.99999e-01,2.69575e-02,9.99999e-01
4.289284528e-01,2.89519e-02,9.99999e-01,2.89519e-02,9.99999e-01
4.310730950e-01,3.10501e-02,9.99999e-01,3.10501e-02,9.99999e-01
4.332284605e-01,3.32543e-02,9.99999e-01,3.32543e-02,9.99999e-01
4.353946028e-01,3.55669e-02,9.99999e-01,3.55669e-02,9.99999e-01
4.375715758e-01,3.79897e-02,9.99999e-01,3.79897e-02,9.99999e-01
4.397594337e-01,4.05248e-02,9.99999e-01,4.05248e-02,9.99999e-01
4.419582309e-01,4.31740e-02,9.99999e-01,4.31740e-02,9.99999e-01
4.441680220e-01,4.59388e-02,9.99999e-01,4.59388e-02,9.99999e-01
4.463888621e-01,4.88208e-02,9.99999e-01,4.88208e-02,9.99999e-01
4.486208064e-01,5.18213e-02,9.99999e-01,5.18213e-02,9.99999e-01
4.508639105e-01,5.49414e-02,9.99999e-01,5.49414e-02,9.99999e-01
4.531182300e-01,5.81822e-02,9.99999e-01,5.81822e-02,9.99999e-01
4.553838212e-01,6.15444e-02,9.99999e-01,6.15444e-02,9.99999e-01
4.576607403e-01,6.50287e-02,9.99999e-01,6.50287e-02,9.99999e-01
4.599490440e-01,6.86356e-02,9.99999e-01,6.86356e-02,9.99999e-01
4.622487892e-01,7.23653e-02,9.99999e-01,7.23653e-02,9.99999e-01
4.645600332e-01,7.62179e-02,9.99999e-01,7.62179e-02,9.99999e-01
4.668828333e-01,8.01935e-02,9.99999e-01,8.01935e-02,9.99999e-01
4.692172475e-01,8.42918e-02,9.99999e-01,8.42918e-02,9.99999e-01
4.715633337e-01,8.85123e-02,9.99999e-01,8.85123e-02,9.99999e-01
4.739211504e-01,9.28545e-02,9.99999e-01,9.28545e-02,9.99999e-01
4.762907561e-01,9.73176e-02,9.99999e-01,9.73176e-02,9.99999e-01
4.786722099e-01,1.01901e-01,9.99999e-01,1.01901e-01,9.99999e-01
4.810655710e-01,1.06603e-01,9.99999e-01,1.06603e-01,9.99999e-01
4.834708988e-01,1.11422e-01,9.99999e-01,1.11422e-01,9.99999e-01
4.858882533e-01,1.16358e-01,9.99999e-01,1.16358e-01,9.99999e-01
4.883176946e-01,1.21409e-01,9.99999e-01,1.21409e-01,9.99999e-01
4.907592831e-01,1.26572e-01,9.99999e-01,1.26572e-01,9.99999e-01
4.932130795e-01,1.31847e-01,9.99999e-01,1.31847e-01,9.99999e-01
4.956791449e-01,1.37230e-01,9.99999e-01,1.37230e-01,9.99999e-01
4.981575406e-01,1.42721e-01,9.99999e-01,1.42721e-01,9.99999e-01
5.006483283e-01,1.48316e-01,9.99999e-01,1.48316e-01,9.99999e-01
5.031515699e-01,1.54014e-01,9.99999e-01,1.54014e-01,9.99999e-01
5.056673278e-01,1.59811e-01,9.99999e-01,1.59811e-01,9.99999e-01
5.081956644e-01,1.65706e-01,9.99999e-01,1.65706e-01,9.99999e-01
5.107366428e-01,1.71695e-01,9.99999e-01,1.71695e-01,9.99999e-01
5.132903260e-01,1.77776e-01,9.99999e-01,1.77776e-01,9.99999e-01
5.158567776e-01,1.83946e-01,9.99999e-01,1.83946e-01,9.99999e-01
5.184360615e-01,1.90202e-01,9.99999e-01,1.90202e-01,9.99999e-01
5.210282418e-01,1.96540e-01,9.99999e-01,1.96540e-01,9.99999e-01
5.236333830e-01,2.02959e-01,9.99999e-01,2.02959e-01,9.99999e-01
5.262515499e-01,2.09454e-01,9.99999e-01,2.09454e-01,9.99999e-01
5.288828077e-01,2.16022e-01,9.99999e-01,2.16022e-01,9.99999e-01
5.315272217e-01,2.22661e-01,9.99999e-01,2.22661e-01,9.99999e-01
5.341848578e-01,2.29366e-01,9.99999e-01,2.29366e-01,9.99999e-01
5.368557821e-01,2.36135e-01,9.99999e-01,2.36135e-01,9.99999e-01
5.395400610e-01,2.42964e-01,9.99999e-01,2.42964e-01,9.99999e-01
5.422377613e-01,2.49850e-01,9.99999e-01,2.49850e-01,9.99999e-01
5.449489501e-01,2.56789e-01,9.99999e-01,2.56789e-01,9.99999e-01
5.476736949e-01,2.63778e-01,9.99999e-01,2.63778e-01,9.99999e-01
5.504120634e-01,2.70814e-01,9.99999e-01,2.70814e-01,9.99999e-01
5.531641237e-01,2.77892e-01,9.99999e-01,2.77892e-01,9.99999e-01
5.559299443e-01,2.85011e-01,9.99999e-01,2.85011e-01,9.99999e-01
5.587095940e-01,2.92166e-01,9.99999e-01,2.92166e-01,9.99999e-01
5.615031420e-01,2.99354e-01,9.99999e-01,2.99354e-01,9.99999e-01
5.643106577e-01,3.06571e-01,9.99999e-01,3.06571e-01,9.99999e-01
5.671322110e-01,3.13815e-01,9.99999e-01,3.13815e-01,9.99999e-01
5.699678720e-01,3.21082e-01,9.99999e-01,3.21082e-01,9.99999e-01
5.728177114e-01,3.28368e-01,9.99999e-01,3.28368e-01,9.99999e-01
5.756818000e-01,3.35671e-01,9.99999e-01,3.35671e-01,9.99999e-01
5.785602090e-01,3.42988e-01,9.99999e-01,3.42988e-01,9.99999e-01
5.814530100e-01,3.50314e-01,9.99999e-01,3.50314e-01,9.99999e-01
5.843602750e-01,3.57648e-01,9.99999e-01,3.57648e-01,9.99999e-01
5.872820764e-01,3.64986e-01,9.99999e-01,3.64986e-01,9.99999e-01
5.902184868e-01,3.72325e-01,9.99999e-01,3.72325e-01,9.99999e-01
5.931695792e-01,3.79662e-01,9.99999e-01,3.79662e-01,9.99999e-01
5.961354271e-01,3.86995e-01,9.99999e-01,3.86995e-01,9.99999e-01
5.991161043e-01,3.94321e-01,9.99999e-01,3.94321e-01,9.99999e-01
6.021116848e-01,4.01636e-01,9.99999e-01,4.01636e-01,9.99999e-01
6.051222432e-01,4.08938e-01,9.99999e-01,4.08938e-01,9.99999e-01
6.081478544e-01,4.16225e-01,9.99999e-01,4.16225e-01,9.99999e-01
6.111885937e-01,4.23494e-01,9.99999e-01,4.23494e-01,9.99999e-01
6.142445367e-01,4.30743e-01,9.99999e-01,4.30743e-01,9.99999e-01
6.173157594e-01,4.37969e-01,9.99999e-01,4.37969e-01,9.99999e-01
6.204023382e-01,4.45170e-01,9.99999e-01,4.45170e-01,9.99999e-01
6.235043498e-01,4.52343e-01,9.99999e-01,4.52343e-01,9.99999e-01
6.266218716e-01,4.59487e-01,9.99999e-01,4.59487e-01,9.99999e-01
6.297549810e-01,4.66600e-01,9.99999e-01,4.66600e-01,9.99999e-01
6.329037559e-01,4.73678e-01,9.99999e-01,4.73678e-01,9.99999e-01
6.360682746e-01,4.80722e-01,9.99999e-01,4.80722e-01,9.99999e-01
6.392486160e-01,4.87727e-01,9.99999e-01,4.87727e-01,9.99999e-01
6.424448591e-01,4.94694e-01,9.99999e-01,4.94694e-01,9.99999e-01
6.456570834e-01,5.01619e-01,9.99999e-01,5.01619e-01,9.99999e-01
6.488853688e-01,5.08501e-01,9.99999e-01,5.08501e-01,9.99999e-01
6.521297956e-01,5.15340e-01,9.99999e-01,5.15340e-01,9.99999e-01
6.553904446e-01,5.22132e-01,9.99999e-01,5.22132e-01,9.99999e-01
6.586673968e-01,5.28877e-01,9.99999e-01,5.28877e-01,9.99999e-01
6.619607338e-01,5.35574e-01,9.99999e-01,5.35574e-01,9.99999e-01
6.652705375e-01,5.42220e-01,9.99999e-01,5.42220e-01,9.99999e-01
6.685968902e-01,5.48816e-01,9.99999e-01,5.48816e-01,9.99999e-01
6.719398746e-01,5.55359e-01,9.99999e-01,5.55359e-01,9.99999e-01
6.752995740e-01,5.61848e-01,9.99999e-01,5.61848e-01,9.99999e-01
6.786760719e-01,5.68283e-01,9.99999e-01,5.68283e-01,9.99999e-01
6.820694522e-01,5.74662e-01,9.99999e-01,5.74662e-01,9.99999e-01
6.854797995e-01,5.80985e-01,9.99999e-01,5.80985e-01,9.99999e-01
6.889071985e-01,5.87250e-01,9.99999e-01,5.87250e-01,9.99999e-01
6.923517345e-01,5.93457e-01,9.99999e-01,5.93457e-01,9.99999e-01
6.958134932e-01,5.99605e-01,9.99999e-01,5.99605e-01,9.99999e-01
6.992925606e-01,6.05694e-01,9.99999e-01,6.05694e-01,9.99999e-01
7.027890234e-01,6.11722e-01,9.99999e-01,6.11722e-01,9.99999e-01
7.063029686e-01,6.17689e-01,9.99999e-01,6.17689e-01,9.99999e-01
7.098344834e-01,6.23596e-01,9.99999e-01,6.23596e-01,9.99999e-01
7.133836558e-01,6.29440e-01,9.99999e-01,6.29440e-01,9.99999e-01
7.169505741e-01,6.35222e-01,9.99999e-01,6.35222e-01,9.99999e-01
7.205353270e-01,6.40941e-01,9.99999e-01,6.40941e-01,9.99999e-01
7.241380036e-01,6.46597e-01,9.99999e-01,6.46597e-01,9.99999e-01
7.277586936e-01,6.52190e-01,9.99999e-01,6.52190e-01,9.99999e-01
7.313974871e-01,6.57720e-01,9.99999e-01,6.57720e-01,9.99999e-01
7.350544745e-01,6.63185e-01,9.99999e-01,6.63185e-01,9.99999e-01
7.387297469e-01,6.68587e-01,9.99999e-01,6.68587e-01,9.99999e-01
7.424233956e-01,6.73925e-01,9.99999e-01,6.73925e-01,9.99999e-01
7.461355126e-01,6.79199e-01,9.99999e-01,6.79199e-01,9.99999e-01
7.498661902e-01,6.84409e-01,9.99999e-01,6.84409e-01,9.99999e-01
7.536155211e-01,6.89554e-01,9.99999e-01,6.89554e-01,9.99999e-01
7.573835987e-01,6.94636e-01,9.99999e-01,6.94636e-01,9.99999e-01
7.611705167e-01,6.99653e-01,9.99999e-01,6.99653e-01,9.99999e-01
7.649763693e-01,7.04607e-01,9.99999e-01,7.04607e-01,9.99999e-01
7.688012511e-01,7.09496e-01,9.99999e-01,7.09496e-01,9.99999e-01
7.726452574e-01,7.14322e-01,9.99999e-01,7.14322e-01,9.99999e-01
7.765084837e-01,7.19085e-01,9.99999e-01,7.19085e-01,9.99999e-01
7.803910261e-01,7.11662e-01,9.83251e-01,7.23784e-01,9.99999e-01
7.842929812e-01,6.79705e-01,9.33121e-01,7.28420e-01,9.99999e-01
7.882144461e-01,6.80141e-01,9.27894e-01,7.32994e-01,9.99999e-01
7.921555184e-01,7.06507e-01,9.57968e-01,7.37505e-01,9.99999e-01
7.961162960e-01,7.21132e-01,9.71935e-01,7.41954e-01,9.99999e-01
8.000968774e-01,7.34901e-01,9.84671e-01,7.46341e-01,9.99999e-01
8.040973618e-01,7.44708e-01,9.92061e-01,7.50667e-01,9.99999e-01
8.081178486e-01,7.52167e-01,9.96337e-01,7.54931e-01,9.99999e-01
8.121584379e-01,7.58283e-01,9.98876e-01,7.59135e-01,9.99999e-01
8.162192301e-01,7.63089e-01,9.99751e-01,7.63278e-01,9.99999e-01
8.203003262e-01,7.67359e-01,9.99996e-01,7.67362e-01,9.99999e-01
8.244018279e-01,7.71386e-01,9.99999e-01,7.71386e-01,9.99999e-01
8.285238370e-01,7.75351e-01,9.99999e-01,7.75351e-01,9.99999e-01
8.326664562e-01,7.79258e-01,9.99999e-01,7.79258e-01,9.99999e-01
8.368297885e-01,7.83106e-01,9.99999e-01,7.83106e-01,9.99999e-01
8.410139374e-01,7.86897e-01,9.99999e-01,7.86897e-01,9.99999e-01
8.452190071e-01,7.90631e-01,9.99999e-01,7.90631e-01,9.99999e-01
8.494451021e-01,7.94308e-01,9.99999e-01,7.94308e-01,9.99999e-01
8.536923276e-01,7.97930e-01,9.99999e-01,7.97930e-01,9.99999e-01
8.579607893e-01,8.01495e-01,9.99999e-01,8.01495e-01,9.99999e-01
8.622505932e-01,8.05006e-01,9.99999e-01,8.05006e-01,9.99999e-01
8.665618462e-01,7.72314e-01,9.55287e-01,8.08462e-01,9.99999e-01
8.708946554e-01,6.78488e-01,8.35714e-01,8.11865e-01,9.99999e-01
8.752491287e-01,7.07198e-01,8.67499e-01,8.15214e-01,9.99999e-01
8.796253743e-01,7.57757e-01,9.25774e-01,8.18511e-01,9.99999e-01
8.840235012e-01,7.89711e-01,9.61004e-01,8.21755e-01,9.99999e-01
8.884436187e-01,8.12191e-01,9.84535e-01,8.24948e-01,9.99999e-01
8.928858368e-01,8.22873e-01,9.93700e-01,8.28089e-01,9.99999e-01
8.973502660e-01,8.29913e-01,9.98474e-01,8.31180e-01,9.99999e-01
9.018370173e-01,8.34082e-01,9.99831e-01,8.34222e-01,9.99999e-01
9.063462024e-01,8.33490e-01,9.95551e-01,8.37214e-01,9.99999e-01
9.108779334e-01,8.31800e-01,9.90051e-01,8.40157e-01,9.99999e-01
9.154323231e-01,8.41095e-01,9.97677e-01,8.43052e-01,9.99999e-01
9.200094847e-01,8.16063e-01,9.64727e-01,8.45900e-01,9.99999e-01
9.246095321e-01,8.08061e-01,9.52114e-01,8.48701e-01,9.99999e-01
9.292325798e-01,8.18882e-01,9.61743e-01,8.51456e-01,9.99999e-01
9.338787427e-01,8.22934e-01,9.63437e-01,8.54164e-01,9.99999e-01
9.385481364e-01,8.33740e-01,9.73053e-01,8.56828e-01,9.99999e-01
9.432408771e-01,8.45248e-01,9.83478e-01,8.59447e-01,9.99999e-01
9.479570815e-01,8.54677e-01,9.91478e-01,8.62022e-01,9.99999e-01
9.526968669e-01,8.61000e-01,9.95888e-01,8.64554e-01,9.99999e-01
9.574603512e-01,8.65519e-01,9.98241e-01,8.67043e-01,9.99999e-01
9.622476530e-01,8.69014e-01,9.99451e-01,8.69490e-01,9.99999e-01
9.670588912e-01,8.71752e-01,9.99835e-01,8.71895e-01,9.99999e-01
9.718941857e-01,8.74249e-01,9.99988e-01,8.74259e-01,9.99999e-01
9.767536566e-01,8.76583e-01,9.99999e-01,8.76583e-01,9.99999e-01
9.816374249e-01,8.78866e-01,9.99999e-01,8.78866e-01,9.99999e-01
9.865456120e-01,8.81111e-01,9.99999e-01,8.81111e-01,9.99999e-01
9.914783401e-01,8.83316e-01,9.99999e-01,8.83316e-01,9.99999e-01
9.964357318e-01,8.85484e-01,9.99999e-01,8.85484e-01,9.99999e-01
1.001417910e+00,8.87614e-01,9.99999e-01,8.87614e-01,9.99999e-01
1.006425000e+00,8.89706e-01,9.99999e-01,8.89706e-01,9.99999e-01
1.011457125e+00,8.91762e-01,9.99999e-01,8.91762e-01,9.99999e-01
1.016514411e+00,8.93782e-01,9.99999e-01,8.93782e-01,9.99999e-01
1.021596983e+00,8.95744e-01,9.99973e-01,8.95767e-01,9.99999e-01
1.026704968e+00,8.96159e-01,9.98264e-01,8.97717e-01,9.99999e-01
1.031838492e+00,8.74997e-01,9.72615e-01,8.99632e-01,9.99999e-01
1.036997685e+00,2.71917e-01,3.01623e-01,9.01514e-01,9.99999e-01
1.042182673e+00,3.30671e-01,3.66045e-01,9.03362e-01,9.99999e-01
1.047393587e+00,3.00723e-01,3.32225e-01,9.05177e-01,9.99999e-01
1.052630555e+00,5.08551e-02,5.60720e-02,9.06960e-01,9.99999e-01
1.057893707e+00,9.42997e-02,1.03773e-01,9.08711e-01,9.99999e-01
1.063183176e+00,1.76522e-01,1.93888e-01,9.10431e-01,9.99999e-01
1.068499092e+00,3.05341e-01,3.34759e-01,9.12120e-01,9.99999e-01
1.073841587e+00,4.59377e-01,5.02722e-01,9.13779e-01,9.99999e-01
1.079210795e+00,5.93226e-01,6.48045e-01,9.15408e-01,9.99999e-01
1.084606849e+00,7.24028e-01,7.89555e-01,9.17007e-01,9.99999e-01
1.090029883e+00,8.12745e-01,8.84786e-01,9.18578e-01,9.99999e-01
1.095480033e+00,8.66389e-01,9.41604e-01,9.20120e-01,9.99999e-01
1.100957433e+00,8.95330e-01,9.71459e-01,9.21634e-01,9.99999e-01
1.106462220e+00,9.12154e-01,9.88119e-01,9.23121e-01,9.99999e-01
1.111994531e+00,9.20496e-01,9.95581e-01,9.24581e-01,9.99999e-01
1.117554504e+00,9.25018e-01,9.98924e-01,9.26014e-01,9.99999e-01
1.123142276e+00,9.27356e-01,9.99929e-01,9.27421e-01,9.99999e-01
1.128757988e+00,9.28802e-01,9.99999e-01,9.28802e-01,9.99999e-01
1.134401778e+00,9.30158e-01,9.99999e-01,9.30158e-01,9.99999e-01
1.140073787e+00,9.31490e-01,9.99999e-01,9.31490e-01,9.99999e-01
1.145774156e+00,9.32796e-01,9.99999e-01,9.32796e-01,9.99999e-01
1.151503026e+00,9.34079e-01,9.99999e-01,9.34079e-01,9.99999e-01
1.157260541e+00,9.35338e-01,9.99999e-01,9.35338e-01,9.99999e-01
1.163046844e+00,9.36574e-01,9.99999e-01,9.36574e-01,9.99999e-01
1.168862078e+00,9.37787e-01,9.99999e-01,9.37787e-01,9.99999e-01
1.174706389e+00,9.38977e-01,9.99999e-01,9.38977e-01,9.99999e-01
1.180579921e+00,9.40146e-01,9.99999e-01,9.40146e-01,9.99999e-01
1.186482820e+00,9.41289e-01,9.99995e-01,9.41293e-01,9.99999e-01
1.192415234e+00,9.36517e-01,9.93737e-01,9.42418e-01,9.99999e-01
1.198377311e+00,5.54368e-01,5.87551e-01,9.43523e-01,9.99999e-01
1.204369197e+00,2.61328e-06,2.76652e-06,9.44607e-01,9.99999e-01
1.210391043e+00,1.06132e-19,1.12229e-19,9.45671e-01,9.99999e-01
1.216442998e+00,2.67529e-17,2.82587e-17,9.46715e-01,9.99999e-01
1.222525213e+00,4.80035e-17,5.06504e-17,9.47739e-01,9.99999e-01
1.228637839e+00,4.25100e-13,4.48065e-13,9.48745e-01,9.99999e-01
1.234781029e+00,3.66222e-09,3.85606e-09,9.49731e-01,9.99999e-01
1.240954934e+00,3.29070e-06,3.46135e-06,9.50699e-01,9.99999e-01
1.247159708e+00,8.13856e-04,8.55205e-04,9.51649e-01,9.99999e-01
1.253395507e+00,1.98194e-02,2.08060e-02,9.52581e-01,9.99999e-01
1.259662485e+00,1.06187e-01,1.11366e-01,9.53495e-01,9.99999e-01
1.265960797e+00,2.68036e-01,2.80844e-01,9.54393e-01,9.99999e-01
1.272290601e+00,5.67848e-01,5.94435e-01,9.55273e-01,9.99999e-01
1.278652054e+00,5.02093e-01,5.25126e-01,9.56137e-01,9.99999e-01
1.285045314e+00,3.31693e-02,3.46602e-02,9.56984e-01,9.99999e-01
1.291470541e+00,5.42826e-03,5.66733e-03,9.57816e-01,9.99999e-01
1.297927893e+00,7.68914e-02,8.02095e-02,9.58632e-01,9.99999e-01
1.304417533e+00,3.73586e-01,3.89382e-01,9.59432e-01,9.99999e-01
1.310939621e+00,7.21663e-02,7.51561e-02,9.60217e-01,9.99999e-01
1.317494319e+00,3.25107e-07,3.38305e-07,9.60987e-01,9.99999e-01
1.324081790e+00,2.34205e-05,2.43521e-05,9.61743e-01,9.99999e-01
1.330702199e+00,3.53813e-03,3.67604e-03,9.62484e-01,9.99999e-01
1.337355710e+00,2.49902e-03,2.59447e-03,9.63211e-01,9.99999e-01
1.344042489e+00,8.74702e-04,9.07438e-04,9.63925e-01,9.99999e-01
1.350762701e+00,2.80241e-03,2.90517e-03,9.64625e-01,9.99999e-01
1.357516515e+00,2.05802e-02,2.13197e-02,9.65311e-01,9.99999e-01
1.364304097e+00,8.85848e-02,9.17041e-02,9.65984e-01,9.99999e-01
1.371125618e+00,2.73518e-01,2.82956e-01,9.66645e-01,9.99999e-01
1.377981246e+00,3.52928e-01,3.64861e-01,9.67293e-01,9.99999e-01
1.384871152e+00,5.38475e-01,5.56316e-01,9.67929e-01,9.99999e-01
1.391795508e+00,5.63633e-01,5.81933e-01,9.68552e-01,9.99999e-01
1.398754485e+00,6.94874e-01,7.16982e-01,9.69163e-01,9.99999e-01
1.405748258e+00,7.58713e-01,7.82368e-01,9.69763e-01,9.99999e-01
1.412776999e+00,8.31342e-01,8.56743e-01,9.70351e-01,9.99999e-01
1.419840884e+00,7.70657e-01,7.93731e-01,9.70928e-01,9.99999e-01
1.426940089e+00,1.05481e-01,1.08576e-01,9.71494e-01,9.99999e-01
1.434074789e+00,2.58972e-275,2.66418e-275,9.72050e-01,9.99999e-01
1.441245163e+00,0.00000e+00,0.00000e+00,9.72594e-01,9.99999e-01
1.448451389e+00,0.00000e+00,0.00000e+00,9.73128e-01,9.99999e-01
1.455693646e+00,1.58359e-149,1.62644e-149,9.73652e-01,9.99999e-01
1.462972114e+00,4.38248e-73,4.49870e-73,9.74165e-01,9.99999e-01
1.470286975e+00,2.16103e-31,2.21719e-31,9.74669e-01,9.99999e-01
1.477638409e+00,2.24589e-20,2.30309e-20,9.75163e-01,9.99999e-01
1.485026601e+00,5.90756e-12,6.05501e-12,9.75648e-01,9.99999e-01
1.492451734e+00,3.43769e-10,3.52178e-10,9.76123e-01,9.99999e-01
1.499913993e+00,2.37586e-05,2.43281e-05,9.76589e-01,9.99999e-01
1.507413563e+00,2.73820e-04,2.80253e-04,9.77046e-01,9.99999e-01
1.514950631e+00,1.20547e-05,1.23323e-05,9.77494e-01,9.99999e-01
1.522525384e+00,5.01156e-15,5.12464e-15,9.77934e-01,9.99999e-01
1.530138011e+00,3.05113e-33,3.11860e-33,9.78365e-01,9.99999e-01
1.537788701e+00,4.87439e-25,4.98003e-25,9.78788e-01,9.99999e-01
1.545477645e+00,9.85416e-07,1.00634e-06,9.79202e-01,9.99999e-01
1.553205033e+00,2.20646e-04,2.25238e-04,9.79609e-01,9.99999e-01
1.560971058e+00,5.40912e-05,5.51946e-05,9.80008e-01,9.99999e-01
1.568775913e+00,7.93024e-82,8.08878e-82,9.80399e-01,9.99999e-01
1.576619793e+00,5.74835e-190,5.86098e-190,9.80782e-01,9.99999e-01
1.584502892e+00,3.29801e-104,3.36134e-104,9.81158e-01,9.99999e-01
1.592425406e+00,6.14778e-73,6.26349e-73,9.81527e-01,9.99999e-01
1.600387533e+00,7.51953e-117,7.65823e-117,9.81888e-01,9.99999e-01
1.608389471e+00,1.84488e-195,1.87823e-195,9.82243e-01,9.99999e-01
1.616431418e+00,1.09925e-196,1.11872e-196,9.82590e-01,9.99999e-01
1.624513575e+00,1.94867e-92,1.98251e-92,9.82931e-01,9.99999e-01
1.632636143e+00,4.91800e-69,5.00169e-69,9.83266e-01,9.99999e-01
1.640799324e+00,3.21003e-29,3.26357e-29,9.83593e-01,9.99999e-01
1.649003321e+00,3.88604e-29,3.94957e-29,9.83915e-01,9.99999e-01
1.657248337e+00,8.12407e-23,8.25423e-23,9.84230e-01,9.99999e-01
1.665534579e+00,5.47834e-23,5.56437e-23,9.84539e-01,9.99999e-01
1.673862252e+00,3.78661e-15,3.84489e-15,9.84842e-01,9.99999e-01
1.682231563e+00,5.99225e-11,6.08264e-11,9.85139e-01,9.99999e-01
1.690642721e+00,8.89512e-07,9.02663e-07,9.85431e-01,9.99999e-01
1.699095934e+00,1.90692e-04,1.93455e-04,9.85716e-01,9.99999e-01
1.707591414e+00,1.02998e-02,1.04461e-02,9.85996e-01,9.99999e-01
1.716129371e+00,8.29423e-02,8.40968e-02,9.86271e-01,9.99999e-01
1.724710018e+00,2.64829e-01,2.68442e-01,9.86540e-01,9.99999e-01
1.733333568e+00,4.24023e-01,4.29692e-01,9.86805e-01,9.99999e-01
1.742000236e+00,5.79300e-01,5.86892e-01,9.87063e-01,9.99999e-01
1.750710237e+00,4.47776e-02,4.53527e-02,9.87317e-01,9.99999e-01
1.759463788e+00,1.98938e-14,2.01442e-14,9.87566e-01,9.99999e-01
1.768261107e+00,2.17356e-15,2.20038e-15,9.87810e-01,9.99999e-01
1.777102413e+00,2.62847e-14,2.66026e-14,9.88050e-01,9.99999e-01
1.785987925e+00,5.39726e-14,5.46124e-14,9.88284e-01,9.99999e-01
1.794917864e+00,4.35941e-13,4.41006e-13,9.88514e-01,9.99999e-01
1.803892454e+00,3.87585e-13,3.91999e-13,9.88740e-01,9.99999e-01
1.812911916e+00,2.20619e-12,2.23081e-12,9.88961e-01,9.99999e-01
1.821976476e+00,1.30893e-12,1.32324e-12,9.89178e-01,9.99999e-01
1.831086358e+00,2.03887e-10,2.06073e-10,9.89391e-01,9.99999e-01
1.840241790e+00,8.60862e-09,8.69909e-09,9.89599e-01,9.99999e-01
1.849442999e+00,2.99933e-06,3.03023e-06,9.89803e-01,9.99999e-01
1.858690214e+00,1.29061e-05,1.30364e-05,9.90004e-01,9.99999e-01
1.867983665e+00,1.98877e-06,2.00845e-06,9.90200e-01,9.99999e-01
1.877323583e+00,1.79457e-26,1.81198e-26,9.90393e-01,9.99999e-01
