#,Wave/freq,Total,CO2,Rayleigh,CIA
4.000000000e-01,1.06415e-15,9.99999e-01,1.06415e-15,9.99999e-01
4.020000000e-01,2.10405e-15,9.99999e-01,2.10405e-15,9.99999e-01
4.040100000e-01,4.10168e-15,9.99999e-01,4.10168e-15,9.99999e-01
4.060300500e-01,7.89117e-15,9.99999e-01,7.89117e-15,9.99999e-01
4.080602003e-01,1.49868e-14,9.99999e-01,1.49868e-14,9.99999e-01
4.101005013e-01,2.81042e-14,9.99999e-01,2.81042e-14,9.99999e-01
4.121510038e-01,5.20526e-14,9.99999e-01,5.20526e-14,9.99999e-01
4.142117588e-01,9.52413e-14,9.99999e-01,9.52413e-14,9.99999e-01
4.162828176e-01,1.72197e-13,9.99999e-01,1.72197e-13,9.99999e-01
4.183642317e-01,3.07713e-13,9.99999e-01,3.07713e-13,9.99999e-01
4.204560528e-01,5.43608e-13,9.99999e-01,5.43608e-13,9.99999e-01
4.225583331e-01,9.49608e-13,9.99999e-01,9.49608e-13,9.99999e-01
4.246711247e-01,1.64066e-12,9.99999e-01,1.64066e-12,9.99999e-01
4.267944804e-01,2.80414e-12,9.99999e-01,2.80414e-12,9.99999e-01
4.289284528e-01,4.74225e-12,9.99999e-01,4.74225e-12,9.99999e-01
4.310730950e-01,7.93711e-12,9.99999e-01,7.93711e-12,9.99999e-01
4.332284605e-01,1.31499e-11,9.99999e-01,1.31499e-11,9.99999e-01
4.353946028e-01,2.15700e-11,9.99999e-01,2.15700e-11,9.99999e-01
4.375715758e-01,3.50375e-11,9.99999e-01,3.50375e-11,9.99999e-01
4.397594337e-01,5.63708e-11,9.99999e-01,5.63708e-11,9.99999e-01
4.419582309e-01,8.98454e-11,9.99999e-01,8.98454e-11,9.99999e-01
4.441680220e-01,1.41886e-10,9.99999e-01,1.41886e-10,9.99999e-01
4.463888621e-01,2.22056e-10,9.99999e-01,2.22056e-10,9.99999e-01
4.486208064e-01,3.44464e-10,9.99999e-01,3.44464e-10,9.99999e-01
4.508639105e-01,5.29736e-10,9.99999e-01,5.29736e-10,9.99999e-01
4.531182300e-01,8.07759e-10,9.99999e-01,8.07759e-10,9.99999e-01
4.553838212e-01,1.22148e-09,9.99999e-01,1.22148e-09,9.99999e-01
4.576607403e-01,1.83207e-09,9.99999e-01,1.83207e-09,9.99999e-01
4.599490440e-01,2.72596e-09,9.99999e-01,2.72596e-09,9.99999e-01
4.622487892e-01,4.02430e-09,9.99999e-01,4.02430e-09,9.99999e-01
4.645600332e-01,5.89547e-09,9.99999e-01,5.89547e-09,9.99999e-01
4.668828333e-01,8.57177e-09,9.99999e-01,8.57177e-09,9.99999e-01
4.692172475e-01,1.23712e-08,9.99999e-01,1.23712e-08,9.99999e-01
4.715633337e-01,1.77258e-08,9.99999e-01,1.77258e-08,9.99999e-01
4.739211504e-01,2.52183e-08,9.99999e-01,2.52183e-08,9.99999e-01
4.762907561e-01,3.56288e-08,9.99999e-01,3.56288e-08,9.99999e-01
4.786722099e-01,4.99944e-08,9.99999e-01,4.99944e-08,9.99999e-01
4.810655710e-01,6.96845e-08,9.99999e-01,6.96845e-08,9.99999e-01
4.834708988e-01,9.64943e-08,9.99999e-01,9.64943e-08,9.99999e-01
4.858882533e-01,1.32762e-07,9.99999e-01,1.32762e-07,9.99999e-01
4.883176946e-01,1.81515e-07,9.99999e-01,1.81515e-07,9.99999e-01
4.907592831e-01,2.46641e-07,9.99999e-01,2.46641e-07,9.99999e-01
4.932130795e-01,3.33110e-07,9.99999e-01,3.33110e-07,9.99999e-01
4.956791449e-01,4.47232e-07,9.99999e-01,4.47232e-07,9.99999e-01
4.981575406e-01,5.96967e-07,9.99999e-01,5.96967e-07,9.99999e-01
5.006483283e-01,7.92302e-07,9.99999e-01,7.92302e-07,9.99999e-01
5.031515699e-01,1.04569e-06,9.99999e-01,1.04569e-06,9.99999e-01
5.056673278e-01,1.37257e-06,9.99999e-01,1.37257e-06,9.99999e-01
5.081956644e-01,1.79198e-06,9.99999e-01,1.79198e-06,9.99999e-01
5.107366428e-01,2.32725e-06,9.99999e-01,2.32725e-06,9.99999e-01
5.132903260e-01,3.00685e-06,9.99999e-01,3.00685e-06,9.99999e-01
5.158567776e-01,3.86530e-06,9.99999e-01,3.86530e-06,9.99999e-01
5.184360615e-01,4.94424e-06,9.99999e-01,4.94424e-06,9.99999e-01
5.210282418e-01,6.29368e-06,9.99999e-01,6.29368e-06,9.99999e-01
5.236333830e-01,7.97332e-06,9.99999e-01,7.97332e-06,9.99999e-01
5.262515499e-01,1.00541e-05,9.99999e-01,1.00541e-05,9.99999e-01
5.288828077e-01,1.26200e-05,9.99999e-01,1.26200e-05,9.99999e-01
5.315272217e-01,1.57698e-05,9.99999e-01,1.57698e-05,9.99999e-01
5.341848578e-01,1.96192e-05,9.99999e-01,1.96192e-05,9.99999e-01
5.368557821e-01,2.43032e-05,9.99999e-01,2.43032e-05,9.99999e-01
5.395400610e-01,2.99783e-05,9.99999e-01,2.99783e-05,9.99999e-01
5.422377613e-01,3.68257e-05,9.99999e-01,3.68257e-05,9.99999e-01
5.449489501e-01,4.50537e-05,9.99999e-01,4.50537e-05,9.99999e-01
5.476736949e-01,5.49010e-05,9.99999e-01,5.49010e-05,9.99999e-01
5.504120634e-01,6.66399e-05,9.99999e-01,6.66399e-05,9.99999e-01
5.531641237e-01,8.05798e-05,9.99999e-01,8.05798e-05,9.99999e-01
5.559299443e-01,9.70707e-05,9.99999e-01,9.70707e-05,9.99999e-01
5.587095940e-01,1.16507e-04,9.99999e-01,1.16507e-04,9.99999e-01
5.615031420e-01,1.39332e-04,9.99999e-01,1.39332e-04,9.99999e-01
5.643106577e-01,1.66042e-04,9.99999e-01,1.66042e-04,9.99999e-01
5.671322110e-01,1.97186e-04,9.99999e-01,1.97186e-04,9.99999e-01
5.699678720e-01,2.33379e-04,9.99999e-01,2.33379e-04,9.99999e-01
5.728177114e-01,2.75297e-04,9.99999e-01,2.75297e-04,9.99999e-01
5.756818000e-01,3.23687e-04,9.99999e-01,3.23687e-04,9.99999e-01
5.785602090e-01,3.79366e-04,9.99999e-01,3.79366e-04,9.99999e-01
5.814530100e-01,4.43231e-04,9.99999e-01,4.43231e-04,9.99999e-01
5.843602750e-01,5.16259e-04,9.99999e-01,5.16259e-04,9.99999e-01
5.872820764e-01,5.99511e-04,9.99999e-01,5.99511e-04,9.99999e-01
5.902184868e-01,6.94134e-04,9.99999e-01,6.94134e-04,9.99999e-01
5.931695792e-01,8.01369e-04,9.99999e-01,8.01369e-04,9.99999e-01
5.961354271e-01,9.22549e-04,9.99999e-01,9.22549e-04,9.99999e-01
5.991161043e-01,1.05910e-03,9.99999e-01,1.05910e-03,9.99999e-01
6.021116848e-01,1.21256e-03,9.99999e-01,1.21256e-03,9.99999e-01
6.051222432e-01,1.38455e-03,9.99999e-01,1.38455e-03,9.99999e-01
6.081478544e-01,1.57679e-03,9.99999e-01,1.57679e-03,9.99999e-01
6.111885937e-01,1.79112e-03,9.99999e-01,1.79112e-03,9.99999e-01
6.142445367e-01,2.02947e-03,9.99999e-01,2.02947e-03,9.99999e-01
6.173157594e-01,2.29387e-03,9.99999e-01,2.29387e-03,9.99999e-01
6.204023382e-01,2.58645e-03,9.99999e-01,2.58645e-03,9.99999e-01
6.235043498e-01,2.90944e-03,9.99999e-01,2.90944e-03,9.99999e-01
6.266218716e-01,3.26516e-03,9.99999e-01,3.26516e-03,9.99999e-01
6.297549810e-01,3.65604e-03,9.99999e-01,3.65604e-03,9.99999e-01
6.329037559e-01,4.08459e-03,9.99999e-01,4.08459e-03,9.99999e-01
6.360682746e-01,4.55338e-03,9.99999e-01,4.55338e-03,9.99999e-01
6.392486160e-01,5.06509e-03,9.99999e-01,5.06509e-03,9.99999e-01
6.424448591e-01,5.62248e-03,9.99999e-01,5.62248e-03,9.99999e-01
6.456570834e-01,6.22834e-03,9.99999e-01,6.22834e-03,9.99999e-01
6.488853688e-01,6.88555e-03,9.99999e-01,6.88555e-03,9.99999e-01
6.521297956e-01,7.59705e-03,9.99999e-01,7.59705e-03,9.99999e-01
6.553904446e-01,8.36580e-03,9.99999e-01,8.36580e-03,9.99999e-01
6.586673968e-01,9.19481e-03,9.99999e-01,9.19481e-03,9.99999e-01
6.619607338e-01,1.00871e-02,9.99999e-01,1.00871e-02,9.99999e-01
6.652705375e-01,1.10458e-02,9.99999e-01,1.10458e-02,9.99999e-01
6.685968902e-01,1.20740e-02,9.99999e-01,1.20740e-02,9.99999e-01
6.719398746e-01,1.31746e-02,9.99999e-01,1.31746e-02,9.99999e-01
6.752995740e-01,1.43509e-02,9.99999e-01,1.43509e-02,9.99999e-01
6.786760719e-01,1.56057e-02,9.99999e-01,1.56057e-02,9.99999e-01
6.820694522e-01,1.69423e-02,9.99999e-01,1.69423e-02,9.99999e-01
6.854797995e-01,1.83634e-02,9.99999e-01,1.83634e-02,9.99999e-01
6.889071985e-01,1.98722e-02,9.99999e-01,1.98722e-02,9.99999e-01
6.923517345e-01,2.14713e-02,9.99999e-01,2.14713e-02,9.99999e-01
6.958134932e-01,2.31637e-02,9.99999e-01,2.31637e-02,9.99999e-01
6.992925606e-01,2.49521e-02,9.99999e-01,2.49521e-02,9.99999e-01
7.027890234e-01,2.68392e-02,9.99999e-01,2.68392e-02,9.99999e-01
7.063029686e-01,2.88273e-02,9.99999e-01,2.88273e-02,9.99999e-01
7.098344834e-01,3.09191e-02,9.99999e-01,3.09191e-02,9.99999e-01
7.133836558e-01,3.31168e-02,9.99999e-01,3.31168e-02,9.99999e-01
7.169505741e-01,3.54227e-02,9.99999e-01,3.54227e-02,9.99999e-01
7.205353270e-01,3.78388e-02,9.99999e-01,3.78388e-02,9.99999e-01
7.241380036e-01,4.03670e-02,9.99999e-01,4.03670e-02,9.99999e-01
7.277586936e-01,4.30091e-02,9.99999e-01,4.30091e-02,9.99999e-01
7.313974871e-01,4.57669e-02,9.99999e-01,4.57669e-02,9.99999e-01
7.350544745e-01,4.86417e-02,9.99999e-01,4.86417e-02,9.99999e-01
7.387297469e-01,5.16349e-02,9.99999e-01,5.16349e-02,9.99999e-01
7.424233956e-01,5.47477e-02,9.99999e-01,5.47477e-02,9.99999e-01
7.461355126e-01,5.79811e-02,9.99999e-01,5.79811e-02,9.99999e-01
7.498661902e-01,6.13359e-02,9.99999e-01,6.13359e-02,9.99999e-01
7.536155211e-01,6.48127e-02,9.99999e-01,6.48127e-02,9.99999e-01
7.573835987e-01,6.84121e-02,9.99999e-01,6.84121e-02,9.99999e-01
7.611705167e-01,7.21343e-02,9.99999e-01,7.21343e-02,9.99999e-01
7.649763693e-01,7.59795e-02,9.99999e-01,7.59795e-02,9.99999e-01
7.688012511e-01,7.99476e-02,9.99999e-01,7.99476e-02,9.99999e-01
7.726452574e-01,8.40384e-02,9.99999e-01,8.40384e-02,9.99999e-01
7.765084837e-01,8.82514e-02,9.99999e-01,8.82514e-02,9.99999e-01
7.803910261e-01,8.39052e-02,9.06237e-01,9.25862e-02,9.99999e-01
7.842929812e-01,6.05886e-02,6.24354e-01,9.70420e-02,9.99999e-01
7.882144461e-01,6.16739e-02,6.06919e-01,1.01618e-01,9.99999e-01
7.921555184e-01,7.80912e-02,7.34543e-01,1.06313e-01,9.99999e-01
7.961162960e-01,9.02715e-02,8.12340e-01,1.11125e-01,9.99999e-01
8.000968774e-01,1.03651e-01,8.93132e-01,1.16054e-01,9.99999e-01
8.040973618e-01,1.14221e-01,9.43217e-01,1.21097e-01,9.99999e-01
8.081178486e-01,1.22896e-01,9.73400e-01,1.26254e-01,9.99999e-01
8.121584379e-01,1.30441e-01,9.91781e-01,1.31522e-01,9.99999e-01
8.162192301e-01,1.36650e-01,9.98178e-01,1.36899e-01,9.99999e-01
8.203003262e-01,1.42379e-01,9.99974e-01,1.42383e-01,9.99999e-01
8.244018279e-01,1.47972e-01,9.99999e-01,1.47972e-01,9.99999e-01
8.285238370e-01,1.53663e-01,9.99999e-01,1.53663e-01,9.99999e-01
8.326664562e-01,1.59455e-01,9.99999e-01,1.59455e-01,9.99999e-01
8.368297885e-01,1.65344e-01,9.99999e-01,1.65344e-01,9.99999e-01
8.410139374e-01,1.71327e-01,9.99999e-01,1.71327e-01,9.99999e-01
8.452190071e-01,1.77403e-01,9.99999e-01,1.77403e-01,9.99999e-01
8.494451021e-01,1.83567e-01,9.99999e-01,1.83567e-01,9.99999e-01
8.536923276e-01,1.89818e-01,9.99999e-01,1.89818e-01,9.99999e-01
8.579607893e-01,1.96151e-01,9.99999e-01,1.96151e-01,9.99999e-01
8.622505932e-01,2.02565e-01,9.99999e-01,2.02565e-01,9.99999e-01
8.665618462e-01,1.80061e-01,8.61304e-01,2.09055e-01,9.99999e-01
8.708946554e-01,6.75473e-02,3.13271e-01,2.15619e-01,9.99999e-01
8.752491287e-01,8.44947e-02,3.80172e-01,2.22254e-01,9.99999e-01
8.796253743e-01,1.32836e-01,5.80184e-01,2.28955e-01,9.99999e-01
8.840235012e-01,1.76737e-01,7.49774e-01,2.35720e-01,9.99999e-01
8.884436187e-01,2.16432e-01,8.92335e-01,2.42546e-01,9.99999e-01
8.928858368e-01,2.38126e-01,9.54687e-01,2.49428e-01,9.99999e-01
8.973502660e-01,2.53507e-01,9.88852e-01,2.56364e-01,9.99999e-01
9.018370173e-01,2.63026e-01,9.98768e-01,2.63350e-01,9.99999e-01
9.063462024e-01,2.61877e-01,9.68539e-01,2.70383e-01,9.99999e-01
9.108779334e-01,2.57884e-01,9.29445e-01,2.77460e-01,9.99999e-01
9.154323231e-01,2.79771e-01,9.83114e-01,2.84576e-01,9.99999e-01
9.200094847e-01,2.34264e-01,8.03021e-01,2.91728e-01,9.99999e-01
9.246095321e-01,2.09353e-01,7.00376e-01,2.98914e-01,9.99999e-01
9.292325798e-01,2.32290e-01,7.58793e-01,3.06130e-01,9.99999e-01
9.338787427e-01,2.39663e-01,7.64786e-01,3.13372e-01,9.99999e-01
9.385481364e-01,2.62820e-01,8.19678e-01,3.20638e-01,9.99999e-01
9.432408771e-01,2.90206e-01,8.84981e-01,3.27923e-01,9.99999e-01
9.479570815e-01,3.14798e-01,9.39062e-01,3.35225e-01,9.99999e-01
9.526968669e-01,3.32342e-01,9.70225e-01,3.42541e-01,9.99999e-01
9.574603512e-01,3.45373e-01,9.87154e-01,3.49867e-01,9.99999e-01
9.622476530e-01,3.55764e-01,9.95978e-01,3.57201e-01,9.99999e-01
9.670588912e-01,3.64100e-01,9.98795e-01,3.64538e-01,9.99999e-01
9.718941857e-01,3.71847e-01,9.99916e-01,3.71878e-01,9.99999e-01
9.767536566e-01,3.79215e-01,9.99999e-01,3.79215e-01,9.99999e-01
9.816374249e-01,3.86548e-01,9.99999e-01,3.86548e-01,9.99999e-01
9.865456120e-01,3.93874e-01,9.99999e-01,3.93874e-01,9.99999e-01
9.914783401e-01,4.01190e-01,9.99999e-01,4.01190e-01,9.99999e-01
9.964357318e-01,4.08493e-01,9.99999e-01,4.08493e-01,9.99999e-01
1.001417910e+00,4.15781e-01,9.99999e-01,4.15781e-01,9.99999e-01
1.006425000e+00,4.23052e-01,9.99999e-01,4.23052e-01,9.99999e-01
1.011457125e+00,4.30302e-01,9.99999e-01,4.30302e-01,9.99999e-01
1.016514411e+00,4.37529e-01,9.99999e-01,4.37529e-01,9.99999e-01
1.021596983e+00,4.44646e-01,9.99807e-01,4.44731e-01,9.99999e-01
1.026704968e+00,4.46210e-01,9.87392e-01,4.51907e-01,9.99999e-01
1.031838492e+00,4.11975e-01,8.97445e-01,4.59053e-01,9.99999e-01
1.036997685e+00,2.17741e-02,4.67089e-02,4.66167e-01,9.99999e-01
1.042182673e+00,1.26530e-03,2.67365e-03,4.73248e-01,9.99999e-01
1.047393587e+00,3.33585e-03,6.94545e-03,4.80293e-01,9.99999e-01
1.052630555e+00,2.54336e-07,5.21926e-07,4.87301e-01,9.99999e-01
1.057893707e+00,9.77450e-07,1.97756e-06,4.94270e-01,9.99999e-01
1.063183176e+00,3.06664e-05,6.11862e-05,5.01198e-01,9.99999e-01
1.068499092e+00,3.33417e-04,6.56224e-04,5.08083e-01,9.99999e-01
1.073841587e+00,4.56065e-03,8.85694e-03,5.14924e-01,9.99999e-01
1.079210795e+00,2.69655e-02,5.16858e-02,5.21719e-01,9.99999e-01
1.084606849e+00,9.80799e-02,1.85593e-01,5.28467e-01,9.99999e-01
1.090029883e+00,2.21179e-01,4.13289e-01,5.35167e-01,9.99999e-01
1.095480033e+00,3.50055e-01,6.46075e-01,5.41817e-01,9.99999e-01
1.100957433e+00,4.43752e-01,8.09152e-01,5.48415e-01,9.99999e-01
1.106462220e+00,5.08403e-01,9.16105e-01,5.54961e-01,9.99999e-01
1.111994531e+00,5.43486e-01,9.67997e-01,5.61454e-01,9.99999e-01
1.117554504e+00,5.63421e-01,9.92127e-01,5.67892e-01,9.99999e-01
1.123142276e+00,5.73979e-01,9.99484e-01,5.74275e-01,9.99999e-01
1.128757988e+00,5.80601e-01,9.99999e-01,5.80601e-01,9.99999e-01
1.134401778e+00,5.86869e-01,9.99999e-01,5.86869e-01,9.99999e-01
1.140073787e+00,5.93080e-01,9.99999e-01,5.93080e-01,9.99999e-01
1.145774156e+00,5.99232e-01,9.99999e-01,5.99232e-01,9.99999e-01
1.151503026e+00,6.05324e-01,9.99999e-01,6.05324e-01,9.99999e-01
1.157260541e+00,6.11356e-01,9.99999e-01,6.11356e-01,9.99999e-01
1.163046844e+00,6.17327e-01,9.99999e-01,6.17327e-01,9.99999e-01
1.168862078e+00,6.23237e-01,9.99999e-01,6.23237e-01,9.99999e-01
1.174706389e+00,6.29085e-01,9.99999e-01,6.29085e-01,9.99999e-01
1.180579921e+00,6.34871e-01,9.99999e-01,6.34871e-01,9.99999e-01
1.186482820e+00,6.40576e-01,9.99971e-01,6.40594e-01,9.99999e-01
1.192415234e+00,6.18552e-01,9.57134e-01,6.46254e-01,9.99999e-01
1.198377311e+00,3.33405e-01,5.11474e-01,6.51851e-01,9.99999e-01
1.204369197e+00,3.81617e-32,5.80507e-32,6.57384e-01,9.99999e-01
1.210391043e+00,1.08265e-130,1.63332e-130,6.62854e-01,9.99999e-01
1.216442998e+00,4.53290e-113,6.78314e-113,6.68260e-01,9.99999e-01
1.222525213e+00,2.27103e-111,3.37147e-111,6.73601e-01,9.99999e-01
1.228637839e+00,7.05703e-86,1.03951e-85,6.78879e-01,9.99999e-01
1.234781029e+00,2.34274e-53,3.42458e-53,6.84093e-01,9.99999e-01
1.240954934e+00,2.42083e-35,3.51230e-35,6.89242e-01,9.99999e-01
1.247159708e+00,6.20728e-17,8.93998e-17,6.94328e-01,9.99999e-01
1.253395507e+00,1.63446e-11,2.33711e-11,6.99349e-01,9.99999e-01
1.259662485e+00,7.42370e-07,1.05404e-06,7.04306e-01,9.99999e-01
1.265960797e+00,3.86605e-04,5.45127e-04,7.09200e-01,9.99999e-01
1.272290601e+00,2.02527e-02,2.83639e-02,7.14030e-01,9.99999e-01
1.278652054e+00,1.86055e-02,2.58842e-02,7.18796e-01,9.99999e-01
1.285045314e+00,1.48212e-05,2.04854e-05,7.23499e-01,9.99999e-01
1.291470541e+00,2.48724e-15,3.41587e-15,7.28140e-01,9.99999e-01
1.297927893e+00,1.76225e-05,2.40509e-05,7.32717e-01,9.99999e-01
1.304417533e+00,1.02628e-03,1.39207e-03,7.37232e-01,9.99999e-01
1.310939621e+00,1.97001e-04,2.65612e-04,7.41684e-01,9.99999e-01
1.317494319e+00,4.94979e-45,6.63444e-45,7.46075e-01,9.99999e-01
1.324081790e+00,1.36614e-20,1.82054e-20,7.50405e-01,9.99999e-01
1.330702199e+00,2.84251e-17,3.76655e-17,7.54673e-01,9.99999e-01
1.337355710e+00,9.07506e-16,1.19585e-15,7.58880e-01,9.99999e-01
1.344042489e+00,4.93613e-16,6.46913e-16,7.63027e-01,9.99999e-01
1.350762701e+00,1.41912e-17,1.84994e-17,7.67115e-01,9.99999e-01
1.357516515e+00,1.12142e-10,1.45424e-10,7.71142e-01,9.99999e-01
1.364304097e+00,6.94750e-08,8.96323e-08,7.75111e-01,9.99999e-01
1.371125618e+00,2.04010e-04,2.61880e-04,7.79021e-01,9.99999e-01
1.377981246e+00,6.10849e-04,7.80265e-04,7.82873e-01,9.99999e-01
1.384871152e+00,1.19862e-02,1.52366e-02,7.86668e-01,9.99999e-01
1.391795508e+00,1.69616e-02,2.14593e-02,7.90405e-01,9.99999e-01
1.398754485e+00,6.96304e-02,8.76862e-02,7.94086e-01,9.99999e-01
1.405748258e+00,1.36292e-01,1.70854e-01,7.97710e-01,9.99999e-01
1.412776999e+00,2.59878e-01,3.24328e-01,8.01279e-01,9.99999e-01
1.419840884e+00,2.44436e-01,3.03725e-01,8.04794e-01,9.99999e-01
1.426940089e+00,8.40714e-03,1.04016e-02,8.08253e-01,9.99999e-01
1.434074789e+00,0.00000e+00,0.00000e+00,8.11659e-01,9.99999e-01
1.441245163e+00,0.00000e+00,0.00000e+00,8.15011e-01,9.99999e-01
1.448451389e+00,0.00000e+00,0.00000e+00,8.18311e-01,9.99999e-01
1.455693646e+00,0.00000e+00,0.00000e+00,8.21558e-01,9.99999e-01
1.462972114e+00,0.00000e+00,0.00000e+00,8.24754e-01,9.99999e-01
1.470286975e+00,9.34240e-217,1.12845e-216,8.27899e-01,9.99999e-01
1.477638409e+00,6.87100e-136,8.26841e-136,8.30993e-01,9.99999e-01
1.485026601e+00,2.84848e-75,3.41529e-75,8.34038e-01,9.99999e-01
1.492451734e+00,4.62277e-64,5.52280e-64,8.37033e-01,9.99999e-01
1.499913993e+00,2.74355e-27,3.26621e-27,8.39979e-01,9.99999e-01
1.507413563e+00,4.91137e-26,5.82691e-26,8.42877e-01,9.99999e-01
1.514950631e+00,1.25034e-27,1.47842e-27,8.45728e-01,9.99999e-01
1.522525384e+00,2.48867e-96,2.93292e-96,8.48532e-01,9.99999e-01
1.530138011e+00,2.14965e-231,2.52517e-231,8.51289e-01,9.99999e-01
1.537788701e+00,6.44507e-171,7.54691e-171,8.54001e-01,9.99999e-01
1.545477645e+00,2.45214e-35,2.86241e-35,8.56667e-01,9.99999e-01
1.553205033e+00,7.32320e-26,8.52239e-26,8.59289e-01,9.99999e-01
1.560971058e+00,4.72082e-26,5.47743e-26,8.61867e-01,9.99999e-01
1.568775913e+00,0.00000e+00,0.00000e+00,8.64401e-01,9.99999e-01
1.576619793e+00,0.00000e+00,0.00000e+00,8.66893e-01,9.99999e-01
1.584502892e+00,0.00000e+00,0.00000e+00,8.69342e-01,9.99999e-01
1.592425406e+00,0.00000e+00,0.00000e+00,8.71750e-01,9.99999e-01
1.600387533e+00,0.00000e+00,0.00000e+00,8.74116e-01,9.99999e-01
1.608389471e+00,0.00000e+00,0.00000e+00,8.76442e-01,9.99999e-01
1.616431418e+00,0.00000e+00,0.00000e+00,8.78728e-01,9.99999e-01
1.624513575e+00,0.00000e+00,0.00000e+00,8.80975e-01,9.99999e-01
1.632636143e+00,0.00000e+00,0.00000e+00,8.83183e-01,9.99999e-01
1.640799324e+00,9.54254e-201,1.07782e-200,8.85353e-01,9.99999e-01
1.649003321e+00,9.55936e-201,1.07713e-200,8.87485e-01,9.99999e-01
1.657248337e+00,6.48503e-155,7.28998e-155,8.89580e-01,9.99999e-01
1.665534579e+00,5.88393e-156,6.59901e-156,8.91638e-01,9.99999e-01
1.673862252e+00,4.34580e-99,4.86292e-99,8.93660e-01,9.99999e-01
1.682231563e+00,2.60469e-68,2.90816e-68,8.95647e-01,9.99999e-01
1.690642721e+00,1.62249e-37,1.80759e-37,8.97599e-01,9.99999e-01
1.699095934e+00,9.16442e-24,1.01882e-23,8.99516e-01,9.99999e-01
1.707591414e+00,6.63164e-12,7.35704e-12,9.01400e-01,9.99999e-01
1.716129371e+00,2.60702e-07,2.88627e-07,9.03250e-01,9.99999e-01
1.724710018e+00,1.44918e-04,1.60119e-04,9.05067e-01,9.99999e-01
1.733333568e+00,2.46494e-03,2.71813e-03,9.06852e-01,9.99999e-01
1.742000236e+00,2.91472e-02,3.20791e-02,9.08605e-01,9.99999e-01
1.750710237e+00,5.00947e-05,5.50293e-05,9.10327e-01,9.99999e-01
1.759463788e+00,1.38982e-94,1.52390e-94,9.12018e-01,9.99999e-01
1.768261107e+00,5.14478e-99,5.63084e-99,9.13679e-01,9.99999e-01
1.777102413e+00,1.51693e-96,1.65728e-96,9.15309e-01,9.99999e-01
1.785987925e+00,2.94835e-90,3.21552e-90,9.16911e-01,9.99999e-01
1.794917864e+00,3.72876e-86,4.05970e-86,9.18483e-01,9.99999e-01
1.803892454e+00,9.41114e-83,1.02292e-82,9.20027e-01,9.99999e-01
1.812911916e+00,1.68805e-79,1.83177e-79,9.21543e-01,9.99999e-01
1.821976476e+00,1.44693e-79,1.56758e-79,9.23031e-01,9.99999e-01
1.831086358e+00,1.09405e-63,1.18340e-63,9.24493e-01,9.99999e-01
1.840241790e+00,3.60436e-54,3.89270e-54,9.25927e-01,9.99999e-01
1.849442999e+00,1.48832e-37,1.60494e-37,9.27336e-01,9.99999e-01
1.858690214e+00,2.21043e-35,2.38008e-35,9.28719e-01,9.99999e-01
1.867983665e+00,6.29210e-36,6.76513e-36,9.30076e-01,9.99999e-01
1.877323583e+00,1.08465e-181,1.16453e-181,9.31409e-01,9.99999e-01
