#,Wave/freq,Total,CO2,Rayleigh,CIA
4.000000000e-01,9.07312e-08,9.99999e-01,9.07312e-08,9.99999e-01
4.020000000e-01,1.25025e-07,9.99999e-01,1.25025e-07,9.99999e-01
4.040100000e-01,1.71139e-07,9.99999e-01,1.71139e-07,9.99999e-01
4.060300500e-01,2.32813e-07,9.99999e-01,2.32813e-07,9.99999e-01
4.080602003e-01,3.14793e-07,9.99999e-01,3.14793e-07,9.99999e-01
4.101005013e-01,4.23112e-07,9.99999e-01,4.23112e-07,9.99999e-01
4.121510038e-01,5.65391e-07,9.99999e-01,5.65391e-07,9.99999e-01
4.142117588e-01,7.51199e-07,9.99999e-01,7.51199e-07,9.99999e-01
4.162828176e-01,9.92486e-07,9.99999e-01,9.92486e-07,9.99999e-01
4.183642317e-01,1.30408e-06,9.99999e-01,1.30408e-06,9.99999e-01
4.204560528e-01,1.70428e-06,9.99999e-01,1.70428e-06,9.99999e-01
4.225583331e-01,2.21555e-06,9.99999e-01,2.21555e-06,9.99999e-01
4.246711247e-01,2.86532e-06,9.99999e-01,2.86532e-06,9.99999e-01
4.267944804e-01,3.68687e-06,9.99999e-01,3.68687e-06,9.99999e-01
4.289284528e-01,4.72041e-06,9.99999e-01,4.72041e-06,9.99999e-01
4.310730950e-01,6.01425e-06,9.99999e-01,6.01425e-06,9.99999e-01
4.332284605e-01,7.62616e-06,9.99999e-01,7.62616e-06,9.99999e-01
4.353946028e-01,9.62483e-06,9.99999e-01,9.62483e-06,9.99999e-01
4.375715758e-01,1.20916e-05,9.99999e-01,1.20916e-05,9.99999e-01
4.397594337e-01,1.51223e-05,9.99999e-01,1.51223e-05,9.99999e-01
4.419582309e-01,1.88292e-05,9.99999e-01,1.88292e-05,9.99999e-01
4.441680220e-01,2.33434e-05,9.99999e-01,2.33434e-05,9.99999e-01
4.463888621e-01,2.88174e-05,9.99999e-01,2.88174e-05,9.99999e-01
4.486208064e-01,3.54273e-05,9.99999e-01,3.54273e-05,9.99999e-01
4.508639105e-01,4.33760e-05,9.99999e-01,4.33760e-05,9.99999e-01
4.531182300e-01,5.28962e-05,9.99999e-01,5.28962e-05,9.99999e-01
4.553838212e-01,6.42537e-05,9.99999e-01,6.42537e-05,9.99999e-01
4.576607403e-01,7.77503e-05,9.99999e-01,7.77503e-05,9.99999e-01
4.599490440e-01,9.37284e-05,9.99999e-01,9.37284e-05,9.99999e-01
4.622487892e-01,1.12574e-04,9.99999e-01,1.12574e-04,9.99999e-01
4.645600332e-01,1.34719e-04,9.99999e-01,1.34719e-04,9.99999e-01
4.668828333e-01,1.60651e-04,9.99999e-01,1.60651e-04,9.99999e-01
4.692172475e-01,1.90909e-04,9.99999e-01,1.90909e-04,9.99999e-01
4.715633337e-01,2.26094e-04,9.99999e-01,2.26094e-04,9.99999e-01
4.739211504e-01,2.66871e-04,9.99999e-01,2.66871e-04,9.99999e-01
4.762907561e-01,3.13972e-04,9.99999e-01,3.13972e-04,9.99999e-01
4.786722099e-01,3.68202e-04,9.99999e-01,3.68202e-04,9.99999e-01
4.810655710e-01,4.30442e-04,9.99999e-01,4.30442e-04,9.99999e-01
4.834708988e-01,5.01652e-04,9.99999e-01,5.01652e-04,9.99999e-01
4.858882533e-01,5.82879e-04,9.99999e-01,5.82879e-04,9.99999e-01
4.883176946e-01,6.75252e-04,9.99999e-01,6.75252e-04,9.99999e-01
4.907592831e-01,7.79995e-04,9.99999e-01,7.79995e-04,9.99999e-01
4.932130795e-01,8.98423e-04,9.99999e-01,8.98423e-04,9.99999e-01
4.956791449e-01,1.03195e-03,9.99999e-01,1.03195e-03,9.99999e-01
4.981575406e-01,1.18207e-03,9.99999e-01,1.18207e-03,9.99999e-01
5.006483283e-01,1.35041e-03,9.99999e-01,1.35041e-03,9.99999e-01
5.031515699e-01,1.53868e-03,9.99999e-01,1.53868e-03,9.99999e-01
5.056673278e-01,1.74867e-03,9.99999e-01,1.74867e-03,9.99999e-01
5.081956644e-01,1.98231e-03,9.99999e-01,1.98231e-03,9.99999e-01
5.107366428e-01,2.24161e-03,9.99999e-01,2.24161e-03,9.99999e-01
5.132903260e-01,2.52867e-03,9.99999e-01,2.52867e-03,9.99999e-01
5.158567776e-01,2.84572e-03,9.99999e-01,2.84572e-03,9.99999e-01
5.184360615e-01,3.19505e-03,9.99999e-01,3.19505e-03,9.99999e-01
5.210282418e-01,3.57907e-03,9.99999e-01,3.57907e-03,9.99999e-01
5.236333830e-01,4.00027e-03,9.99999e-01,4.00027e-03,9.99999e-01
5.262515499e-01,4.46123e-03,9.99999e-01,4.46123e-03,9.99999e-01
5.288828077e-01,4.96459e-03,9.99999e-01,4.96459e-03,9.99999e-01
5.315272217e-01,5.51309e-03,9.99999e-01,5.51309e-03,9.99999e-01
5.341848578e-01,6.10954e-03,9.99999e-01,6.10954e-03,9.99999e-01
5.368557821e-01,6.75678e-03,9.99999e-01,6.75678e-03,9.99999e-01
5.395400610e-01,7.45775e-03,9.99999e-01,7.45775e-03,9.99999e-01
5.422377613e-01,8.21541e-03,9.99999e-01,8.21541e-03,9.99999e-01
5.449489501e-01,9.03276e-03,9.99999e-01,9.03276e-03,9.99999e-01
5.476736949e-01,9.91284e-03,9.99999e-01,9.91284e-03,9.99999e-01
5.504120634e-01,1.08587e-02,9.99999e-01,1.08587e-02,9.99999e-01
5.531641237e-01,1.18734e-02,9.99999e-01,1.18734e-02,9.99999e-01
5.559299443e-01,1.29601e-02,9.99999e-01,1.29601e-02,9.99999e-01
5.587095940e-01,1.41218e-02,9.99999e-01,1.41218e-02,9.99999e-01
5.615031420e-01,1.53615e-02,9.99999e-01,1.53615e-02,9.99999e-01
5.643106577e-01,1.66823e-02,9.99999e-01,1.66823e-02,9.99999e-01
5.671322110e-01,1.80872e-02,9.99999e-01,1.80872e-02,9.99999e-01
5.699678720e-01,1.95791e-02,9.99999e-01,1.95791e-02,9.99999e-01
5.728177114e-01,2.11609e-02,9.99999e-01,2.11609e-02,9.99999e-01
5.756818000e-01,2.28354e-02,9.99999e-01,2.28354e-02,9.99999e-01
5.785602090e-01,2.46053e-02,9.99999e-01,2.46053e-02,9.99999e-01
5.814530100e-01,2.64735e-02,9.99999e-01,2.64735e-02,9.99999e-01
5.843602750e-01,2.84423e-02,9.99999e-01,2.84423e-02,9.99999e-01
5.872820764e-01,3.05142e-02,9.99999e-01,3.05142e-02,9.99999e-01
5.902184868e-01,3.26917e-02,9.99999e-01,3.26917e-02,9.99999e-01
5.931695792e-01,3.49768e-02,9.99999e-01,3.49768e-02,9.99999e-01
5.961354271e-01,3.73718e-02,9.99999e-01,3.73718e-02,9.99999e-01
5.991161043e-01,3.98786e-02,9.99999e-01,3.98786e-02,9.99999e-01
6.021116848e-01,4.24990e-02,9.99999e-01,4.24990e-02,9.99999e-01
6.051222432e-01,4.52347e-02,9.99999e-01,4.52347e-02,9.99999e-01
6.081478544e-01,4.80872e-02,9.99999e-01,4.80872e-02,9.99999e-01
6.111885937e-01,5.10579e-02,9.99999e-01,5.10579e-02,9.99999e-01
6.142445367e-01,5.41479e-02,9.99999e-01,5.41479e-02,9.99999e-01
6.173157594e-01,5.73584e-02,9.99999e-01,5.73584e-02,9.99999e-01
6.204023382e-01,6.06900e-02,9.99999e-01,6.06900e-02,9.99999e-01
6.235043498e-01,6.41437e-02,9.99999e-01,6.41437e-02,9.99999e-01
6.266218716e-01,6.77198e-02,9.99999e-01,6.77198e-02,9.99999e-01
6.297549810e-01,7.14187e-02,9.99999e-01,7.14187e-02,9.99999e-01
6.329037559e-01,7.52405e-02,9.99999e-01,7.52405e-02,9.99999e-01
6.360682746e-01,7.91853e-02,9.99999e-01,7.91853e-02,9.99999e-01
6.392486160e-01,8.32529e-02,9.99999e-01,8.32529e-02,9.99999e-01
6.424448591e-01,8.74428e-02,9.99999e-01,8.74428e-02,9.99999e-01
6.456570834e-01,9.17545e-02,9.99999e-01,9.17545e-02,9.99999e-01
6.488853688e-01,9.61874e-02,9.99999e-01,9.61874e-02,9.99999e-01
6.521297956e-01,1.00741e-01,9.99999e-01,1.00741e-01,9.99999e-01
6.553904446e-01,1.05413e-01,9.99999e-01,1.05413e-01,9.99999e-01
6.586673968e-01,1.10203e-01,9.99999e-01,1.10203e-01,9.99999e-01
6.619607338e-01,1.15110e-01,9.99999e-01,1.15110e-01,9.99999e-01
6.652705375e-01,1.20132e-01,9.99999e-01,1.20132e-01,9.99999e-01
6.685968902e-01,1.25267e-01,9.99999e-01,1.25267e-01,9.99999e-01
6.719398746e-01,1.30514e-01,9.99999e-01,1.30514e-01,9.99999e-01
6.752995740e-01,1.35870e-01,9.99999e-01,1.35870e-01,9.99999e-01
6.786760719e-01,1.41334e-01,9.99999e-01,1.41334e-01,9.99999e-01
6.820694522e-01,1.46904e-01,9.99999e-01,1.46904e-01,9.99999e-01
6.854797995e-01,1.52576e-01,9.99999e-01,1.52576e-01,9.99999e-01
6.889071985e-01,1.58348e-01,9.99999e-01,1.58348e-01,9.99999e-01
6.923517345e-01,1.64219e-01,9.99999e-01,1.64219e-01,9.99999e-01
6.958134932e-01,1.70185e-01,9.99999e-01,1.70185e-01,9.99999e-01
6.992925606e-01,1.76243e-01,9.99999e-01,1.76243e-01,9.99999e-01
7.027890234e-01,1.82391e-01,9.99999e-01,1.82391e-01,9.99999e-01
7.063029686e-01,1.88625e-01,9.99999e-01,1.88625e-01,9.99999e-01
7.098344834e-01,1.94944e-01,9.99999e-01,1.94944e-01,9.99999e-01
7.133836558e-01,2.01342e-01,9.99999e-01,2.01342e-01,9.99999e-01
7.169505741e-01,2.07818e-01,9.99999e-01,2.07818e-01,9.99999e-01
7.205353270e-01,2.14369e-01,9.99999e-01,2.14369e-01,9.99999e-01
7.241380036e-01,2.20990e-01,9.99999e-01,2.20990e-01,9.99999e-01
7.277586936e-01,2.27679e-01,9.99999e-01,2.27679e-01,9.99999e-01
7.313974871e-01,2.34432e-01,9.99999e-01,2.34432e-01,9.99999e-01
7.350544745e-01,2.41246e-01,9.99999e-01,2.41246e-01,9.99999e-01
7.387297469e-01,2.48118e-01,9.99999e-01,2.48118e-01,9.99999e-01
7.424233956e-01,2.55044e-01,9.99999e-01,2.55044e-01,9.99999e-01
7.461355126e-01,2.62021e-01,9.99999e-01,2.62021e-01,9.99999e-01
7.498661902e-01,2.69046e-01,9.99999e-01,2.69046e-01,9.99999e-01
7.536155211e-01,2.76114e-01,9.99999e-01,2.76114e-01,9.99999e-01
7.573835987e-01,2.83223e-01,9.99999e-01,2.83223e-01,9.99999e-01
7.611705167e-01,2.90369e-01,9.99999e-01,2.90369e-01,9.99999e-01
7.649763693e-01,2.97549e-01,9.99999e-01,2.97549e-01,9.99999e-01
7.688012511e-01,3.04759e-01,9.99999e-01,3.04759e-01,9.99999e-01
7.726452574e-01,3.11996e-01,9.99999e-01,3.11996e-01,9.99999e-01
7.765084837e-01,3.19258e-01,9.99999e-01,3.19258e-01,9.99999e-01
7.803910261e-01,3.09538e-01,9.47931e-01,3.26540e-01,9.99999e-01
7.842929812e-01,2.64932e-01,7.93591e-01,3.33839e-01,9.99999e-01
7.882144461e-01,2.66089e-01,7.79969e-01,3.41152e-01,9.99999e-01
7.921555184e-01,3.00749e-01,8.63037e-01,3.48477e-01,9.99999e-01
7.961162960e-01,3.22574e-01,9.06591e-01,3.55809e-01,9.99999e-01
8.000968774e-01,3.44299e-01,9.48099e-01,3.63146e-01,9.99999e-01
8.040973618e-01,3.60438e-01,9.72879e-01,3.70485e-01,9.99999e-01
8.081178486e-01,3.73063e-01,9.87400e-01,3.77823e-01,9.99999e-01
8.121584379e-01,3.83670e-01,9.96137e-01,3.85157e-01,9.99999e-01
8.162192301e-01,3.92150e-01,9.99145e-01,3.92485e-01,9.99999e-01
8.203003262e-01,3.99798e-01,9.99988e-01,3.99803e-01,9.99999e-01
8.244018279e-01,4.07109e-01,9.99999e-01,4.07109e-01,9.99999e-01
8.285238370e-01,4.14400e-01,9.99999e-01,4.14400e-01,9.99999e-01
8.326664562e-01,4.21674e-01,9.99999e-01,4.21674e-01,9.99999e-01
8.368297885e-01,4.28928e-01,9.99999e-01,4.28928e-01,9.99999e-01
8.410139374e-01,4.36160e-01,9.99999e-01,4.36160e-01,9.99999e-01
8.452190071e-01,4.43367e-01,9.99999e-01,4.43367e-01,9.99999e-01
8.494451021e-01,4.50548e-01,9.99999e-01,4.50548e-01,9.99999e-01
8.536923276e-01,4.57699e-01,9.99999e-01,4.57699e-01,9.99999e-01
8.579607893e-01,4.64820e-01,9.99999e-01,4.64820e-01,9.99999e-01
8.622505932e-01,4.71907e-01,9.99999e-01,4.71907e-01,9.99999e-01
8.665618462e-01,4.31392e-01,9.00684e-01,4.78959e-01,9.99999e-01
8.708946554e-01,2.70936e-01,5.57509e-01,4.85975e-01,9.99999e-01
8.752491287e-01,3.07015e-01,6.22809e-01,4.92951e-01,9.99999e-01
8.796253743e-01,3.84645e-01,7.69464e-01,4.99887e-01,9.99999e-01
8.840235012e-01,4.42069e-01,8.72309e-01,5.06780e-01,9.99999e-01
8.884436187e-01,4.86780e-01,9.47725e-01,5.13630e-01,9.99999e-01
8.928858368e-01,5.09210e-01,9.78433e-01,5.20434e-01,9.99999e-01
8.973502660e-01,5.24424e-01,9.94751e-01,5.27191e-01,9.99999e-01
9.018370173e-01,5.33592e-01,9.99422e-01,5.33900e-01,9.99999e-01
9.063462024e-01,5.32317e-01,9.84752e-01,5.40559e-01,9.99999e-01
9.108779334e-01,5.28619e-01,9.66101e-01,5.47167e-01,9.99999e-01
9.154323231e-01,5.49314e-01,9.92036e-01,5.53723e-01,9.99999e-01
9.200094847e-01,4.99003e-01,8.90715e-01,5.60226e-01,9.99999e-01
9.246095321e-01,4.78683e-01,8.44722e-01,5.66675e-01,9.99999e-01
9.292325798e-01,5.01643e-01,8.75362e-01,5.73068e-01,9.99999e-01
9.338787427e-01,5.09959e-01,8.80142e-01,5.79405e-01,9.99999e-01
9.385481364e-01,5.33093e-01,9.10204e-01,5.85685e-01,9.99999e-01
9.432408771e-01,5.58822e-01,9.44104e-01,5.91906e-01,9.99999e-01
9.479570815e-01,5.80638e-01,9.70852e-01,5.98069e-01,9.99999e-01
9.526968669e-01,5.95641e-01,9.85878e-01,6.04173e-01,9.99999e-01
9.574603512e-01,6.06520e-01,9.93942e-01,6.10216e-01,9.99999e-01
9.622476530e-01,6.15035e-01,9.98109e-01,6.16199e-01,9.99999e-01
9.670588912e-01,6.21769e-01,9.99434e-01,6.22121e-01,9.99999e-01
9.718941857e-01,6.27956e-01,9.99960e-01,6.27980e-01,9.99999e-01
9.767536566e-01,6.33778e-01,9.99999e-01,6.33778e-01,9.99999e-01
9.816374249e-01,6.39513e-01,9.99999e-01,6.39513e-01,9.99999e-01
9.865456120e-01,6.45185e-01,9.99999e-01,6.45185e-01,9.99999e-01
9.914783401e-01,6.50794e-01,9.99999e-01,6.50794e-01,9.99999e-01
9.964357318e-01,6.56339e-01,9.99999e-01,6.56339e-01,9.99999e-01
1.001417910e+00,6.61821e-01,9.99999e-01,6.61821e-01,9.99999e-01
1.006425000e+00,6.67239e-01,9.99999e-01,6.67239e-01,9.99999e-01
1.011457125e+00,6.72593e-01,9.99999e-01,6.72593e-01,9.99999e-01
1.016514411e+00,6.77883e-01,9.99999e-01,6.77883e-01,9.99999e-01
1.021596983e+00,6.83045e-01,9.99906e-01,6.83109e-01,9.99999e-01
1.026704968e+00,6.84127e-01,9.93980e-01,6.88270e-01,9.99999e-01
1.031838492e+00,6.48802e-01,9.35724e-01,6.93368e-01,9.99999e-01
1.036997685e+00,6.91986e-02,9.90813e-02,6.98401e-01,9.99999e-01
1.042182673e+00,2.97351e-02,4.22752e-02,7.03371e-01,9.99999e-01
1.047393587e+00,4.49751e-02,6.34993e-02,7.08276e-01,9.99999e-01
1.052630555e+00,2.50397e-04,3.51130e-04,7.13118e-01,9.99999e-01
1.057893707e+00,8.12337e-04,1.13155e-03,7.17897e-01,9.99999e-01
1.063183176e+00,4.63338e-03,6.41199e-03,7.22612e-01,9.99999e-01
1.068499092e+00,1.93704e-02,2.66345e-02,7.27264e-01,9.99999e-01
1.073841587e+00,7.36618e-02,1.00651e-01,7.31853e-01,9.99999e-01
1.079210795e+00,1.72124e-01,2.33743e-01,7.36380e-01,9.99999e-01
1.084606849e+00,3.30858e-01,4.46596e-01,7.40844e-01,9.99999e-01
1.090029883e+00,4.89566e-01,6.56918e-01,7.45247e-01,9.99999e-01
1.095480033e+00,6.09479e-01,8.13084e-01,7.49588e-01,9.99999e-01
1.100957433e+00,6.82202e-01,9.04936e-01,7.53868e-01,9.99999e-01
1.106462220e+00,7.27453e-01,9.59589e-01,7.58087e-01,9.99999e-01
1.111994531e+00,7.50676e-01,9.84821e-01,7.62245e-01,9.99999e-01
1.117554504e+00,7.63505e-01,9.96295e-01,7.66344e-01,9.99999e-01
1.123142276e+00,7.70197e-01,9.99758e-01,7.70383e-01,9.99999e-01
1.128757988e+00,7.74363e-01,9.99999e-01,7.74363e-01,9.99999e-01
1.134401778e+00,7.78284e-01,9.99999e-01,7.78284e-01,9.99999e-01
1.140073787e+00,7.82147e-01,9.99999e-01,7.82147e-01,9.99999e-01
1.145774156e+00,7.85952e-01,9.99999e-01,7.85952e-01,9.99999e-01
1.151503026e+00,7.89700e-01,9.99999e-01,7.89700e-01,9.99999e-01
1.157260541e+00,7.93392e-01,9.99999e-01,7.93392e-01,9.99999e-01
1.163046844e+00,7.97027e-01,9.99999e-01,7.97027e-01,9.99999e-01
1.168862078e+00,8.00607e-01,9.99999e-01,8.00607e-01,9.99999e-01
1.174706389e+00,8.04131e-01,9.99999e-01,8.04131e-01,9.99999e-01
1.180579921e+00,8.07601e-01,9.99999e-01,8.07601e-01,9.99999e-01
1.186482820e+00,8.11005e-01,9.99985e-01,8.11017e-01,9.99999e-01
1.192415234e+00,7.97077e-01,9.78753e-01,8.14379e-01,9.99999e-01
1.198377311e+00,4.47269e-01,5.46991e-01,8.17689e-01,9.99999e-01
1.204369197e+00,2.58865e-16,3.15325e-16,8.20946e-01,9.99999e-01
1.210391043e+00,1.13769e-62,1.38044e-62,8.24152e-01,9.99999e-01
1.216442998e+00,2.21331e-54,2.67532e-54,8.27306e-01,9.99999e-01
1.222525213e+00,1.39641e-53,1.68159e-53,8.30410e-01,9.99999e-01
1.228637839e+00,1.76998e-41,2.12364e-41,8.33464e-01,9.99999e-01
1.234781029e+00,2.72383e-26,3.25634e-26,8.36468e-01,9.99999e-01
1.240954934e+00,1.28040e-17,1.52533e-17,8.39424e-01,9.99999e-01
1.247159708e+00,3.72862e-09,4.42654e-09,8.42331e-01,9.99999e-01
1.253395507e+00,4.50462e-06,5.32970e-06,8.45191e-01,9.99999e-01
1.259662485e+00,8.01622e-04,9.45304e-04,8.48003e-01,9.99999e-01
1.265960797e+00,1.61710e-02,1.90075e-02,8.50769e-01,9.99999e-01
1.272290601e+00,1.49816e-01,1.75533e-01,8.53490e-01,9.99999e-01
1.278652054e+00,1.25751e-01,1.46877e-01,8.56165e-01,9.99999e-01
1.285045314e+00,1.04083e-03,1.21197e-03,8.58795e-01,9.99999e-01
1.291470541e+00,6.20226e-08,7.20036e-08,8.61381e-01,9.99999e-01
1.297927893e+00,1.49123e-03,1.72611e-03,8.63923e-01,9.99999e-01
1.304417533e+00,3.57196e-02,4.12264e-02,8.66423e-01,9.99999e-01
1.310939621e+00,5.74645e-03,6.61361e-03,8.68880e-01,9.99999e-01
1.317494319e+00,4.54125e-22,5.21205e-22,8.71296e-01,9.99999e-01
1.324081790e+00,7.05935e-11,8.08009e-11,8.73670e-01,9.99999e-01
1.330702199e+00,9.78751e-09,1.11729e-08,8.76004e-01,9.99999e-01
1.337355710e+00,2.79132e-08,3.17810e-08,8.78298e-01,9.99999e-01
1.344042489e+00,9.95313e-09,1.13033e-08,8.80552e-01,9.99999e-01
1.350762701e+00,5.66268e-09,6.41469e-09,8.82767e-01,9.99999e-01
1.357516515e+00,7.17875e-06,8.11208e-06,8.84944e-01,9.99999e-01
1.364304097e+00,3.13084e-04,3.52936e-04,8.87083e-01,9.99999e-01
1.371125618e+00,1.48485e-02,1.66990e-02,8.89185e-01,9.99999e-01
1.377981246e+00,2.85306e-02,3.20119e-02,8.91250e-01,9.99999e-01
1.384871152e+00,1.20577e-01,1.34982e-01,8.93279e-01,9.99999e-01
1.391795508e+00,1.41030e-01,1.57527e-01,8.95273e-01,9.99999e-01
1.398754485e+00,2.84573e-01,3.17168e-01,8.97231e-01,9.99999e-01
1.405748258e+00,3.87710e-01,4.31193e-01,8.99155e-01,9.99999e-01
1.412776999e+00,5.29051e-01,5.87152e-01,9.01045e-01,9.99999e-01
1.419840884e+00,4.69615e-01,5.20117e-01,9.02902e-01,9.99999e-01
1.426940089e+00,3.01015e-02,3.32714e-02,9.04725e-01,9.99999e-01
1.434074789e+00,0.00000e+00,0.00000e+00,9.06516e-01,9.99999e-01
1.441245163e+00,0.00000e+00,0.00000e+00,9.08275e-01,9.99999e-01
1.448451389e+00,0.00000e+00,0.00000e+00,9.10003e-01,9.99999e-01
1.455693646e+00,0.00000e+00,0.00000e+00,9.11700e-01,9.99999e-01
1.462972114e+00,1.70073e-247,1.86204e-247,9.13366e-01,9.99999e-01
1.470286975e+00,3.66131e-103,4.00141e-103,9.15002e-01,9.99999e-01
1.477638409e+00,4.05686e-65,4.42594e-65,9.16609e-01,9.99999e-01
1.485026601e+00,1.37972e-36,1.50265e-36,9.18187e-01,9.99999e-01
1.492451734e+00,3.52268e-31,3.83009e-31,9.19736e-01,9.99999e-01
1.499913993e+00,5.53322e-14,6.00616e-14,9.21257e-01,9.99999e-01
1.507413563e+00,9.06759e-13,9.82669e-13,9.22751e-01,9.99999e-01
1.514950631e+00,3.44573e-14,3.72826e-14,9.24217e-01,9.99999e-01
1.522525384e+00,1.65569e-46,1.78866e-46,9.25657e-01,9.99999e-01
1.530138011e+00,4.90204e-110,5.28766e-110,9.27071e-01,9.99999e-01
1.537788701e+00,1.36992e-81,1.47547e-81,9.28459e-01,9.99999e-01
1.545477645e+00,8.16852e-18,8.78504e-18,9.29821e-01,9.99999e-01
1.553205033e+00,8.13358e-13,8.73490e-13,9.31158e-01,9.99999e-01
1.560971058e+00,2.74114e-13,2.93965e-13,9.32471e-01,9.99999e-01
1.568775913e+00,9.12901e-278,9.77660e-278,9.33760e-01,9.99999e-01
1.576619793e+00,0.00000e+00,0.00000e+00,9.35025e-01,9.99999e-01
1.584502892e+00,0.00000e+00,0.00000e+00,9.36266e-01,9.99999e-01
1.592425406e+00,1.34137e-247,1.43081e-247,9.37485e-01,9.99999e-01
1.600387533e+00,0.00000e+00,0.00000e+00,9.38681e-01,9.99999e-01
1.608389471e+00,0.00000e+00,0.00000e+00,9.39855e-01,9.99999e-01
1.616431418e+00,0.00000e+00,0.00000e+00,9.41007e-01,9.99999e-01
1.624513575e+00,1.68680e-314,1.79039e-314,9.42138e-01,9.99999e-01
1.632636143e+00,1.34966e-233,1.43086e-233,9.43248e-01,9.99999e-01
1.640799324e+00,1.25118e-95,1.32492e-95,9.44337e-01,9.99999e-01
1.649003321e+00,1.25294e-95,1.32529e-95,9.45406e-01,9.99999e-01
1.657248337e+00,4.62501e-74,4.88666e-74,9.46455e-01,9.99999e-01
1.665534579e+00,1.49104e-74,1.57368e-74,9.47484e-01,9.99999e-01
1.673862252e+00,8.84468e-48,9.32496e-48,9.48494e-01,9.99999e-01
1.682231563e+00,2.59703e-33,2.73520e-33,9.49486e-01,9.99999e-01
1.690642721e+00,7.85320e-19,8.26253e-19,9.50458e-01,9.99999e-01
1.699095934e+00,3.86965e-12,4.06726e-12,9.51413e-01,9.99999e-01
1.707591414e+00,1.33827e-06,1.40523e-06,9.52349e-01,9.99999e-01
1.716129371e+00,4.24271e-04,4.45070e-04,9.53268e-01,9.99999e-01
1.724710018e+00,1.23657e-02,1.29597e-02,9.54169e-01,9.99999e-01
1.733333568e+00,5.44976e-02,5.70623e-02,9.55054e-01,9.99999e-01
1.742000236e+00,1.75857e-01,1.83965e-01,9.55922e-01,9.99999e-01
1.750710237e+00,2.08709e-03,2.18139e-03,9.56773e-01,9.99999e-01
1.759463788e+00,1.22656e-45,1.28086e-45,9.57609e-01,9.99999e-01
1.768261107e+00,9.01878e-48,9.40995e-48,9.58429e-01,9.99999e-01
1.777102413e+00,2.26595e-46,2.36225e-46,9.59233e-01,9.99999e-01
1.785987925e+00,1.22116e-43,1.27202e-43,9.60022e-01,9.99999e-01
1.794917864e+00,1.11157e-41,1.15693e-41,9.60796e-01,9.99999e-01
1.803892454e+00,4.01915e-40,4.17985e-40,9.61555e-01,9.99999e-01
1.812911916e+00,1.53839e-38,1.59865e-38,9.62300e-01,9.99999e-01
1.821976476e+00,1.27510e-38,1.32405e-38,9.63030e-01,9.99999e-01
1.831086358e+00,3.75660e-31,3.89791e-31,9.63747e-01,9.99999e-01
1.840241790e+00,1.54197e-26,1.59881e-26,9.64450e-01,9.99999e-01
1.849442999e+00,1.62496e-18,1.68365e-18,9.65140e-01,9.99999e-01
1.858690214e+00,2.55939e-17,2.64997e-17,9.65817e-01,9.99999e-01
1.867983665e+00,4.74889e-18,4.91358e-18,9.66481e-01,9.99999e-01
1.877323583e+00,1.17484e-86,1.21477e-86,9.67132e-01,9.99999e-01
