#,Wave/freq,Total,CO2,Rayleigh,CIA
4.000000000e-01,4.57023e-03,9.99999e-01,4.57023e-03,9.99999e-01
4.020000000e-01,5.08401e-03,9.99999e-01,5.08401e-03,9.99999e-01
4.040100000e-01,5.64306e-03,9.99999e-01,5.64306e-03,9.99999e-01
4.060300500e-01,6.25069e-03,9.99999e-01,6.25069e-03,9.99999e-01
4.080602003e-01,6.90977e-03,9.99999e-01,6.90977e-03,9.99999e-01
4.101005013e-01,7.62324e-03,9.99999e-01,7.62324e-03,9.99999e-01
4.121510038e-01,8.39407e-03,9.99999e-01,8.39407e-03,9.99999e-01
4.142117588e-01,9.22528e-03,9.99999e-01,9.22528e-03,9.99999e-01
4.162828176e-01,1.01199e-02,9.99999e-01,1.01199e-02,9.99999e-01
4.183642317e-01,1.10810e-02,9.99999e-01,1.10810e-02,9.99999e-01
4.204560528e-01,1.21116e-02,9.99999e-01,1.21116e-02,9.99999e-01
4.225583331e-01,1.32149e-02,9.99999e-01,1.32149e-02,9.99999e-01
4.246711247e-01,1.43939e-02,9.99999e-01,1.43939e-02,9.99999e-01
4.267944804e-01,1.56516e-02,9.99999e-01,1.56516e-02,9.99999e-01
4.289284528e-01,1.69911e-02,9.99999e-01,1.69911e-02,9.99999e-01
4.310730950e-01,1.84153e-02,9.99999e-01,1.84153e-02,9.99999e-01
4.332284605e-01,1.99272e-02,9.99999e-01,1.99272e-02,9.99999e-01
4.353946028e-01,2.15296e-02,9.99999e-01,2.15296e-02,9.99999e-01
4.375715758e-01,2.32253e-02,9.99999e-01,2.32253e-02,9.99999e-01
4.397594337e-01,2.50172e-02,9.99999e-01,2.50172e-02,9.99999e-01
4.419582309e-01,2.69077e-02,9.99999e-01,2.69077e-02,9.99999e-01
4.441680220e-01,2.88995e-02,9.99999e-01,2.88995e-02,9.99999e-01
4.463888621e-01,3.09950e-02,9.99999e-01,3.09950e-02,9.99999e-01
4.486208064e-01,3.31965e-02,9.99999e-01,3.31965e-02,9.99999e-01
4.508639105e-01,3.55063e-02,9.99999e-01,3.55063e-02,9.99999e-01
4.531182300e-01,3.79263e-02,9.99999e-01,3.79263e-02,9.99999e-01
4.553838212e-01,4.04585e-02,9.99999e-01,4.04585e-02,9.99999e-01
4.576607403e-01,4.31047e-02,9.99999e-01,4.31047e-02,9.99999e-01
4.599490440e-01,4.58665e-02,9.99999e-01,4.58665e-02,9.99999e-01
4.622487892e-01,4.87455e-02,9.99999e-01,4.87455e-02,9.99999e-01
4.645600332e-01,5.17430e-02,9.99999e-01,5.17430e-02,9.99999e-01
4.668828333e-01,5.48600e-02,9.99999e-01,5.48600e-02,9.99999e-01
4.692172475e-01,5.80977e-02,9.99999e-01,5.80977e-02,9.99999e-01
4.715633337e-01,6.14568e-02,9.99999e-01,6.14568e-02,9.99999e-01
4.739211504e-01,6.49379e-02,9.99999e-01,6.49379e-02,9.99999e-01
4.762907561e-01,6.85416e-02,9.99999e-01,6.85416e-02,9.99999e-01
4.786722099e-01,7.22682e-02,9.99999e-01,7.22682e-02,9.99999e-01
4.810655710e-01,7.61177e-02,9.99999e-01,7.61177e-02,9.99999e-01
4.834708988e-01,8.00902e-02,9.99999e-01,8.00902e-02,9.99999e-01
4.858882533e-01,8.41853e-02,9.99999e-01,8.41853e-02,9.99999e-01
4.883176946e-01,8.84027e-02,9.99999e-01,8.84027e-02,9.99999e-01
4.907592831e-01,9.27418e-02,9.99999e-01,9.27418e-02,9.99999e-01
4.932130795e-01,9.72018e-02,9.99999e-01,9.72018e-02,9.99999e-01
4.956791449e-01,1.01782e-01,9.99999e-01,1.01782e-01,9.99999e-01
4.981575406e-01,1.06481e-01,9.99999e-01,1.06481e-01,9.99999e-01
5.006483283e-01,1.11297e-01,9.99999e-01,1.11297e-01,9.99999e-01
5.031515699e-01,1.16230e-01,9.99999e-01,1.16230e-01,9.99999e-01
5.056673278e-01,1.21278e-01,9.99999e-01,1.21278e-01,9.99999e-01
5.081956644e-01,1.26438e-01,9.99999e-01,1.26438e-01,9.99999e-01
5.107366428e-01,1.31710e-01,9.99999e-01,1.31710e-01,9.99999e-01
5.132903260e-01,1.37091e-01,9.99999e-01,1.37091e-01,9.99999e-01
5.158567776e-01,1.42579e-01,9.99999e-01,1.42579e-01,9.99999e-01
5.184360615e-01,1.48171e-01,9.99999e-01,1.48171e-01,9.99999e-01
5.210282418e-01,1.53866e-01,9.99999e-01,1.53866e-01,9.99999e-01
5.236333830e-01,1.59661e-01,9.99999e-01,1.59661e-01,9.99999e-01
5.262515499e-01,1.65554e-01,9.99999e-01,1.65554e-01,9.99999e-01
5.288828077e-01,1.71540e-01,9.99999e-01,1.71540e-01,9.99999e-01
5.315272217e-01,1.77619e-01,9.99999e-01,1.77619e-01,9.99999e-01
5.341848578e-01,1.83787e-01,9.99999e-01,1.83787e-01,9.99999e-01
5.368557821e-01,1.90040e-01,9.99999e-01,1.90040e-01,9.99999e-01
5.395400610e-01,1.96377e-01,9.99999e-01,1.96377e-01,9.99999e-01
5.422377613e-01,2.02793e-01,9.99999e-01,2.02793e-01,9.99999e-01
5.449489501e-01,2.09286e-01,9.99999e-01,2.09286e-01,9.99999e-01
5.476736949e-01,2.15853e-01,9.99999e-01,2.15853e-01,9.99999e-01
5.504120634e-01,2.22490e-01,9.99999e-01,2.22490e-01,9.99999e-01
5.531641237e-01,2.29193e-01,9.99999e-01,2.29193e-01,9.99999e-01
5.559299443e-01,2.35961e-01,9.99999e-01,2.35961e-01,9.99999e-01
5.587095940e-01,2.42788e-01,9.99999e-01,2.42788e-01,9.99999e-01
5.615031420e-01,2.49673e-01,9.99999e-01,2.49673e-01,9.99999e-01
5.643106577e-01,2.56611e-01,9.99999e-01,2.56611e-01,9.99999e-01
5.671322110e-01,2.63598e-01,9.99999e-01,2.63598e-01,9.99999e-01
5.699678720e-01,2.70633e-01,9.99999e-01,2.70633e-01,9.99999e-01
5.728177114e-01,2.77711e-01,9.99999e-01,2.77711e-01,9.99999e-01
5.756818000e-01,2.84828e-01,9.99999e-01,2.84828e-01,9.99999e-01
5.785602090e-01,2.91982e-01,9.99999e-01,2.91982e-01,9.99999e-01
5.814530100e-01,2.99169e-01,9.99999e-01,2.99169e-01,9.99999e-01
5.843602750e-01,3.06386e-01,9.99999e-01,3.06386e-01,9.99999e-01
5.872820764e-01,3.13629e-01,9.99999e-01,3.13629e-01,9.99999e-01
5.902184868e-01,3.20895e-01,9.99999e-01,3.20895e-01,9.99999e-01
5.931695792e-01,3.28181e-01,9.99999e-01,3.28181e-01,9.99999e-01
5.961354271e-01,3.35484e-01,9.99999e-01,3.35484e-01,9.99999e-01
5.991161043e-01,3.42800e-01,9.99999e-01,3.42800e-01,9.99999e-01
6.021116848e-01,3.50126e-01,9.99999e-01,3.50126e-01,9.99999e-01
6.051222432e-01,3.57460e-01,9.99999e-01,3.57460e-01,9.99999e-01
6.081478544e-01,3.64798e-01,9.99999e-01,3.64798e-01,9.99999e-01
6.111885937e-01,3.72137e-01,9.99999e-01,3.72137e-01,9.99999e-01
6.142445367e-01,3.79475e-01,9.99999e-01,3.79475e-01,9.99999e-01
6.173157594e-01,3.86807e-01,9.99999e-01,3.86807e-01,9.99999e-01
6.204023382e-01,3.94133e-01,9.99999e-01,3.94133e-01,9.99999e-01
6.235043498e-01,4.01449e-01,9.99999e-01,4.01449e-01,9.99999e-01
6.266218716e-01,4.08751e-01,9.99999e-01,4.08751e-01,9.99999e-01
6.297549810e-01,4.16039e-01,9.99999e-01,4.16039e-01,9.99999e-01
6.329037559e-01,4.23308e-01,9.99999e-01,4.23308e-01,9.99999e-01
6.360682746e-01,4.30558e-01,9.99999e-01,4.30558e-01,9.99999e-01
6.392486160e-01,4.37784e-01,9.99999e-01,4.37784e-01,9.99999e-01
6.424448591e-01,4.44986e-01,9.99999e-01,4.44986e-01,9.99999e-01
6.456570834e-01,4.52160e-01,9.99999e-01,4.52160e-01,9.99999e-01
6.488853688e-01,4.59305e-01,9.99999e-01,4.59305e-01,9.99999e-01
6.521297956e-01,4.66418e-01,9.99999e-01,4.66418e-01,9.99999e-01
6.553904446e-01,4.73498e-01,9.99999e-01,4.73498e-01,9.99999e-01
6.586673968e-01,4.80542e-01,9.99999e-01,4.80542e-01,9.99999e-01
6.619607338e-01,4.87548e-01,9.99999e-01,4.87548e-01,9.99999e-01
6.652705375e-01,4.94516e-01,9.99999e-01,4.94516e-01,9.99999e-01
6.685968902e-01,5.01442e-01,9.99999e-01,5.01442e-01,9.99999e-01
6.719398746e-01,5.08326e-01,9.99999e-01,5.08326e-01,9.99999e-01
6.752995740e-01,5.15165e-01,9.99999e-01,5.15165e-01,9.99999e-01
6.786760719e-01,5.21959e-01,9.99999e-01,5.21959e-01,9.99999e-01
6.820694522e-01,5.28705e-01,9.99999e-01,5.28705e-01,9.99999e-01
6.854797995e-01,5.35403e-01,9.99999e-01,5.35403e-01,9.99999e-01
6.889071985e-01,5.42051e-01,9.99999e-01,5.42051e-01,9.99999e-01
6.923517345e-01,5.48648e-01,9.99999e-01,5.48648e-01,9.99999e-01
6.958134932e-01,5.55192e-01,9.99999e-01,5.55192e-01,9.99999e-01
6.992925606e-01,5.61682e-01,9.99999e-01,5.61682e-01,9.99999e-01
7.027890234e-01,5.68119e-01,9.99999e-01,5.68119e-01,9.99999e-01
7.063029686e-01,5.74499e-01,9.99999e-01,5.74499e-01,9.99999e-01
7.098344834e-01,5.80823e-01,9.99999e-01,5.80823e-01,9.99999e-01
7.133836558e-01,5.87090e-01,9.99999e-01,5.87090e-01,9.99999e-01
7.169505741e-01,5.93299e-01,9.99999e-01,5.93299e-01,9.99999e-01
7.205353270e-01,5.99448e-01,9.99999e-01,5.99448e-01,9.99999e-01
7.241380036e-01,6.05539e-01,9.99999e-01,6.05539e-01,9.99999e-01
7.277586936e-01,6.11568e-01,9.99999e-01,6.11568e-01,9.99999e-01
7.313974871e-01,6.17537e-01,9.99999e-01,6.17537e-01,9.99999e-01
7.350544745e-01,6.23445e-01,9.99999e-01,6.23445e-01,9.99999e-01
7.387297469e-01,6.29291e-01,9.99999e-01,6.29291e-01,9.99999e-01
7.424233956e-01,6.35074e-01,9.99999e-01,6.35074e-01,9.99999e-01
7.461355126e-01,6.40795e-01,9.99999e-01,6.40795e-01,9.99999e-01
7.498661902e-01,6.46453e-01,9.99999e-01,6.46453e-01,9.99999e-01
7.536155211e-01,6.52048e-01,9.99999e-01,6.52048e-01,9.99999e-01
7.573835987e-01,6.57579e-01,9.99999e-01,6.57579e-01,9.99999e-01
7.611705167e-01,6.63046e-01,9.99999e-01,6.63046e-01,9.99999e-01
7.649763693e-01,6.68450e-01,9.99999e-01,6.68450e-01,9.99999e-01
7.688012511e-01,6.73789e-01,9.99999e-01,6.73789e-01,9.99999e-01
7.726452574e-01,6.79065e-01,9.99999e-01,6.79065e-01,9.99999e-01
7.765084837e-01,6.84276e-01,9.99999e-01,6.84276e-01,9.99999e-01
7.803910261e-01,6.76280e-01,9.80935e-01,6.89423e-01,9.99999e-01
7.842929812e-01,6.41442e-01,9.23594e-01,6.94506e-01,9.99999e-01
7.882144461e-01,6.41975e-01,9.17728e-01,6.99525e-01,9.99999e-01
7.921555184e-01,6.70549e-01,9.51834e-01,7.04480e-01,9.99999e-01
7.961162960e-01,6.86513e-01,9.67775e-01,7.09372e-01,9.99999e-01
8.000968774e-01,7.01618e-01,9.82383e-01,7.14199e-01,9.99999e-01
8.040973618e-01,7.12399e-01,9.90869e-01,7.18964e-01,9.99999e-01
8.081178486e-01,7.20616e-01,9.95786e-01,7.23665e-01,9.99999e-01
8.121584379e-01,7.27361e-01,9.98706e-01,7.28302e-01,9.99999e-01
8.162192301e-01,7.32668e-01,9.99714e-01,7.32878e-01,9.99999e-01
8.203003262e-01,7.37387e-01,9.99995e-01,7.37390e-01,9.99999e-01
8.244018279e-01,7.41841e-01,9.99999e-01,7.41841e-01,9.99999e-01
8.285238370e-01,7.46229e-01,9.99999e-01,7.46229e-01,9.99999e-01
8.326664562e-01,7.50557e-01,9.99999e-01,7.50557e-01,9.99999e-01
8.368297885e-01,7.54823e-01,9.99999e-01,7.54823e-01,9.99999e-01
8.410139374e-01,7.59028e-01,9.99999e-01,7.59028e-01,9.99999e-01
8.452190071e-01,7.63173e-01,9.99999e-01,7.63173e-01,9.99999e-01
8.494451021e-01,7.67258e-01,9.99999e-01,7.67258e-01,9.99999e-01
8.536923276e-01,7.71284e-01,9.99999e-01,7.71284e-01,9.99999e-01
8.579607893e-01,7.75250e-01,9.99999e-01,7.75250e-01,9.99999e-01
8.622505932e-01,7.79158e-01,9.99999e-01,7.79158e-01,9.99999e-01
8.665618462e-01,7.44236e-01,9.50482e-01,7.83008e-01,9.99999e-01
8.708946554e-01,6.40622e-01,8.14211e-01,7.86801e-01,9.99999e-01
8.752491287e-01,6.71536e-01,8.49469e-01,7.90536e-01,9.99999e-01
8.796253743e-01,7.26829e-01,9.15153e-01,7.94215e-01,9.99999e-01
8.840235012e-01,7.62153e-01,9.55272e-01,7.97837e-01,9.99999e-01
8.884436187e-01,7.87159e-01,9.82223e-01,8.01405e-01,9.99999e-01
8.928858368e-01,7.99084e-01,9.92753e-01,8.04917e-01,9.99999e-01
8.973502660e-01,8.06955e-01,9.98243e-01,8.08375e-01,9.99999e-01
9.018370173e-01,8.11622e-01,9.99806e-01,8.11778e-01,9.99999e-01
9.063462024e-01,8.10967e-01,9.94893e-01,8.15129e-01,9.99999e-01
9.108779334e-01,8.09066e-01,9.88561e-01,8.18427e-01,9.99999e-01
9.154323231e-01,8.19476e-01,9.97326e-01,8.21672e-01,9.99999e-01
9.200094847e-01,7.91665e-01,9.59749e-01,8.24866e-01,9.99999e-01
9.246095321e-01,7.82566e-01,9.45117e-01,8.28009e-01,9.99999e-01
9.292325798e-01,7.94684e-01,9.56180e-01,8.31102e-01,9.99999e-01
9.338787427e-01,7.99167e-01,9.58067e-01,8.34144e-01,9.99999e-01
9.385481364e-01,8.11241e-01,9.69065e-01,8.37138e-01,9.99999e-01
9.432408771e-01,8.24131e-01,9.81011e-01,8.40082e-01,9.99999e-01
9.479570815e-01,8.34719e-01,9.90200e-01,8.42979e-01,9.99999e-01
9.526968669e-01,8.41828e-01,9.95270e-01,8.45828e-01,9.99999e-01
9.574603512e-01,8.46914e-01,9.97977e-01,8.48630e-01,9.99999e-01
9.622476530e-01,8.50849e-01,9.99369e-01,8.51386e-01,9.99999e-01
9.670588912e-01,8.53935e-01,9.99810e-01,8.54096e-01,9.99999e-01
9.718941857e-01,8.56749e-01,9.99986e-01,8.56760e-01,9.99999e-01
9.767536566e-01,8.59381e-01,9.99999e-01,8.59381e-01,9.99999e-01
9.816374249e-01,8.61957e-01,9.99999e-01,8.61957e-01,9.99999e-01
9.865456120e-01,8.64490e-01,9.99999e-01,8.64490e-01,9.99999e-01
9.914783401e-01,8.66980e-01,9.99999e-01,8.66980e-01,9.99999e-01
9.964357318e-01,8.69428e-01,9.99999e-01,8.69428e-01,9.99999e-01
1.001417910e+00,8.71834e-01,9.99999e-01,8.71834e-01,9.99999e-01
1.006425000e+00,8.74199e-01,9.99999e-01,8.74199e-01,9.99999e-01
1.011457125e+00,8.76524e-01,9.99999e-01,8.76524e-01,9.99999e-01
1.016514411e+00,8.78808e-01,9.99999e-01,8.78808e-01,9.99999e-01
1.021596983e+00,8.81028e-01,9.99969e-01,8.81054e-01,9.99999e-01
1.026704968e+00,8.81500e-01,9.98006e-01,8.83260e-01,9.99999e-01
1.031838492e+00,8.58835e-01,9.69964e-01,8.85429e-01,9.99999e-01
1.036997685e+00,2.39285e-01,2.69599e-01,8.87560e-01,9.99999e-01
1.042182673e+00,2.82008e-01,3.16987e-01,8.89653e-01,9.99999e-01
1.047393587e+00,2.63792e-01,2.95827e-01,8.91710e-01,9.99999e-01
1.052630555e+00,3.50596e-02,3.92283e-02,8.93731e-01,9.99999e-01
1.057893707e+00,6.83123e-02,7.62655e-02,8.95717e-01,9.99999e-01
1.063183176e+00,1.38482e-01,1.54269e-01,8.97667e-01,9.99999e-01
1.068499092e+00,2.56479e-01,2.85108e-01,8.99584e-01,9.99999e-01
1.073841587e+00,4.09523e-01,4.54285e-01,9.01466e-01,9.99999e-01
1.079210795e+00,5.48925e-01,6.07678e-01,9.03315e-01,9.99999e-01
1.084606849e+00,6.89806e-01,7.62106e-01,9.05131e-01,9.99999e-01
1.090029883e+00,7.87815e-01,8.68675e-01,9.06915e-01,9.99999e-01
1.095480033e+00,8.47897e-01,9.33121e-01,9.08667e-01,9.99999e-01
1.100957433e+00,8.80557e-01,9.67232e-01,9.10387e-01,9.99999e-01
1.106462220e+00,8.99619e-01,9.86340e-01,9.12077e-01,9.99999e-01
1.111994531e+00,9.09092e-01,9.94916e-01,9.13737e-01,9.99999e-01
1.117554504e+00,9.14233e-01,9.98761e-01,9.15366e-01,9.99999e-01
1.123142276e+00,9.16893e-01,9.99918e-01,9.16967e-01,9.99999e-01
1.128757988e+00,9.18538e-01,9.99999e-01,9.18538e-01,9.99999e-01
1.134401778e+00,9.20081e-01,9.99999e-01,9.20081e-01,9.99999e-01
1.140073787e+00,9.21596e-01,9.99999e-01,9.21596e-01,9.99999e-01
1.145774156e+00,9.23083e-01,9.99999e-01,9.23083e-01,9.99999e-01
1.151503026e+00,9.24544e-01,9.99999e-01,9.24544e-01,9.99999e-01
1.157260541e+00,9.25978e-01,9.99999e-01,9.25978e-01,9.99999e-01
1.163046844e+00,9.27385e-01,9.99999e-01,9.27385e-01,9.99999e-01
1.168862078e+00,9.28767e-01,9.99999e-01,9.28767e-01,9.99999e-01
1.174706389e+00,9.30124e-01,9.99999e-01,9.30124e-01,9.99999e-01
1.180579921e+00,9.31456e-01,9.99999e-01,9.31456e-01,9.99999e-01
1.186482820e+00,9.32759e-01,9.99995e-01,9.32763e-01,9.99999e-01
1.192415234e+00,9.27342e-01,9.92822e-01,9.34046e-01,9.99999e-01
1.198377311e+00,5.43590e-01,5.81189e-01,9.35306e-01,9.99999e-01
1.204369197e+00,6.37907e-07,6.81129e-07,9.36542e-01,9.99999e-01
1.210391043e+00,2.51451e-22,2.68141e-22,9.37756e-01,9.99999e-01
1.216442998e+00,1.43823e-19,1.53174e-19,9.38947e-01,9.99999e-01
1.222525213e+00,2.73413e-19,2.90829e-19,9.40116e-01,9.99999e-01
1.228637839e+00,7.40917e-15,7.87151e-15,9.41264e-01,9.99999e-01
1.234781029e+00,3.18927e-10,3.38423e-10,9.42390e-01,9.99999e-01
1.240954934e+00,6.29688e-07,6.67399e-07,9.43495e-01,9.99999e-01
1.247159708e+00,3.26301e-04,3.45445e-04,9.44579e-01,9.99999e-01
1.253395507e+00,1.14605e-02,1.21193e-02,9.45644e-01,9.99999e-01
1.259662485e+00,7.71225e-02,8.14655e-02,9.46688e-01,9.99999e-01
1.265960797e+00,2.21892e-01,2.34134e-01,9.47713e-01,9.99999e-01
1.272290601e+00,5.22151e-01,5.50374e-01,9.48719e-01,9.99999e-01
1.278652054e+00,4.57676e-01,4.81912e-01,9.49706e-01,9.99999e-01
1.285045314e+00,2.45030e-02,2.57743e-02,9.50675e-01,9.99999e-01
1.291470541e+00,2.61051e-03,2.74321e-03,9.51625e-01,9.99999e-01
1.297927893e+00,5.64484e-02,5.92598e-02,9.52557e-01,9.99999e-01
1.304417533e+00,3.22674e-01,3.38420e-01,9.53472e-01,9.99999e-01
1.310939621e+00,6.01069e-02,6.29807e-02,9.54370e-01,9.99999e-01
1.317494319e+00,3.85130e-08,4.03172e-08,9.55251e-01,9.99999e-01
1.324081790e+00,5.89444e-06,6.16498e-06,9.56115e-01,9.99999e-01
1.330702199e+00,1.57982e-03,1.65087e-03,9.56963e-01,9.99999e-01
1.337355710e+00,1.18245e-03,1.23456e-03,9.57795e-01,9.99999e-01
1.344042489e+00,3.81944e-04,3.98434e-04,9.58611e-01,9.99999e-01
1.350762701e+00,1.20429e-03,1.25523e-03,9.59412e-01,9.99999e-01
1.357516515e+00,1.19644e-02,1.24603e-02,9.60197e-01,9.99999e-01
1.364304097e+00,6.19764e-02,6.44936e-02,9.60968e-01,9.99999e-01
1.371125618e+00,2.26602e-01,2.35620e-01,9.61724e-01,9.99999e-01
1.377981246e+00,3.01997e-01,3.13774e-01,9.62465e-01,9.99999e-01
1.384871152e+00,4.90832e-01,5.09588e-01,9.63193e-01,9.99999e-01
1.391795508e+00,5.17245e-01,5.36612e-01,9.63907e-01,9.99999e-01
1.398754485e+00,6.57837e-01,6.81974e-01,9.64607e-01,9.99999e-01
1.405748258e+00,7.27906e-01,7.54077e-01,9.65294e-01,9.99999e-01
1.412776999e+00,8.08555e-01,8.37041e-01,9.65967e-01,9.99999e-01
1.419840884e+00,7.44521e-01,7.70224e-01,9.66628e-01,9.99999e-01
1.426940089e+00,9.66953e-02,9.99664e-02,9.67277e-01,9.99999e-01
1.434074789e+00,2.15459e-316,2.22602e-316,9.67912e-01,9.99999e-01
1.441245163e+00,0.00000e+00,0.00000e+00,9.68536e-01,9.99999e-01
1.448451389e+00,0.00000e+00,0.00000e+00,9.69148e-01,9.99999e-01
1.455693646e+00,1.10493e-171,1.13939e-171,9.69748e-01,9.99999e-01
1.462972114e+00,9.66452e-84,9.95996e-84,9.70337e-01,9.99999e-01
1.470286975e+00,8.85198e-36,9.11716e-36,9.70914e-01,9.99999e-01
1.477638409e+00,4.04331e-23,4.16201e-23,9.71480e-01,9.99999e-01
1.485026601e+00,1.76502e-13,1.81580e-13,9.72035e-01,9.99999e-01
1.492451734e+00,1.71493e-11,1.76327e-11,9.72580e-01,9.99999e-01
1.499913993e+00,6.71425e-06,6.89975e-06,9.73114e-01,9.99999e-01
1.507413563e+00,8.18937e-05,8.41109e-05,9.73638e-01,9.99999e-01
1.514950631e+00,3.47061e-06,3.56269e-06,9.74152e-01,9.99999e-01
1.522525384e+00,5.93935e-17,6.09378e-17,9.74656e-01,9.99999e-01
1.530138011e+00,5.87294e-38,6.02259e-38,9.75151e-01,9.99999e-01
1.537788701e+00,1.61457e-28,1.65489e-28,9.75635e-01,9.99999e-01
1.545477645e+00,2.04789e-07,2.09801e-07,9.76111e-01,9.99999e-01
1.553205033e+00,6.57854e-05,6.73632e-05,9.76577e-01,9.99999e-01
1.560971058e+00,1.63083e-05,1.66916e-05,9.77034e-01,9.99999e-01
1.568775913e+00,8.46515e-94,8.66015e-94,9.77483e-01,9.99999e-01
1.576619793e+00,3.30209e-218,3.37664e-218,9.77923e-01,9.99999e-01
1.584502892e+00,1.51182e-119,1.54527e-119,9.78354e-01,9.99999e-01
1.592425406e+00,1.23138e-83,1.25808e-83,9.78777e-01,9.99999e-01
1.600387533e+00,4.32062e-134,4.41243e-134,9.79192e-01,9.99999e-01
1.608389471e+00,1.58068e-224,1.61360e-224,9.79599e-01,9.99999e-01
1.616431418e+00,6.16334e-226,6.28913e-226,9.79997e-01,9.99999e-01
1.624513575e+00,5.27190e-106,5.37735e-106,9.80389e-01,9.99999e-01
1.632636143e+00,4.22619e-79,4.30904e-79,9.80772e-01,9.99999e-01
1.640799324e+00,2.80972e-33,2.86370e-33,9.81148e-01,9.99999e-01
1.649003321e+00,3.22817e-33,3.28895e-33,9.81517e-01,9.99999e-01
1.657248337e+00,5.65885e-26,5.76328e-26,9.81879e-01,9.99999e-01
1.665534579e+00,3.68491e-26,3.75156e-26,9.82234e-01,9.99999e-01
1.673862252e+00,3.63949e-17,3.70400e-17,9.82582e-01,9.99999e-01
1.682231563e+00,2.39863e-12,2.44031e-12,9.82923e-01,9.99999e-01
1.690642721e+00,1.47488e-07,1.50000e-07,9.83257e-01,9.99999e-01
1.699095934e+00,5.99597e-05,6.09603e-05,9.83585e-01,9.99999e-01
1.707591414e+00,5.52016e-03,5.61044e-03,9.83907e-01,9.99999e-01
1.716129371e+00,5.82664e-02,5.92004e-02,9.84222e-01,9.99999e-01
1.724710018e+00,2.17777e-01,2.21199e-01,9.84531e-01,9.99999e-01
1.733333568e+00,3.73134e-01,3.78879e-01,9.84834e-01,9.99999e-01
1.742000236e+00,5.36929e-01,5.45032e-01,9.85132e-01,9.99999e-01
1.750710237e+00,3.53296e-02,3.58522e-02,9.85423e-01,9.99999e-01
1.759463788e+00,2.32721e-16,2.36095e-16,9.85709e-01,9.99999e-01
1.768261107e+00,2.26350e-17,2.29566e-17,9.85989e-01,9.99999e-01
1.777102413e+00,2.73767e-16,2.77580e-16,9.86264e-01,9.99999e-01
1.785987925e+00,7.96905e-16,8.07782e-16,9.86534e-01,9.99999e-01
1.794917864e+00,7.02324e-15,7.11719e-15,9.86798e-01,9.99999e-01
1.803892454e+00,8.36408e-15,8.47374e-15,9.87057e-01,9.99999e-01
1.812911916e+00,5.27222e-14,5.33997e-14,9.87311e-01,9.99999e-01
1.821976476e+00,3.18862e-14,3.22878e-14,9.87560e-01,9.99999e-01
1.831086358e+00,1.00877e-11,1.02122e-11,9.87804e-01,9.99999e-01
1.840241790e+00,6.62270e-10,6.70283e-10,9.88044e-01,9.99999e-01
1.849442999e+00,5.11873e-07,5.17943e-07,9.88278e-01,9.99999e-01
1.858690214e+00,2.42103e-06,2.44917e-06,9.88509e-01,9.99999e-01
1.867983665e+00,3.63299e-07,3.67439e-07,9.88734e-01,9.99999e-01
1.877323583e+00,3.51996e-30,3.55927e-30,9.88955e-01,9.99999e-01
