#,Wave/freq,Total,CO2,Rayleigh,CIA
4.000000000e-01,9.58194e-17,9.99999e-01,9.58194e-17,9.99999e-01
4.020000000e-01,1.98693e-16,9.99999e-01,1.98693e-16,9.99999e-01
4.040100000e-01,4.05818e-16,9.99999e-01,4.05818e-16,9.99999e-01
4.060300500e-01,8.17251e-16,9.99999e-01,8.17251e-16,9.99999e-01
4.080602003e-01,1.62321e-15,9.99999e-01,1.62321e-15,9.99999e-01
4.101005013e-01,3.18057e-15,9.99999e-01,3.18057e-15,9.99999e-01
4.121510038e-01,6.14988e-15,9.99999e-01,6.14988e-15,9.99999e-01
4.142117588e-01,1.17374e-14,9.99999e-01,1.17374e-14,9.99999e-01
4.162828176e-01,2.21173e-14,9.99999e-01,2.21173e-14,9.99999e-01
4.183642317e-01,4.11583e-14,9.99999e-01,4.11583e-14,9.99999e-01
4.204560528e-01,7.56581e-14,9.99999e-01,7.56581e-14,9.99999e-01
4.225583331e-01,1.37414e-13,9.99999e-01,1.37414e-13,9.99999e-01
4.246711247e-01,2.46653e-13,9.99999e-01,2.46653e-13,9.99999e-01
4.267944804e-01,4.37647e-13,9.99999e-01,4.37647e-13,9.99999e-01
4.289284528e-01,7.67790e-13,9.99999e-01,7.67790e-13,9.99999e-01
4.310730950e-01,1.33211e-12,9.99999e-01,1.33211e-12,9.99999e-01
4.332284605e-01,2.28617e-12,9.99999e-01,2.28617e-12,9.99999e-01
4.353946028e-01,3.88191e-12,9.99999e-01,3.88191e-12,9.99999e-01
4.375715758e-01,6.52288e-12,9.99999e-01,6.52288e-12,9.99999e-01
4.397594337e-01,1.08488e-11,9.99999e-01,1.08488e-11,9.99999e-01
4.419582309e-01,1.78633e-11,9.99999e-01,1.78633e-11,9.99999e-01
4.441680220e-01,2.91247e-11,9.99999e-01,2.91247e-11,9.99999e-01
4.463888621e-01,4.70292e-11,9.99999e-01,4.70292e-11,9.99999e-01
4.486208064e-01,7.52253e-11,9.99999e-01,7.52253e-11,9.99999e-01
4.508639105e-01,1.19215e-10,9.99999e-01,1.19215e-10,9.99999e-01
4.531182300e-01,1.87218e-10,9.99999e-01,1.87218e-10,9.99999e-01
4.553838212e-01,2.91403e-10,9.99999e-01,2.91403e-10,9.99999e-01
4.576607403e-01,4.49617e-10,9.99999e-01,4.49617e-10,9.99999e-01
4.599490440e-01,6.87817e-10,9.99999e-01,6.87817e-10,9.99999e-01
4.622487892e-01,1.04341e-09,9.99999e-01,1.04341e-09,9.99999e-01
4.645600332e-01,1.56987e-09,9.99999e-01,1.56987e-09,9.99999e-01
4.668828333e-01,2.34297e-09,9.99999e-01,2.34297e-09,9.99999e-01
4.692172475e-01,3.46925e-09,9.99999e-01,3.46925e-09,9.99999e-01
4.715633337e-01,5.09726e-09,9.99999e-01,5.09726e-09,9.99999e-01
4.739211504e-01,7.43254e-09,9.99999e-01,7.43254e-09,9.99999e-01
4.762907561e-01,1.07573e-08,9.99999e-01,1.07573e-08,9.99999e-01
4.786722099e-01,1.54560e-08,9.99999e-01,1.54560e-08,9.99999e-01
4.810655710e-01,2.20486e-08,9.99999e-01,2.20486e-08,9.99999e-01
4.834708988e-01,3.12333e-08,9.99999e-01,3.12333e-08,9.99999e-01
4.858882533e-01,4.39408e-08,9.99999e-01,4.39408e-08,9.99999e-01
4.883176946e-01,6.14029e-08,9.99999e-01,6.14029e-08,9.99999e-01
4.907592831e-01,8.52394e-08,9.99999e-01,8.52394e-08,9.99999e-01
4.932130795e-01,1.17565e-07,9.99999e-01,1.17565e-07,9.99999e-01
4.956791449e-01,1.61123e-07,9.99999e-01,1.61123e-07,9.99999e-01
4.981575406e-01,2.19448e-07,9.99999e-01,2.19448e-07,9.99999e-01
5.006483283e-01,2.97069e-07,9.99999e-01,2.97069e-07,9.99999e-01
5.031515699e-01,3.99747e-07,9.99999e-01,3.99747e-07,9.99999e-01
5.056673278e-01,5.34768e-07,9.99999e-01,5.34768e-07,9.99999e-01
5.081956644e-01,7.11295e-07,9.99999e-01,7.11295e-07,9.99999e-01
5.107366428e-01,9.40777e-07,9.99999e-01,9.40777e-07,9.99999e-01
5.132903260e-01,1.23744e-06,9.99999e-01,1.23744e-06,9.99999e-01
5.158567776e-01,1.61887e-06,9.99999e-01,1.61887e-06,9.99999e-01
5.184360615e-01,2.10666e-06,9.99999e-01,2.10666e-06,9.99999e-01
5.210282418e-01,2.72721e-06,9.99999e-01,2.72721e-06,9.99999e-01
5.236333830e-01,3.51258e-06,9.99999e-01,3.51258e-06,9.99999e-01
5.262515499e-01,4.50157e-06,9.99999e-01,4.50157e-06,9.99999e-01
5.288828077e-01,5.74081e-06,9.99999e-01,5.74081e-06,9.99999e-01
5.315272217e-01,7.28612e-06,9.99999e-01,7.28612e-06,9.99999e-01
5.341848578e-01,9.20396e-06,9.99999e-01,9.20396e-06,9.99999e-01
5.368557821e-01,1.15731e-05,9.99999e-01,1.15731e-05,9.99999e-01
5.395400610e-01,1.44863e-05,9.99999e-01,1.44863e-05,9.99999e-01
5.422377613e-01,1.80527e-05,9.99999e-01,1.80527e-05,9.99999e-01
5.449489501e-01,2.23994e-05,9.99999e-01,2.23994e-05,9.99999e-01
5.476736949e-01,2.76745e-05,9.99999e-01,2.76745e-05,9.99999e-01
5.504120634e-01,3.40495e-05,9.99999e-01,3.40495e-05,9.99999e-01
5.531641237e-01,4.17217e-05,9.99999e-01,4.17217e-05,9.99999e-01
5.559299443e-01,5.09180e-05,9.99999e-01,5.09180e-05,9.99999e-01
5.587095940e-01,6.18972e-05,9.99999e-01,6.18972e-05,9.99999e-01
5.615031420e-01,7.49542e-05,9.99999e-01,7.49542e-05,9.99999e-01
5.643106577e-01,9.04230e-05,9.99999e-01,9.04230e-05,9.99999e-01
5.671322110e-01,1.08681e-04,9.99999e-01,1.08681e-04,9.99999e-01
5.699678720e-01,1.30151e-04,9.99999e-01,1.30151e-04,9.99999e-01
5.728177114e-01,1.55309e-04,9.99999e-01,1.55309e-04,9.99999e-01
5.756818000e-01,1.84685e-04,9.99999e-01,1.84685e-04,9.99999e-01
5.785602090e-01,2.18866e-04,9.99999e-01,2.18866e-04,9.99999e-01
5.814530100e-01,2.58505e-04,9.99999e-01,2.58505e-04,9.99999e-01
5.843602750e-01,3.04321e-04,9.99999e-01,3.04321e-04,9.99999e-01
5.872820764e-01,3.57104e-04,9.99999e-01,3.57104e-04,9.99999e-01
5.902184868e-01,4.17720e-04,9.99999e-01,4.17720e-04,9.99999e-01
5.931695792e-01,4.87114e-04,9.99999e-01,4.87114e-04,9.99999e-01
5.961354271e-01,5.66315e-04,9.99999e-01,5.66315e-04,9.99999e-01
5.991161043e-01,6.56438e-04,9.99999e-01,6.56438e-04,9.99999e-01
6.021116848e-01,7.58686e-04,9.99999e-01,7.58686e-04,9.99999e-01
6.051222432e-01,8.74356e-04,9.99999e-01,8.74356e-04,9.99999e-01
6.081478544e-01,1.00484e-03,9.99999e-01,1.00484e-03,9.99999e-01
6.111885937e-01,1.15163e-03,9.99999e-01,1.15163e-03,9.99999e-01
6.142445367e-01,1.31632e-03,9.99999e-01,1.31632e-03,9.99999e-01
6.173157594e-01,1.50058e-03,9.99999e-01,1.50058e-03,9.99999e-01
6.204023382e-01,1.70622e-03,9.99999e-01,1.70622e-03,9.99999e-01
6.235043498e-01,1.93513e-03,9.99999e-01,1.93513e-03,9.99999e-01
6.266218716e-01,2.18929e-03,9.99999e-01,2.18929e-03,9.99999e-01
6.297549810e-01,2.47081e-03,9.99999e-01,2.47081e-03,9.99999e-01
6.329037559e-01,2.78187e-03,9.99999e-01,2.78187e-03,9.99999e-01
6.360682746e-01,3.12477e-03,9.99999e-01,3.12477e-03,9.99999e-01
6.392486160e-01,3.50188e-03,9.99999e-01,3.50188e-03,9.99999e-01
6.424448591e-01,3.91568e-03,9.99999e-01,3.91568e-03,9.99999e-01
6.456570834e-01,4.36873e-03,9.99999e-01,4.36873e-03,9.99999e-01
6.488853688e-01,4.86367e-03,9.99999e-01,4.86367e-03,9.99999e-01
6.521297956e-01,5.40322e-03,9.99999e-01,5.40322e-03,9.99999e-01
6.553904446e-01,5.99016e-03,9.99999e-01,5.99016e-03,9.99999e-01
6.586673968e-01,6.62734e-03,9.99999e-01,6.62734e-03,9.99999e-01
6.619607338e-01,7.31768e-03,9.99999e-01,7.31768e-03,9.99999e-01
6.652705375e-01,8.06413e-03,9.99999e-01,8.06413e-03,9.99999e-01
6.685968902e-01,8.86968e-03,9.99999e-01,8.86968e-03,9.99999e-01
6.719398746e-01,9.73738e-03,9.99999e-01,9.73738e-03,9.99999e-01
6.752995740e-01,1.06703e-02,9.99999e-01,1.06703e-02,9.99999e-01
6.786760719e-01,1.16714e-02,9.99999e-01,1.16714e-02,9.99999e-01
6.820694522e-01,1.27439e-02,9.99999e-01,1.27439e-02,9.99999e-01
6.854797995e-01,1.38908e-02,9.99999e-01,1.38908e-02,9.99999e-01
6.889071985e-01,1.51152e-02,9.99999e-01,1.51152e-02,9.99999e-01
6.923517345e-01,1.64200e-02,9.99999e-01,1.64200e-02,9.99999e-01
6.958134932e-01,1.78084e-02,9.99999e-01,1.78084e-02,9.99999e-01
6.992925606e-01,1.92832e-02,9.99999e-01,1.92832e-02,9.99999e-01
7.027890234e-01,2.08474e-02,9.99999e-01,2.08474e-02,9.99999e-01
7.063029686e-01,2.25037e-02,9.99999e-01,2.25037e-02,9.99999e-01
7.098344834e-01,2.42550e-02,9.99999e-01,2.42550e-02,9.99999e-01
7.133836558e-01,2.61039e-02,9.99999e-01,2.61039e-02,9.99999e-01
7.169505741e-01,2.80530e-02,9.99999e-01,2.80530e-02,9.99999e-01
7.205353270e-01,3.01048e-02,9.99999e-01,3.01048e-02,9.99999e-01
7.241380036e-01,3.22617e-02,9.99999e-01,3.22617e-02,9.99999e-01
7.277586936e-01,3.45258e-02,9.99999e-01,3.45258e-02,9.99999e-01
7.313974871e-01,3.68994e-02,9.99999e-01,3.68994e-02,9.99999e-01
7.350544745e-01,3.93844e-02,9.99999e-01,3.93844e-02,9.99999e-01
7.387297469e-01,4.19826e-02,9.99999e-01,4.19826e-02,9.99999e-01
7.424233956e-01,4.46959e-02,9.99999e-01,4.46959e-02,9.99999e-01
7.461355126e-01,4.75257e-02,9.99999e-01,4.75257e-02,9.99999e-01
7.498661902e-01,5.04733e-02,9.99999e-01,5.04733e-02,9.99999e-01
7.536155211e-01,5.35402e-02,9.99999e-01,5.35402e-02,9.99999e-01
7.573835987e-01,5.67272e-02,9.99999e-01,5.67272e-02,9.99999e-01
7.611705167e-01,6.00354e-02,9.99999e-01,6.00354e-02,9.99999e-01
7.649763693e-01,6.34653e-02,9.99999e-01,6.34653e-02,9.99999e-01
7.688012511e-01,6.70177e-02,9.99999e-01,6.70177e-02,9.99999e-01
7.726452574e-01,7.06928e-02,9.99999e-01,7.06928e-02,9.99999e-01
7.765084837e-01,7.44908e-02,9.99999e-01,7.44908e-02,9.99999e-01
7.803910261e-01,7.08126e-02,9.03084e-01,7.84118e-02,9.99999e-01
7.842929812e-01,4.98896e-02,6.05048e-01,8.24556e-02,9.99999e-01
7.882144461e-01,5.09656e-02,5.88368e-01,8.66219e-02,9.99999e-01
7.921555184e-01,6.54088e-02,7.19488e-01,9.09101e-02,9.99999e-01
7.961162960e-01,7.62854e-02,8.00311e-01,9.53196e-02,9.99999e-01
8.000968774e-01,8.84639e-02,8.85972e-01,9.98495e-02,9.99999e-01
8.040973618e-01,9.81437e-02,9.39185e-01,1.04499e-01,9.99999e-01
8.081178486e-01,1.06155e-01,9.71522e-01,1.09266e-01,9.99999e-01
8.121584379e-01,1.13141e-01,9.91154e-01,1.14151e-01,9.99999e-01
8.162192301e-01,1.18917e-01,9.98039e-01,1.19150e-01,9.99999e-01
8.203003262e-01,1.24260e-01,9.99971e-01,1.24264e-01,9.99999e-01
8.244018279e-01,1.29489e-01,9.99999e-01,1.29489e-01,9.99999e-01
8.285238370e-01,1.34825e-01,9.99999e-01,1.34825e-01,9.99999e-01
8.326664562e-01,1.40268e-01,9.99999e-01,1.40268e-01,9.99999e-01
8.368297885e-01,1.45817e-01,9.99999e-01,1.45817e-01,9.99999e-01
8.410139374e-01,1.51469e-01,9.99999e-01,1.51469e-01,9.99999e-01
8.452190071e-01,1.57223e-01,9.99999e-01,1.57223e-01,9.99999e-01
8.494451021e-01,1.63075e-01,9.99999e-01,1.63075e-01,9.99999e-01
8.536923276e-01,1.69022e-01,9.99999e-01,1.69022e-01,9.99999e-01
8.579607893e-01,1.75063e-01,9.99999e-01,1.75063e-01,9.99999e-01
8.622505932e-01,1.81194e-01,9.99999e-01,1.81194e-01,9.99999e-01
8.665618462e-01,1.61094e-01,8.59572e-01,1.87411e-01,9.99999e-01
8.708946554e-01,5.65239e-02,2.91791e-01,1.93714e-01,9.99999e-01
8.752491287e-01,7.13163e-02,3.56408e-01,2.00097e-01,9.99999e-01
8.796253743e-01,1.15419e-01,5.58772e-01,2.06558e-01,9.99999e-01
8.840235012e-01,1.56534e-01,7.34576e-01,2.13095e-01,9.99999e-01
8.884436187e-01,1.94393e-01,8.84800e-01,2.19702e-01,9.99999e-01
8.928858368e-01,2.15387e-01,9.51444e-01,2.26378e-01,9.99999e-01
8.973502660e-01,2.30325e-01,9.88010e-01,2.33120e-01,9.99999e-01
9.018370173e-01,2.39604e-01,9.98673e-01,2.39922e-01,9.99999e-01
9.063462024e-01,2.38573e-01,9.66731e-01,2.46783e-01,9.99999e-01
9.108779334e-01,2.34568e-01,9.24590e-01,2.53699e-01,9.99999e-01
9.154323231e-01,2.55930e-01,9.81827e-01,2.60666e-01,9.99999e-01
9.200094847e-01,2.12689e-01,7.94559e-01,2.67682e-01,9.99999e-01
9.246095321e-01,1.87667e-01,6.83065e-01,2.74742e-01,9.99999e-01
9.292325798e-01,2.10120e-01,7.45521e-01,2.81843e-01,9.99999e-01
9.338787427e-01,2.16936e-01,7.50688e-01,2.88982e-01,9.99999e-01
9.385481364e-01,2.39388e-01,8.08317e-01,2.96156e-01,9.99999e-01
9.432408771e-01,2.66116e-01,8.77225e-01,3.03361e-01,9.99999e-01
9.479570815e-01,2.90362e-01,9.34862e-01,3.10593e-01,9.99999e-01
9.526968669e-01,3.07714e-01,9.68109e-01,3.17850e-01,9.99999e-01
9.574603512e-01,3.20650e-01,9.86226e-01,3.25128e-01,9.99999e-01
9.622476530e-01,3.30990e-01,9.95684e-01,3.32424e-01,9.99999e-01
9.670588912e-01,3.39296e-01,9.98706e-01,3.39735e-01,9.99999e-01
9.718941857e-01,3.47026e-01,9.99909e-01,3.47058e-01,9.99999e-01
9.767536566e-01,3.54389e-01,9.99999e-01,3.54389e-01,9.99999e-01
9.816374249e-01,3.61725e-01,9.99999e-01,3.61725e-01,9.99999e-01
9.865456120e-01,3.69064e-01,9.99999e-01,3.69064e-01,9.99999e-01
9.914783401e-01,3.76402e-01,9.99999e-01,3.76402e-01,9.99999e-01
9.964357318e-01,3.83738e-01,9.99999e-01,3.83738e-01,9.99999e-01
1.001417910e+00,3.91067e-01,9.99999e-01,3.91067e-01,9.99999e-01
1.006425000e+00,3.98387e-01,9.99999e-01,3.98387e-01,9.99999e-01
1.011457125e+00,4.05695e-01,9.99999e-01,4.05695e-01,9.99999e-01
1.016514411e+00,4.12989e-01,9.99999e-01,4.12989e-01,9.99999e-01
1.021596983e+00,4.20185e-01,9.99805e-01,4.20267e-01,9.99999e-01
1.026704968e+00,4.21825e-01,9.86666e-01,4.27525e-01,9.99999e-01
1.031838492e+00,3.89117e-01,8.95013e-01,4.34761e-01,9.99999e-01
1.036997685e+00,1.92710e-02,4.36021e-02,4.41973e-01,9.99999e-01
1.042182673e+00,8.77905e-04,1.95455e-03,4.49159e-01,9.99999e-01
1.047393587e+00,2.42197e-03,5.30765e-03,4.56317e-01,9.99999e-01
1.052630555e+00,1.08288e-07,2.33659e-07,4.63443e-01,9.99999e-01
1.057893707e+00,4.11900e-07,8.75382e-07,4.70537e-01,9.99999e-01
1.063183176e+00,1.65008e-05,3.45496e-05,4.77596e-01,9.99999e-01
1.068499092e+00,1.99627e-04,4.11924e-04,4.84619e-01,9.99999e-01
1.073841587e+00,3.17550e-03,6.45948e-03,4.91603e-01,9.99999e-01
1.079210795e+00,2.12281e-02,4.25800e-02,4.98547e-01,9.99999e-01
1.084606849e+00,8.34939e-02,1.65187e-01,5.05449e-01,9.99999e-01
1.090029883e+00,1.99095e-01,3.88624e-01,5.12307e-01,9.99999e-01
1.095480033e+00,3.25175e-01,6.26397e-01,5.19120e-01,9.99999e-01
1.100957433e+00,4.19148e-01,7.97032e-01,5.25886e-01,9.99999e-01
1.106462220e+00,4.84843e-01,9.10324e-01,5.32604e-01,9.99999e-01
1.111994531e+00,5.20788e-01,9.65721e-01,5.39273e-01,9.99999e-01
1.117554504e+00,5.41274e-01,9.91540e-01,5.45892e-01,9.99999e-01
1.123142276e+00,5.52151e-01,9.99444e-01,5.52458e-01,9.99999e-01
1.128757988e+00,5.58971e-01,9.99999e-01,5.58971e-01,9.99999e-01
1.134401778e+00,5.65430e-01,9.99999e-01,5.65430e-01,9.99999e-01
1.140073787e+00,5.71834e-01,9.99999e-01,5.71834e-01,9.99999e-01
1.145774156e+00,5.78182e-01,9.99999e-01,5.78182e-01,9.99999e-01
1.151503026e+00,5.84473e-01,9.99999e-01,5.84473e-01,9.99999e-01
1.157260541e+00,5.90706e-01,9.99999e-01,5.90706e-01,9.99999e-01
1.163046844e+00,5.96881e-01,9.99999e-01,5.96881e-01,9.99999e-01
1.168862078e+00,6.02996e-01,9.99999e-01,6.02996e-01,9.99999e-01
1.174706389e+00,6.09051e-01,9.99999e-01,6.09051e-01,9.99999e-01
1.180579921e+00,6.15045e-01,9.99999e-01,6.15045e-01,9.99999e-01
1.186482820e+00,6.20962e-01,9.99972e-01,6.20979e-01,9.99999e-01
1.192415234e+00,5.98612e-01,9.54951e-01,6.26851e-01,9.99999e-01
1.198377311e+00,3.21488e-01,5.08152e-01,6.32660e-01,9.99999e-01
1.204369197e+00,3.11147e-34,4.87380e-34,6.38407e-01,9.99999e-01
1.210391043e+00,1.16389e-139,1.80702e-139,6.44092e-01,9.99999e-01
1.216442998e+00,8.26937e-121,1.27277e-120,6.49713e-01,9.99999e-01
1.222525213e+00,5.45118e-119,8.31897e-119,6.55271e-01,9.99999e-01
1.228637839e+00,1.01230e-91,1.53200e-91,6.60765e-01,9.99999e-01
1.234781029e+00,6.31823e-57,9.48404e-57,6.66195e-01,9.99999e-01
1.240954934e+00,1.13242e-37,1.68624e-37,6.71561e-01,9.99999e-01
1.247159708e+00,5.84841e-18,8.64044e-18,6.76863e-01,9.99999e-01
1.253395507e+00,3.17000e-12,4.64740e-12,6.82102e-01,9.99999e-01
1.259662485e+00,3.05766e-07,4.44895e-07,6.87276e-01,9.99999e-01
1.265960797e+00,2.40099e-04,3.46770e-04,6.92386e-01,9.99999e-01
1.272290601e+00,1.55954e-02,2.23611e-02,6.97431e-01,9.99999e-01
1.278652054e+00,1.47187e-02,2.09544e-02,7.02413e-01,9.99999e-01
1.285045314e+00,8.65587e-06,1.22373e-05,7.07331e-01,9.99999e-01
1.291470541e+00,2.75144e-16,3.86337e-16,7.12186e-01,9.99999e-01
1.297927893e+00,1.02606e-05,1.43109e-05,7.16976e-01,9.99999e-01
1.304417533e+00,6.48641e-04,8.98763e-04,7.21704e-01,9.99999e-01
1.310939621e+00,1.71443e-04,2.36027e-04,7.26368e-01,9.99999e-01
1.317494319e+00,2.86872e-47,3.92454e-47,7.30969e-01,9.99999e-01
1.324081790e+00,6.68959e-31,9.09518e-31,7.35508e-01,9.99999e-01
1.330702199e+00,2.16216e-18,2.92189e-18,7.39985e-01,9.99999e-01
1.337355710e+00,9.51060e-17,1.27762e-16,7.44399e-01,9.99999e-01
1.344042489e+00,5.38189e-17,7.18780e-17,7.48752e-01,9.99999e-01
1.350762701e+00,1.05839e-18,1.40548e-18,7.53044e-01,9.99999e-01
1.357516515e+00,2.70415e-11,3.57089e-11,7.57274e-01,9.99999e-01
1.364304097e+00,2.34167e-08,3.07529e-08,7.61445e-01,9.99999e-01
1.371125618e+00,1.16617e-04,1.52330e-04,7.65555e-01,9.99999e-01
1.377981246e+00,3.70871e-04,4.81897e-04,7.69605e-01,9.99999e-01
1.384871152e+00,8.86993e-03,1.14658e-02,7.73597e-01,9.99999e-01
1.391795508e+00,1.28574e-02,1.65362e-02,7.77529e-01,9.99999e-01
1.398754485e+00,5.77587e-02,7.39166e-02,7.81403e-01,9.99999e-01
1.405748258e+00,1.18597e-01,1.51037e-01,7.85220e-01,9.99999e-01
1.412776999e+00,2.36259e-01,2.99449e-01,7.88979e-01,9.99999e-01
1.419840884e+00,2.26053e-01,2.85176e-01,7.92681e-01,9.99999e-01
1.426940089e+00,7.41834e-03,9.31568e-03,7.96327e-01,9.99999e-01
1.434074789e+00,0.00000e+00,0.00000e+00,7.99918e-01,9.99999e-01
1.441245163e+00,0.00000e+00,0.00000e+00,8.03453e-01,9.99999e-01
1.448451389e+00,0.00000e+00,0.00000e+00,8.06933e-01,9.99999e-01
1.455693646e+00,0.00000e+00,0.00000e+00,8.10360e-01,9.99999e-01
1.462972114e+00,0.00000e+00,0.00000e+00,8.13732e-01,9.99999e-01
1.470286975e+00,9.61375e-232,1.17664e-231,8.17052e-01,9.99999e-01
1.477638409e+00,3.17282e-145,3.86778e-145,8.20320e-01,9.99999e-01
1.485026601e+00,2.25941e-80,2.74355e-80,8.23535e-01,9.99999e-01
1.492451734e+00,2.18163e-68,2.63896e-68,8.26699e-01,9.99999e-01
1.499913993e+00,4.87751e-29,5.87784e-29,8.29813e-01,9.99999e-01
1.507413563e+00,8.87655e-28,1.06577e-27,8.32876e-01,9.99999e-01
1.514950631e+00,2.10767e-29,2.52147e-29,8.35890e-01,9.99999e-01
1.522525384e+00,6.68480e-103,7.96895e-103,8.38855e-01,9.99999e-01
1.530138011e+00,2.17992e-247,2.58968e-247,8.41772e-01,9.99999e-01
1.537788701e+00,1.08408e-182,1.28348e-182,8.44641e-01,9.99999e-01
1.545477645e+00,1.19938e-37,1.41525e-37,8.47462e-01,9.99999e-01
1.553205033e+00,1.43274e-27,1.68511e-27,8.50237e-01,9.99999e-01
1.560971058e+00,1.01090e-27,1.18516e-27,8.52966e-01,9.99999e-01
1.568775913e+00,0.00000e+00,0.00000e+00,8.55650e-01,9.99999e-01
1.576619793e+00,0.00000e+00,0.00000e+00,8.58289e-01,9.99999e-01
1.584502892e+00,0.00000e+00,0.00000e+00,8.60883e-01,9.99999e-01
1.592425406e+00,0.00000e+00,0.00000e+00,8.63434e-01,9.99999e-01
1.600387533e+00,0.00000e+00,0.00000e+00,8.65942e-01,9.99999e-01
1.608389471e+00,0.00000e+00,0.00000e+00,8.68408e-01,9.99999e-01
1.616431418e+00,0.00000e+00,0.00000e+00,8.70831e-01,9.99999e-01
1.624513575e+00,0.00000e+00,0.00000e+00,8.73214e-01,9.99999e-01
1.632636143e+00,0.00000e+00,0.00000e+00,8.75555e-01,9.99999e-01
1.640799324e+00,1.29969e-214,1.48052e-214,8.77857e-01,9.99999e-01
1.649003321e+00,1.30214e-214,1.47950e-214,8.80118e-01,9.99999e-01
1.657248337e+00,1.41853e-165,1.60769e-165,8.82341e-01,9.99999e-01
1.665534579e+00,1.08986e-166,1.23214e-166,8.84525e-01,9.99999e-01
1.673862252e+00,7.49473e-106,8.45265e-106,8.86672e-01,9.99999e-01
1.682231563e+00,6.32403e-73,7.11539e-73,8.88781e-01,9.99999e-01
1.690642721e+00,5.57391e-40,6.25682e-40,8.90853e-01,9.99999e-01
1.699095934e+00,2.75429e-25,3.08469e-25,8.92889e-01,9.99999e-01
1.707591414e+00,1.36946e-12,1.53031e-12,8.94890e-01,9.99999e-01
1.716129371e+00,1.00126e-07,1.11641e-07,8.96855e-01,9.99999e-01
1.724710018e+00,8.18551e-05,9.10729e-05,8.98785e-01,9.99999e-01
1.733333568e+00,1.65431e-03,1.83673e-03,9.00682e-01,9.99999e-01
1.742000236e+00,2.30986e-02,2.55927e-02,9.02545e-01,9.99999e-01
1.750710237e+00,3.15537e-05,3.48901e-05,9.04374e-01,9.99999e-01
1.759463788e+00,4.90760e-101,5.41574e-101,9.06172e-01,9.99999e-01
1.768261107e+00,8.94702e-106,9.85422e-106,9.07937e-01,9.99999e-01
1.777102413e+00,3.77042e-103,4.14482e-103,9.09671e-01,9.99999e-01
1.785987925e+00,2.08964e-96,2.29285e-96,9.11373e-01,9.99999e-01
1.794917864e+00,5.11517e-92,5.60232e-92,9.13045e-01,9.99999e-01
1.803892454e+00,2.22859e-88,2.43645e-88,9.14688e-01,9.99999e-01
1.812911916e+00,6.73351e-85,7.34858e-85,9.16300e-01,9.99999e-01
1.821976476e+00,5.71966e-85,6.23135e-85,9.17883e-01,9.99999e-01
1.831086358e+00,5.56317e-68,6.05061e-68,9.19438e-01,9.99999e-01
1.840241790e+00,8.31424e-58,9.02773e-58,9.20965e-01,9.99999e-01
1.849442999e+00,4.68633e-40,5.08022e-40,9.22464e-01,9.99999e-01
1.858690214e+00,9.42165e-38,1.01973e-37,9.23936e-01,9.99999e-01
1.867983665e+00,2.78419e-38,3.00869e-38,9.25381e-01,9.99999e-01
1.877323583e+00,3.23886e-194,3.49467e-194,9.26799e-01,9.99999e-01
