#,Wave/freq,Total,CO2,Rayleigh,CIA
4.000000000e-01,4.87594e-14,9.99999e-01,4.87594e-14,9.99999e-01
4.020000000e-01,8.93852e-14,9.99999e-01,8.93852e-14,9.99999e-01
4.040100000e-01,1.61812e-13,9.99999e-01,1.61812e-13,9.99999e-01
4.060300500e-01,2.89510e-13,9.99999e-01,2.89510e-13,9.99999e-01
4.080602003e-01,5.12068e-13,9.99999e-01,5.12068e-13,9.99999e-01
4.101005013e-01,8.95568e-13,9.99999e-01,8.95568e-13,9.99999e-01
4.121510038e-01,1.54908e-12,9.99999e-01,1.54908e-12,9.99999e-01
4.142117588e-01,2.65063e-12,9.99999e-01,2.65063e-12,9.99999e-01
4.162828176e-01,4.48763e-12,9.99999e-01,4.48763e-12,9.99999e-01
4.183642317e-01,7.51914e-12,9.99999e-01,7.51914e-12,9.99999e-01
4.204560528e-01,1.24707e-11,9.99999e-01,1.24707e-11,9.99999e-01
4.225583331e-01,2.04774e-11,9.99999e-01,2.04774e-11,9.99999e-01
4.246711247e-01,3.32969e-11,9.99999e-01,3.32969e-11,9.99999e-01
4.267944804e-01,5.36243e-11,9.99999e-01,5.36243e-11,9.99999e-01
4.289284528e-01,8.55524e-11,9.99999e-01,8.55524e-11,9.99999e-01
4.310730950e-01,1.35237e-10,9.99999e-01,1.35237e-10,9.99999e-01
4.332284605e-01,2.11851e-10,9.99999e-01,2.11851e-10,9.99999e-01
4.353946028e-01,3.28939e-10,9.99999e-01,3.28939e-10,9.99999e-01
4.375715758e-01,5.06321e-10,9.99999e-01,5.06321e-10,9.99999e-01
4.397594337e-01,7.72746e-10,9.99999e-01,7.72746e-10,9.99999e-01
4.419582309e-01,1.16956e-09,9.99999e-01,1.16956e-09,9.99999e-01
4.441680220e-01,1.75570e-09,9.99999e-01,1.75570e-09,9.99999e-01
4.463888621e-01,2.61453e-09,9.99999e-01,2.61453e-09,9.99999e-01
4.486208064e-01,3.86297e-09,9.99999e-01,3.86297e-09,9.99999e-01
4.508639105e-01,5.66370e-09,9.99999e-01,5.66370e-09,9.99999e-01
4.531182300e-01,8.24132e-09,9.99999e-01,8.24132e-09,9.99999e-01
4.553838212e-01,1.19035e-08,9.99999e-01,1.19035e-08,9.99999e-01
4.576607403e-01,1.70687e-08,9.99999e-01,1.70687e-08,9.99999e-01
4.599490440e-01,2.43016e-08,9.99999e-01,2.43016e-08,9.99999e-01
4.622487892e-01,3.43587e-08,9.99999e-01,3.43587e-08,9.99999e-01
4.645600332e-01,4.82468e-08,9.99999e-01,4.82468e-08,9.99999e-01
4.668828333e-01,6.72958e-08,9.99999e-01,6.72958e-08,9.99999e-01
4.692172475e-01,9.32509e-08,9.99999e-01,9.32509e-08,9.99999e-01
4.715633337e-01,1.28387e-07,9.99999e-01,1.28387e-07,9.99999e-01
4.739211504e-01,1.75648e-07,9.99999e-01,1.75648e-07,9.99999e-01
4.762907561e-01,2.38824e-07,9.99999e-01,2.38824e-07,9.99999e-01
4.786722099e-01,3.22759e-07,9.99999e-01,3.22759e-07,9.99999e-01
4.810655710e-01,4.33605e-07,9.99999e-01,4.33605e-07,9.99999e-01
4.834708988e-01,5.79131e-07,9.99999e-01,5.79131e-07,9.99999e-01
4.858882533e-01,7.69091e-07,9.99999e-01,7.69091e-07,9.99999e-01
4.883176946e-01,1.01565e-06,9.99999e-01,1.01565e-06,9.99999e-01
4.907592831e-01,1.33391e-06,9.99999e-01,1.33391e-06,9.99999e-01
4.932130795e-01,1.74249e-06,9.99999e-01,1.74249e-06,9.99999e-01
4.956791449e-01,2.26423e-06,9.99999e-01,2.26423e-06,9.99999e-01
4.981575406e-01,2.92702e-06,9.99999e-01,2.92702e-06,9.99999e-01
5.006483283e-01,3.76467e-06,9.99999e-01,3.76467e-06,9.99999e-01
5.031515699e-01,4.81803e-06,9.99999e-01,4.81803e-06,9.99999e-01
5.056673278e-01,6.13615e-06,9.99999e-01,6.13615e-06,9.99999e-01
5.081956644e-01,7.77765e-06,9.99999e-01,7.77765e-06,9.99999e-01
5.107366428e-01,9.81220e-06,9.99999e-01,9.81220e-06,9.99999e-01
5.132903260e-01,1.23223e-05,9.99999e-01,1.23223e-05,9.99999e-01
5.158567776e-01,1.54050e-05,9.99999e-01,1.54050e-05,9.99999e-01
5.184360615e-01,1.91742e-05,9.99999e-01,1.91742e-05,9.99999e-01
5.210282418e-01,2.37627e-05,9.99999e-01,2.37627e-05,9.99999e-01
5.236333830e-01,2.93247e-05,9.99999e-01,2.93247e-05,9.99999e-01
5.262515499e-01,3.60385e-05,9.99999e-01,3.60385e-05,9.99999e-01
5.288828077e-01,4.41095e-05,9.99999e-01,4.41095e-05,9.99999e-01
5.315272217e-01,5.37729e-05,9.99999e-01,5.37729e-05,9.99999e-01
5.341848578e-01,6.52973e-05,9.99999e-01,6.52973e-05,9.99999e-01
5.368557821e-01,7.89880e-05,9.99999e-01,7.89880e-05,9.99999e-01
5.395400610e-01,9.51907e-05,9.99999e-01,9.51907e-05,9.99999e-01
5.422377613e-01,1.14295e-04,9.99999e-01,1.14295e-04,9.99999e-01
5.449489501e-01,1.36739e-04,9.99999e-01,1.36739e-04,9.99999e-01
5.476736949e-01,1.63011e-04,9.99999e-01,1.63011e-04,9.99999e-01
5.504120634e-01,1.93658e-04,9.99999e-01,1.93658e-04,9.99999e-01
5.531641237e-01,2.29285e-04,9.99999e-01,2.29285e-04,9.99999e-01
5.559299443e-01,2.70562e-04,9.99999e-01,2.70562e-04,9.99999e-01
5.587095940e-01,3.18228e-04,9.99999e-01,3.18228e-04,9.99999e-01
5.615031420e-01,3.73094e-04,9.99999e-01,3.73094e-04,9.99999e-01
5.643106577e-01,4.36047e-04,9.99999e-01,4.36047e-04,9.99999e-01
5.671322110e-01,5.08055e-04,9.99999e-01,5.08055e-04,9.99999e-01
5.699678720e-01,5.90170e-04,9.99999e-01,5.90170e-04,9.99999e-01
5.728177114e-01,6.83531e-04,9.99999e-01,6.83531e-04,9.99999e-01
5.756818000e-01,7.89368e-04,9.99999e-01,7.89368e-04,9.99999e-01
5.785602090e-01,9.09004e-04,9.99999e-01,9.09004e-04,9.99999e-01
5.814530100e-01,1.04386e-03,9.99999e-01,1.04386e-03,9.99999e-01
5.843602750e-01,1.19545e-03,9.99999e-01,1.19545e-03,9.99999e-01
5.872820764e-01,1.36539e-03,9.99999e-01,1.36539e-03,9.99999e-01
5.902184868e-01,1.55540e-03,9.99999e-01,1.55540e-03,9.99999e-01
5.931695792e-01,1.76730e-03,9.99999e-01,1.76730e-03,9.99999e-01
5.961354271e-01,2.00301e-03,9.99999e-01,2.00301e-03,9.99999e-01
5.991161043e-01,2.26455e-03,9.99999e-01,2.26455e-03,9.99999e-01
6.021116848e-01,2.55404e-03,9.99999e-01,2.55404e-03,9.99999e-01
6.051222432e-01,2.87370e-03,9.99999e-01,2.87370e-03,9.99999e-01
6.081478544e-01,3.22584e-03,9.99999e-01,3.22584e-03,9.99999e-01
6.111885937e-01,3.61288e-03,9.99999e-01,3.61288e-03,9.99999e-01
6.142445367e-01,4.03731e-03,9.99999e-01,4.03731e-03,9.99999e-01
6.173157594e-01,4.50171e-03,9.99999e-01,4.50171e-03,9.99999e-01
6.204023382e-01,5.00875e-03,9.99999e-01,5.00875e-03,9.99999e-01
6.235043498e-01,5.56116e-03,9.99999e-01,5.56116e-03,9.99999e-01
6.266218716e-01,6.16175e-03,9.99999e-01,6.16175e-03,9.99999e-01
6.297549810e-01,6.81338e-03,9.99999e-01,6.81338e-03,9.99999e-01
6.329037559e-01,7.51898e-03,9.99999e-01,7.51898e-03,9.99999e-01
6.360682746e-01,8.28152e-03,9.99999e-01,8.28152e-03,9.99999e-01
6.392486160e-01,9.10401e-03,9.99999e-01,9.10401e-03,9.99999e-01
6.424448591e-01,9.98948e-03,9.99999e-01,9.98948e-03,9.99999e-01
6.456570834e-01,1.09410e-02,9.99999e-01,1.09410e-02,9.99999e-01
6.488853688e-01,1.19616e-02,9.99999e-01,1.19616e-02,9.99999e-01
6.521297956e-01,1.30545e-02,9.99999e-01,1.30545e-02,9.99999e-01
6.553904446e-01,1.42225e-02,9.99999e-01,1.42225e-02,9.99999e-01
6.586673968e-01,1.54689e-02,9.99999e-01,1.54689e-02,9.99999e-01
6.619607338e-01,1.67967e-02,9.99999e-01,1.67967e-02,9.99999e-01
6.652705375e-01,1.82087e-02,9.99999e-01,1.82087e-02,9.99999e-01
6.685968902e-01,1.97080e-02,9.99999e-01,1.97080e-02,9.99999e-01
6.719398746e-01,2.12975e-02,9.99999e-01,2.12975e-02,9.99999e-01
6.752995740e-01,2.29799e-02,9.99999e-01,2.29799e-02,9.99999e-01
6.786760719e-01,2.47580e-02,9.99999e-01,2.47580e-02,9.99999e-01
6.820694522e-01,2.66344e-02,9.99999e-01,2.66344e-02,9.99999e-01
6.854797995e-01,2.86118e-02,9.99999e-01,2.86118e-02,9.99999e-01
6.889071985e-01,3.06925e-02,9.99999e-01,3.06925e-02,9.99999e-01
6.923517345e-01,3.28788e-02,9.99999e-01,3.28788e-02,9.99999e-01
6.958134932e-01,3.51731e-02,9.99999e-01,3.51731e-02,9.99999e-01
6.992925606e-01,3.75774e-02,9.99999e-01,3.75774e-02,9.99999e-01
7.027890234e-01,4.00937e-02,9.99999e-01,4.00937e-02,9.99999e-01
7.063029686e-01,4.27237e-02,9.99999e-01,4.27237e-02,9.99999e-01
7.098344834e-01,4.54691e-02,9.99999e-01,4.54691e-02,9.99999e-01
7.133836558e-01,4.83314e-02,9.99999e-01,4.83314e-02,9.99999e-01
7.169505741e-01,5.13120e-02,9.99999e-01,5.13120e-02,9.99999e-01
7.205353270e-01,5.44121e-02,9.99999e-01,5.44121e-02,9.99999e-01
7.241380036e-01,5.76327e-02,9.99999e-01,5.76327e-02,9.99999e-01
7.277586936e-01,6.09746e-02,9.99999e-01,6.09746e-02,9.99999e-01
7.313974871e-01,6.44384e-02,9.99999e-01,6.44384e-02,9.99999e-01
7.350544745e-01,6.80248e-02,9.99999e-01,6.80248e-02,9.99999e-01
7.387297469e-01,7.17340e-02,9.99999e-01,7.17340e-02,9.99999e-01
7.424233956e-01,7.55661e-02,9.99999e-01,7.55661e-02,9.99999e-01
7.461355126e-01,7.95212e-02,9.99999e-01,7.95212e-02,9.99999e-01
7.498661902e-01,8.35990e-02,9.99999e-01,8.35990e-02,9.99999e-01
7.536155211e-01,8.77992e-02,9.99999e-01,8.77992e-02,9.99999e-01
7.573835987e-01,9.21211e-02,9.99999e-01,9.21211e-02,9.99999e-01
7.611705167e-01,9.65641e-02,9.99999e-01,9.65641e-02,9.99999e-01
7.649763693e-01,1.01127e-01,9.99999e-01,1.01127e-01,9.99999e-01
7.688012511e-01,1.05809e-01,9.99999e-01,1.05809e-01,9.99999e-01
7.726452574e-01,1.10609e-01,9.99999e-01,1.10609e-01,9.99999e-01
7.765084837e-01,1.15526e-01,9.99999e-01,1.15526e-01,9.99999e-01
7.803910261e-01,1.10053e-01,9.12865e-01,1.20557e-01,9.99999e-01
7.842929812e-01,8.24685e-02,6.56062e-01,1.25702e-01,9.99999e-01
7.882144461e-01,8.35844e-02,6.38252e-01,1.30958e-01,9.99999e-01
7.921555184e-01,1.03520e-01,7.59369e-01,1.36324e-01,9.99999e-01
7.961162960e-01,1.17901e-01,8.31476e-01,1.41797e-01,9.99999e-01
8.000968774e-01,1.33296e-01,9.04468e-01,1.47375e-01,9.99999e-01
8.040973618e-01,1.45322e-01,9.49475e-01,1.53055e-01,9.99999e-01
8.081178486e-01,1.55080e-01,9.76347e-01,1.58836e-01,9.99999e-01
8.121584379e-01,1.63518e-01,9.92731e-01,1.64715e-01,9.99999e-01
8.162192301e-01,1.70414e-01,9.98388e-01,1.70689e-01,9.99999e-01
8.203003262e-01,1.76751e-01,9.99978e-01,1.76754e-01,9.99999e-01
8.244018279e-01,1.82910e-01,9.99999e-01,1.82910e-01,9.99999e-01
8.285238370e-01,1.89151e-01,9.99999e-01,1.89151e-01,9.99999e-01
8.326664562e-01,1.95476e-01,9.99999e-01,1.95476e-01,9.99999e-01
8.368297885e-01,2.01882e-01,9.99999e-01,2.01882e-01,9.99999e-01
8.410139374e-01,2.08364e-01,9.99999e-01,2.08364e-01,9.99999e-01
8.452190071e-01,2.14920e-01,9.99999e-01,2.14920e-01,9.99999e-01
8.494451021e-01,2.21548e-01,9.99999e-01,2.21548e-01,9.99999e-01
8.536923276e-01,2.28242e-01,9.99999e-01,2.28242e-01,9.99999e-01
8.579607893e-01,2.35001e-01,9.99999e-01,2.35001e-01,9.99999e-01
8.622505932e-01,2.41820e-01,9.99999e-01,2.41820e-01,9.99999e-01
8.665618462e-01,2.15416e-01,8.66181e-01,2.48696e-01,9.99999e-01
8.708946554e-01,8.98685e-02,3.51561e-01,2.55627e-01,9.99999e-01
8.752491287e-01,1.10567e-01,4.21035e-01,2.62608e-01,9.99999e-01
8.796253743e-01,1.65942e-01,6.15430e-01,2.69636e-01,9.99999e-01
8.840235012e-01,2.14207e-01,7.74125e-01,2.76708e-01,9.99999e-01
8.884436187e-01,2.56537e-01,9.03871e-01,2.83820e-01,9.99999e-01
8.928858368e-01,2.79249e-01,9.59720e-01,2.90969e-01,9.99999e-01
8.973502660e-01,2.95208e-01,9.90126e-01,2.98151e-01,9.99999e-01
9.018370173e-01,3.05032e-01,9.98911e-01,3.05364e-01,9.99999e-01
9.063462024e-01,3.03750e-01,9.71676e-01,3.12604e-01,9.99999e-01
9.108779334e-01,2.99743e-01,9.37087e-01,3.19867e-01,9.99999e-01
9.154323231e-01,3.22264e-01,9.85063e-01,3.27150e-01,9.99999e-01
9.200094847e-01,2.73676e-01,8.18284e-01,3.34451e-01,9.99999e-01
9.246095321e-01,2.48981e-01,7.28514e-01,3.41765e-01,9.99999e-01
9.292325798e-01,2.72654e-01,7.81042e-01,3.49090e-01,9.99999e-01
9.338787427e-01,2.80717e-01,7.87593e-01,3.56423e-01,9.99999e-01
9.385481364e-01,3.04797e-01,8.37905e-01,3.63761e-01,9.99999e-01
9.432408771e-01,3.32949e-01,8.97195e-01,3.71100e-01,9.99999e-01
9.479570815e-01,3.57884e-01,9.45688e-01,3.78438e-01,9.99999e-01
9.526968669e-01,3.75559e-01,9.73528e-01,3.85771e-01,9.99999e-01
9.574603512e-01,3.88616e-01,9.88597e-01,3.93098e-01,9.99999e-01
9.622476530e-01,3.98988e-01,9.96435e-01,4.00415e-01,9.99999e-01
9.670588912e-01,4.07285e-01,9.98933e-01,4.07720e-01,9.99999e-01
9.718941857e-01,4.14979e-01,9.99926e-01,4.15010e-01,9.99999e-01
9.767536566e-01,4.22282e-01,9.99999e-01,4.22282e-01,9.99999e-01
9.816374249e-01,4.29534e-01,9.99999e-01,4.29534e-01,9.99999e-01
9.865456120e-01,4.36764e-01,9.99999e-01,4.36764e-01,9.99999e-01
9.914783401e-01,4.43969e-01,9.99999e-01,4.43969e-01,9.99999e-01
9.964357318e-01,4.51148e-01,9.99999e-01,4.51148e-01,9.99999e-01
1.001417910e+00,4.58297e-01,9.99999e-01,4.58297e-01,9.99999e-01
1.006425000e+00,4.65414e-01,9.99999e-01,4.65414e-01,9.99999e-01
1.011457125e+00,4.72499e-01,9.99999e-01,4.72499e-01,9.99999e-01
1.016514411e+00,4.79548e-01,9.99999e-01,4.79548e-01,9.99999e-01
1.021596983e+00,4.86473e-01,9.99820e-01,4.86560e-01,9.99999e-01
1.026704968e+00,4.87941e-01,9.88668e-01,4.93533e-01,9.99999e-01
1.031838492e+00,4.51983e-01,9.03125e-01,5.00466e-01,9.99999e-01
1.036997685e+00,2.67740e-02,5.27716e-02,5.07355e-01,9.99999e-01
1.042182673e+00,2.31193e-03,4.49615e-03,5.14201e-01,9.99999e-01
1.047393587e+00,5.61015e-03,1.07680e-02,5.21001e-01,9.99999e-01
1.052630555e+00,1.00294e-06,1.90039e-06,5.27755e-01,9.99999e-01
1.057893707e+00,3.87519e-06,7.25067e-06,5.34459e-01,9.99999e-01
1.063183176e+00,8.34712e-05,1.54258e-04,5.41114e-01,9.99999e-01
1.068499092e+00,7.60744e-04,1.38893e-03,5.47718e-01,9.99999e-01
1.073841587e+00,8.11124e-03,1.46341e-02,5.54270e-01,9.99999e-01
1.079210795e+00,3.94735e-02,7.03918e-02,5.60768e-01,9.99999e-01
1.084606849e+00,1.26476e-01,2.22978e-01,5.67212e-01,9.99999e-01
1.090029883e+00,2.61208e-01,4.55383e-01,5.73601e-01,9.99999e-01
1.095480033e+00,3.93286e-01,6.78157e-01,5.79933e-01,9.99999e-01
1.100957433e+00,4.85669e-01,8.28491e-01,5.86208e-01,9.99999e-01
1.106462220e+00,5.48097e-01,9.25175e-01,5.92425e-01,9.99999e-01
1.111994531e+00,5.81553e-01,9.71549e-01,5.98583e-01,9.99999e-01
1.117554504e+00,6.00464e-01,9.93024e-01,6.04681e-01,9.99999e-01
1.123142276e+00,6.10442e-01,9.99544e-01,6.10720e-01,9.99999e-01
1.128757988e+00,6.16697e-01,9.99999e-01,6.16697e-01,9.99999e-01
1.134401778e+00,6.22614e-01,9.99999e-01,6.22614e-01,9.99999e-01
1.140073787e+00,6.28468e-01,9.99999e-01,6.28468e-01,9.99999e-01
1.145774156e+00,6.34261e-01,9.99999e-01,6.34261e-01,9.99999e-01
1.151503026e+00,6.39990e-01,9.99999e-01,6.39990e-01,9.99999e-01
1.157260541e+00,6.45657e-01,9.99999e-01,6.45657e-01,9.99999e-01
1.163046844e+00,6.51261e-01,9.99999e-01,6.51261e-01,9.99999e-01
1.168862078e+00,6.56801e-01,9.99999e-01,6.56801e-01,9.99999e-01
1.174706389e+00,6.62277e-01,9.99999e-01,6.62277e-01,9.99999e-01
1.180579921e+00,6.67690e-01,9.99999e-01,6.67690e-01,9.99999e-01
1.186482820e+00,6.73020e-01,9.99971e-01,6.73038e-01,9.99999e-01
1.192415234e+00,6.51944e-01,9.61111e-01,6.78323e-01,9.99999e-01
1.198377311e+00,3.53904e-01,5.17749e-01,6.83543e-01,9.99999e-01
1.204369197e+00,7.87813e-29,1.14391e-28,6.88700e-01,9.99999e-01
1.210391043e+00,1.88724e-116,2.72018e-116,6.93792e-01,9.99999e-01
1.216442998e+00,8.78807e-101,1.25756e-100,6.98820e-01,9.99999e-01
1.222525213e+00,2.85260e-99,4.05322e-99,7.03784e-01,9.99999e-01
1.228637839e+00,1.34811e-76,1.90227e-76,7.08684e-01,9.99999e-01
1.234781029e+00,1.08741e-47,1.52401e-47,7.13521e-01,9.99999e-01
1.240954934e+00,1.21506e-31,1.69160e-31,7.18294e-01,9.99999e-01
1.247159708e+00,2.63685e-15,3.64708e-15,7.23004e-01,9.99999e-01
1.253395507e+00,2.20642e-10,3.03225e-10,7.27651e-01,9.99999e-01
1.259662485e+00,3.06918e-06,4.19152e-06,7.32235e-01,9.99999e-01
1.265960797e+00,8.20650e-04,1.11387e-03,7.36756e-01,9.99999e-01
1.272290601e+00,3.06366e-02,4.13329e-02,7.41215e-01,9.99999e-01
1.278652054e+00,2.72295e-02,3.65195e-02,7.45613e-01,9.99999e-01
1.285045314e+00,3.49865e-05,4.66518e-05,7.49949e-01,9.99999e-01
1.291470541e+00,8.35059e-14,1.10718e-13,7.54223e-01,9.99999e-01
1.297927893e+00,4.20355e-05,5.54238e-05,7.58437e-01,9.99999e-01
1.304417533e+00,2.13235e-03,2.79619e-03,7.62591e-01,9.99999e-01
1.310939621e+00,3.89279e-04,5.07743e-04,7.66684e-01,9.99999e-01
1.317494319e+00,2.98781e-40,3.87665e-40,7.70718e-01,9.99999e-01
1.324081790e+00,1.47635e-18,1.90572e-18,7.74693e-01,9.99999e-01
1.330702199e+00,1.69214e-15,2.17328e-15,7.78610e-01,9.99999e-01
1.337355710e+00,4.50230e-14,5.75398e-14,7.82468e-01,9.99999e-01
1.344042489e+00,6.08142e-17,7.73453e-17,7.86268e-01,9.99999e-01
1.350762701e+00,8.76255e-16,1.10917e-15,7.90012e-01,9.99999e-01
1.357516515e+00,1.08214e-09,1.36342e-09,7.93698e-01,9.99999e-01
1.364304097e+00,3.92413e-07,4.92159e-07,7.97329e-01,9.99999e-01
1.371125618e+00,4.95112e-04,6.18191e-04,8.00904e-01,9.99999e-01
1.377981246e+00,1.35130e-03,1.67983e-03,8.04424e-01,9.99999e-01
1.384871152e+00,1.93524e-02,2.39542e-02,8.07889e-01,9.99999e-01
1.391795508e+00,2.63027e-02,3.24203e-02,8.11301e-01,9.99999e-01
1.398754485e+00,9.35602e-02,1.14846e-01,8.14659e-01,9.99999e-01
1.405748258e+00,1.69670e-01,2.07429e-01,8.17964e-01,9.99999e-01
1.412776999e+00,3.01865e-01,3.67582e-01,8.21217e-01,9.99999e-01
1.419840884e+00,2.78047e-01,3.37264e-01,8.24418e-01,9.99999e-01
1.426940089e+00,1.04124e-02,1.25820e-02,8.27568e-01,9.99999e-01
1.434074789e+00,0.00000e+00,0.00000e+00,8.30668e-01,9.99999e-01
1.441245163e+00,0.00000e+00,0.00000e+00,8.33717e-01,9.99999e-01
1.448451389e+00,0.00000e+00,0.00000e+00,8.36718e-01,9.99999e-01
1.455693646e+00,0.00000e+00,0.00000e+00,8.39669e-01,9.99999e-01
1.462972114e+00,0.00000e+00,0.00000e+00,8.42572e-01,9.99999e-01
1.470286975e+00,5.68589e-193,6.72545e-193,8.45428e-01,9.99999e-01
1.477638409e+00,4.51692e-121,5.32506e-121,8.48237e-01,9.99999e-01
1.485026601e+00,3.56061e-67,4.18404e-67,8.50999e-01,9.99999e-01
1.492451734e+00,3.44004e-57,4.02949e-57,8.53715e-01,9.99999e-01
1.499913993e+00,1.64792e-24,1.92427e-24,8.56386e-01,9.99999e-01
1.507413563e+00,2.88729e-23,3.36116e-23,8.59013e-01,9.99999e-01
1.514950631e+00,8.15000e-25,9.45918e-25,8.61595e-01,9.99999e-01
1.522525384e+00,6.72183e-86,7.77868e-86,8.64134e-01,9.99999e-01
1.530138011e+00,5.48175e-206,6.32535e-206,8.66630e-01,9.99999e-01
1.537788701e+00,3.23928e-152,3.72723e-152,8.69084e-01,9.99999e-01
1.545477645e+00,1.14344e-31,1.31204e-31,8.71496e-01,9.99999e-01
1.553205033e+00,3.80677e-23,4.35623e-23,8.73867e-01,9.99999e-01
1.560971058e+00,2.13483e-23,2.43647e-23,8.76198e-01,9.99999e-01
1.568775913e+00,0.00000e+00,0.00000e+00,8.78488e-01,9.99999e-01
1.576619793e+00,0.00000e+00,0.00000e+00,8.80739e-01,9.99999e-01
1.584502892e+00,0.00000e+00,0.00000e+00,8.82951e-01,9.99999e-01
1.592425406e+00,0.00000e+00,0.00000e+00,8.85125e-01,9.99999e-01
1.600387533e+00,0.00000e+00,0.00000e+00,8.87261e-01,9.99999e-01
1.608389471e+00,0.00000e+00,0.00000e+00,8.89359e-01,9.99999e-01
1.616431418e+00,0.00000e+00,0.00000e+00,8.91422e-01,9.99999e-01
1.624513575e+00,0.00000e+00,0.00000e+00,8.93448e-01,9.99999e-01
1.632636143e+00,0.00000e+00,0.00000e+00,8.95438e-01,9.99999e-01
1.640799324e+00,9.74426e-179,1.08584e-178,8.97394e-01,9.99999e-01
1.649003321e+00,9.75953e-179,1.08522e-178,8.99315e-01,9.99999e-01
1.657248337e+00,5.48271e-138,6.08377e-138,9.01202e-01,9.99999e-01
1.665534579e+00,6.49034e-139,7.18708e-139,9.03055e-01,9.99999e-01
1.673862252e+00,2.37777e-88,2.62772e-88,9.04876e-01,9.99999e-01
1.682231563e+00,5.50563e-61,6.07239e-61,9.06665e-01,9.99999e-01
1.690642721e+00,1.32033e-33,1.45343e-33,9.08421e-01,9.99999e-01
1.699095934e+00,2.40226e-21,2.63942e-21,9.10146e-01,9.99999e-01
1.707591414e+00,8.16482e-11,8.95422e-11,9.11840e-01,9.99999e-01
1.716129371e+00,1.18905e-06,1.30164e-06,9.13504e-01,9.99999e-01
1.724710018e+00,3.58614e-04,3.91869e-04,9.15138e-01,9.99999e-01
1.733333568e+00,4.65563e-03,5.07845e-03,9.16742e-01,9.99999e-01
1.742000236e+00,4.22445e-02,4.60020e-02,9.18318e-01,9.99999e-01
1.750710237e+00,1.05159e-04,1.14320e-04,9.19865e-01,9.99999e-01
1.759463788e+00,2.41564e-84,2.62175e-84,9.21383e-01,9.99999e-01
1.768261107e+00,2.75813e-88,2.98863e-88,9.22875e-01,9.99999e-01
1.777102413e+00,4.63388e-86,5.01318e-86,9.24339e-01,9.99999e-01
1.785987925e+00,1.69051e-80,1.82604e-80,9.25777e-01,9.99999e-01
1.794917864e+00,7.51708e-77,8.10739e-77,9.27188e-01,9.99999e-01
1.803892454e+00,7.94062e-74,8.55140e-74,9.28574e-01,9.99999e-01
1.812911916e+00,6.24017e-71,6.71033e-71,9.29934e-01,9.99999e-01
1.821976476e+00,5.41158e-71,5.81097e-71,9.31269e-01,9.99999e-01
1.831086358e+00,7.10080e-57,7.61414e-57,9.32580e-01,9.99999e-01
1.840241790e+00,2.13601e-48,2.28727e-48,9.33866e-01,9.99999e-01
1.849442999e+00,1.39628e-33,1.49314e-33,9.35129e-01,9.99999e-01
1.858690214e+00,1.27863e-31,1.36552e-31,9.36369e-01,9.99999e-01
1.867983665e+00,3.42075e-32,3.64846e-32,9.37586e-01,9.99999e-01
1.877323583e+00,8.53120e-162,9.08753e-162,9.38780e-01,9.99999e-01
