#,Wave/freq,Total,CO2,Rayleigh,CIA
4.000000000e-01,6.11682e-05,9.99999e-01,6.11682e-05,9.99999e-01
4.020000000e-01,7.41036e-05,9.99999e-01,7.41036e-05,9.99999e-01
4.040100000e-01,8.94170e-05,9.99999e-01,8.94170e-05,9.99999e-01
4.060300500e-01,1.07495e-04,9.99999e-01,1.07495e-04,9.99999e-01
4.080602003e-01,1.28760e-04,9.99999e-01,1.28760e-04,9.99999e-01
4.101005013e-01,1.53681e-04,9.99999e-01,1.53681e-04,9.99999e-01
4.121510038e-01,1.82787e-04,9.99999e-01,1.82787e-04,9.99999e-01
4.142117588e-01,2.16661e-04,9.99999e-01,2.16661e-04,9.99999e-01
4.162828176e-01,2.55952e-04,9.99999e-01,2.55952e-04,9.99999e-01
4.183642317e-01,3.01374e-04,9.99999e-01,3.01374e-04,9.99999e-01
4.204560528e-01,3.53714e-04,9.99999e-01,3.53714e-04,9.99999e-01
4.225583331e-01,4.13833e-04,9.99999e-01,4.13833e-04,9.99999e-01
4.246711247e-01,4.82671e-04,9.99999e-01,4.82671e-04,9.99999e-01
4.267944804e-01,5.61251e-04,9.99999e-01,5.61251e-04,9.99999e-01
4.289284528e-01,6.50683e-04,9.99999e-01,6.50683e-04,9.99999e-01
4.310730950e-01,7.52165e-04,9.99999e-01,7.52165e-04,9.99999e-01
4.332284605e-01,8.66989e-04,9.99999e-01,8.66989e-04,9.99999e-01
4.353946028e-01,9.96542e-04,9.99999e-01,9.96542e-04,9.99999e-01
4.375715758e-01,1.14231e-03,9.99999e-01,1.14231e-03,9.99999e-01
4.397594337e-01,1.30587e-03,9.99999e-01,1.30587e-03,9.99999e-01
4.419582309e-01,1.48890e-03,9.99999e-01,1.48890e-03,9.99999e-01
4.441680220e-01,1.69321e-03,9.99999e-01,1.69321e-03,9.99999e-01
4.463888621e-01,1.92066e-03,9.99999e-01,1.92066e-03,9.99999e-01
4.486208064e-01,2.17324e-03,9.99999e-01,2.17324e-03,9.99999e-01
4.508639105e-01,2.45305e-03,9.99999e-01,2.45305e-03,9.99999e-01
4.531182300e-01,2.76227e-03,9.99999e-01,2.76227e-03,9.99999e-01
4.553838212e-01,3.10319e-03,9.99999e-01,3.10319e-03,9.99999e-01
4.576607403e-01,3.47817e-03,9.99999e-01,3.47817e-03,9.99999e-01
4.599490440e-01,3.88969e-03,9.99999e-01,3.88969e-03,9.99999e-01
4.622487892e-01,4.34031e-03,9.99999e-01,4.34031e-03,9.99999e-01
4.645600332e-01,4.83265e-03,9.99999e-01,4.83265e-03,9.99999e-01
4.668828333e-01,5.36943e-03,9.99999e-01,5.36943e-03,9.99999e-01
4.692172475e-01,5.95344e-03,9.99999e-01,5.95344e-03,9.99999e-01
4.715633337e-01,6.58752e-03,9.99999e-01,6.58752e-03,9.99999e-01
4.739211504e-01,7.27457e-03,9.99999e-01,7.27457e-03,9.99999e-01
4.762907561e-01,8.01755e-03,9.99999e-01,8.01755e-03,9.99999e-01
4.786722099e-01,8.81947e-03,9.99999e-01,8.81947e-03,9.99999e-01
4.810655710e-01,9.68333e-03,9.99999e-01,9.68333e-03,9.99999e-01
4.834708988e-01,1.06122e-02,9.99999e-01,1.06122e-02,9.99999e-01
4.858882533e-01,1.16092e-02,9.99999e-01,1.16092e-02,9.99999e-01
4.883176946e-01,1.26773e-02,9.99999e-01,1.26773e-02,9.99999e-01
4.907592831e-01,1.38196e-02,9.99999e-01,1.38196e-02,9.99999e-01
4.932130795e-01,1.50392e-02,9.99999e-01,1.50392e-02,9.99999e-01
4.956791449e-01,1.63392e-02,9.99999e-01,1.63392e-02,9.99999e-01
4.981575406e-01,1.77224e-02,9.99999e-01,1.77224e-02,9.99999e-01
5.006483283e-01,1.91920e-02,9.99999e-01,1.91920e-02,9.99999e-01
5.031515699e-01,2.07507e-02,9.99999e-01,2.07507e-02,9.99999e-01
5.056673278e-01,2.24014e-02,9.99999e-01,2.24014e-02,9.99999e-01
5.081956644e-01,2.41469e-02,9.99999e-01,2.41469e-02,9.99999e-01
5.107366428e-01,2.59898e-02,9.99999e-01,2.59898e-02,9.99999e-01
5.132903260e-01,2.79328e-02,9.99999e-01,2.79328e-02,9.99999e-01
5.158567776e-01,2.99784e-02,9.99999e-01,2.99784e-02,9.99999e-01
5.184360615e-01,3.21288e-02,9.99999e-01,3.21288e-02,9.99999e-01
5.210282418e-01,3.43864e-02,9.99999e-01,3.43864e-02,9.99999e-01
5.236333830e-01,3.67534e-02,9.99999e-01,3.67534e-02,9.99999e-01
5.262515499e-01,3.92316e-02,9.99999e-01,3.92316e-02,9.99999e-01
5.288828077e-01,4.18230e-02,9.99999e-01,4.18230e-02,9.99999e-01
5.315272217e-01,4.45293e-02,9.99999e-01,4.45293e-02,9.99999e-01
5.341848578e-01,4.73520e-02,9.99999e-01,4.73520e-02,9.99999e-01
5.368557821e-01,5.02926e-02,9.99999e-01,5.02926e-02,9.99999e-01
5.395400610e-01,5.33522e-02,9.99999e-01,5.33522e-02,9.99999e-01
5.422377613e-01,5.65320e-02,9.99999e-01,5.65320e-02,9.99999e-01
5.449489501e-01,5.98328e-02,9.99999e-01,5.98328e-02,9.99999e-01
5.476736949e-01,6.32554e-02,9.99999e-01,6.32554e-02,9.99999e-01
5.504120634e-01,6.68004e-02,9.99999e-01,6.68004e-02,9.99999e-01
5.531641237e-01,7.04681e-02,9.99999e-01,7.04681e-02,9.99999e-01
5.559299443e-01,7.42587e-02,9.99999e-01,7.42587e-02,9.99999e-01
5.587095940e-01,7.81723e-02,9.99999e-01,7.81723e-02,9.99999e-01
5.615031420e-01,8.22088e-02,9.99999e-01,8.22088e-02,9.99999e-01
5.643106577e-01,8.63677e-02,9.99999e-01,8.63677e-02,9.99999e-01
5.671322110e-01,9.06485e-02,9.99999e-01,9.06485e-02,9.99999e-01
5.699678720e-01,9.50507e-02,9.99999e-01,9.50507e-02,9.99999e-01
5.728177114e-01,9.95734e-02,9.99999e-01,9.95734e-02,9.99999e-01
5.756818000e-01,1.04216e-01,9.99999e-01,1.04216e-01,9.99999e-01
5.785602090e-01,1.08976e-01,9.99999e-01,1.08976e-01,9.99999e-01
5.814530100e-01,1.13853e-01,9.99999e-01,1.13853e-01,9.99999e-01
5.843602750e-01,1.18846e-01,9.99999e-01,1.18846e-01,9.99999e-01
5.872820764e-01,1.23953e-01,9.99999e-01,1.23953e-01,9.99999e-01
5.902184868e-01,1.29172e-01,9.99999e-01,1.29172e-01,9.99999e-01
5.931695792e-01,1.34500e-01,9.99999e-01,1.34500e-01,9.99999e-01
5.961354271e-01,1.39937e-01,9.99999e-01,1.39937e-01,9.99999e-01
5.991161043e-01,1.45480e-01,9.99999e-01,1.45480e-01,9.99999e-01
6.021116848e-01,1.51126e-01,9.99999e-01,1.51126e-01,9.99999e-01
6.051222432e-01,1.56874e-01,9.99999e-01,1.56874e-01,9.99999e-01
6.081478544e-01,1.62720e-01,9.99999e-01,1.62720e-01,9.99999e-01
6.111885937e-01,1.68662e-01,9.99999e-01,1.68662e-01,9.99999e-01
6.142445367e-01,1.74697e-01,9.99999e-01,1.74697e-01,9.99999e-01
6.173157594e-01,1.80822e-01,9.99999e-01,1.80822e-01,9.99999e-01
6.204023382e-01,1.87035e-01,9.99999e-01,1.87035e-01,9.99999e-01
6.235043498e-01,1.93332e-01,9.99999e-01,1.93332e-01,9.99999e-01
6.266218716e-01,1.99711e-01,9.99999e-01,1.99711e-01,9.99999e-01
6.297549810e-01,2.06167e-01,9.99999e-01,2.06167e-01,9.99999e-01
6.329037559e-01,2.12699e-01,9.99999e-01,2.12699e-01,9.99999e-01
6.360682746e-01,2.19303e-01,9.99999e-01,2.19303e-01,9.99999e-01
6.392486160e-01,2.25975e-01,9.99999e-01,2.25975e-01,9.99999e-01
6.424448591e-01,2.32712e-01,9.99999e-01,2.32712e-01,9.99999e-01
6.456570834e-01,2.39511e-01,9.99999e-01,2.39511e-01,9.99999e-01
6.488853688e-01,2.46369e-01,9.99999e-01,2.46369e-01,9.99999e-01
6.521297956e-01,2.53281e-01,9.99999e-01,2.53281e-01,9.99999e-01
6.553904446e-01,2.60246e-01,9.99999e-01,2.60246e-01,9.99999e-01
6.586673968e-01,2.67258e-01,9.99999e-01,2.67258e-01,9.99999e-01
6.619607338e-01,2.74316e-01,9.99999e-01,2.74316e-01,9.99999e-01
6.652705375e-01,2.81415e-01,9.99999e-01,2.81415e-01,9.99999e-01
6.685968902e-01,2.88552e-01,9.99999e-01,2.88552e-01,9.99999e-01
6.719398746e-01,2.95723e-01,9.99999e-01,2.95723e-01,9.99999e-01
6.752995740e-01,3.02926e-01,9.99999e-01,3.02926e-01,9.99999e-01
6.786760719e-01,3.10157e-01,9.99999e-01,3.10157e-01,9.99999e-01
6.820694522e-01,3.17413e-01,9.99999e-01,3.17413e-01,9.99999e-01
6.854797995e-01,3.24689e-01,9.99999e-01,3.24689e-01,9.99999e-01
6.889071985e-01,3.31985e-01,9.99999e-01,3.31985e-01,9.99999e-01
6.923517345e-01,3.39295e-01,9.99999e-01,3.39295e-01,9.99999e-01
6.958134932e-01,3.46617e-01,9.99999e-01,3.46617e-01,9.99999e-01
6.992925606e-01,3.53947e-01,9.99999e-01,3.53947e-01,9.99999e-01
7.027890234e-01,3.61283e-01,9.99999e-01,3.61283e-01,9.99999e-01
7.063029686e-01,3.68622e-01,9.99999e-01,3.68622e-01,9.99999e-01
7.098344834e-01,3.75961e-01,9.99999e-01,3.75961e-01,9.99999e-01
7.133836558e-01,3.83296e-01,9.99999e-01,3.83296e-01,9.99999e-01
7.169505741e-01,3.90626e-01,9.99999e-01,3.90626e-01,9.99999e-01
7.205353270e-01,3.97946e-01,9.99999e-01,3.97946e-01,9.99999e-01
7.241380036e-01,4.05256e-01,9.99999e-01,4.05256e-01,9.99999e-01
7.277586936e-01,4.12551e-01,9.99999e-01,4.12551e-01,9.99999e-01
7.313974871e-01,4.19829e-01,9.99999e-01,4.19829e-01,9.99999e-01
7.350544745e-01,4.27088e-01,9.99999e-01,4.27088e-01,9.99999e-01
7.387297469e-01,4.34326e-01,9.99999e-01,4.34326e-01,9.99999e-01
7.424233956e-01,4.41540e-01,9.99999e-01,4.41540e-01,9.99999e-01
7.461355126e-01,4.48728e-01,9.99999e-01,4.48728e-01,9.99999e-01
7.498661902e-01,4.55887e-01,9.99999e-01,4.55887e-01,9.99999e-01
7.536155211e-01,4.63015e-01,9.99999e-01,4.63015e-01,9.99999e-01
7.573835987e-01,4.70111e-01,9.99999e-01,4.70111e-01,9.99999e-01
7.611705167e-01,4.77173e-01,9.99999e-01,4.77173e-01,9.99999e-01
7.649763693e-01,4.84197e-01,9.99999e-01,4.84197e-01,9.99999e-01
7.688012511e-01,4.91184e-01,9.99999e-01,4.91184e-01,9.99999e-01
7.726452574e-01,4.98130e-01,9.99999e-01,4.98130e-01,9.99999e-01
7.765084837e-01,5.05034e-01,9.99999e-01,5.05034e-01,9.99999e-01
7.803910261e-01,4.96069e-01,9.69083e-01,5.11895e-01,9.99999e-01
7.842929812e-01,4.49912e-01,8.67365e-01,5.18711e-01,9.99999e-01
7.882144461e-01,4.51476e-01,8.59168e-01,5.25480e-01,9.99999e-01
7.921555184e-01,4.87217e-01,9.15473e-01,5.32201e-01,9.99999e-01
7.961162960e-01,5.07800e-01,9.42335e-01,5.38873e-01,9.99999e-01
8.000968774e-01,5.28235e-01,9.68359e-01,5.45495e-01,9.99999e-01
8.040973618e-01,5.42923e-01,9.83441e-01,5.52064e-01,9.99999e-01
8.081178486e-01,5.54329e-01,9.92387e-01,5.58581e-01,9.99999e-01
8.121584379e-01,5.63704e-01,9.97629e-01,5.65043e-01,9.99999e-01
8.162192301e-01,5.71151e-01,9.99475e-01,5.71450e-01,9.99999e-01
8.203003262e-01,5.77797e-01,9.99991e-01,5.77802e-01,9.99999e-01
8.244018279e-01,5.84096e-01,9.99999e-01,5.84096e-01,9.99999e-01
8.285238370e-01,5.90333e-01,9.99999e-01,5.90333e-01,9.99999e-01
8.326664562e-01,5.96511e-01,9.99999e-01,5.96511e-01,9.99999e-01
8.368297885e-01,6.02629e-01,9.99999e-01,6.02629e-01,9.99999e-01
8.410139374e-01,6.08688e-01,9.99999e-01,6.08688e-01,9.99999e-01
8.452190071e-01,6.14686e-01,9.99999e-01,6.14686e-01,9.99999e-01
8.494451021e-01,6.20623e-01,9.99999e-01,6.20623e-01,9.99999e-01
8.536923276e-01,6.26499e-01,9.99999e-01,6.26499e-01,9.99999e-01
8.579607893e-01,6.32312e-01,9.99999e-01,6.32312e-01,9.99999e-01
8.622505932e-01,6.38063e-01,9.99999e-01,6.38063e-01,9.99999e-01
8.665618462e-01,5.98675e-01,9.29977e-01,6.43751e-01,9.99999e-01
8.708946554e-01,4.52669e-01,6.97082e-01,6.49376e-01,9.99999e-01
8.752491287e-01,4.89548e-01,7.47471e-01,6.54938e-01,9.99999e-01
8.796253743e-01,5.62892e-01,8.52303e-01,6.60436e-01,9.99999e-01
8.840235012e-01,6.12966e-01,9.20548e-01,6.65870e-01,9.99999e-01
8.884436187e-01,6.49647e-01,9.67830e-01,6.71240e-01,9.99999e-01
8.928858368e-01,6.67663e-01,9.86869e-01,6.76546e-01,9.99999e-01
8.973502660e-01,6.79595e-01,9.96782e-01,6.81788e-01,9.99999e-01
9.018370173e-01,6.86722e-01,9.99644e-01,6.86966e-01,9.99999e-01
9.063462024e-01,6.85922e-01,9.91101e-01,6.92080e-01,9.99999e-01
9.108779334e-01,6.82757e-01,9.79383e-01,6.97130e-01,9.99999e-01
9.154323231e-01,6.98671e-01,9.95093e-01,7.02115e-01,9.99999e-01
9.200094847e-01,6.58830e-01,9.31818e-01,7.07037e-01,9.99999e-01
9.246095321e-01,6.42911e-01,9.03097e-01,7.11895e-01,9.99999e-01
9.292325798e-01,6.61999e-01,9.23689e-01,7.16690e-01,9.99999e-01
9.338787427e-01,6.67818e-01,9.25697e-01,7.21421e-01,9.99999e-01
9.385481364e-01,6.86063e-01,9.44874e-01,7.26089e-01,9.99999e-01
9.432408771e-01,7.05720e-01,9.65820e-01,7.30694e-01,9.99999e-01
9.479570815e-01,7.22261e-01,9.82351e-01,7.35237e-01,9.99999e-01
9.526968669e-01,7.33387e-01,9.91441e-01,7.39717e-01,9.99999e-01
9.574603512e-01,7.41405e-01,9.96330e-01,7.44135e-01,9.99999e-01
9.622476530e-01,7.47634e-01,9.98853e-01,7.48492e-01,9.99999e-01
9.670588912e-01,7.52528e-01,9.99655e-01,7.52787e-01,9.99999e-01
9.718941857e-01,7.57003e-01,9.99974e-01,7.57022e-01,9.99999e-01
9.767536566e-01,7.61195e-01,9.99999e-01,7.61195e-01,9.99999e-01
9.816374249e-01,7.65309e-01,9.99999e-01,7.65309e-01,9.99999e-01
9.865456120e-01,7.69363e-01,9.99999e-01,7.69363e-01,9.99999e-01
9.914783401e-01,7.73358e-01,9.99999e-01,7.73358e-01,9.99999e-01
9.964357318e-01,7.77294e-01,9.99999e-01,7.77294e-01,9.99999e-01
1.001417910e+00,7.81172e-01,9.99999e-01,7.81172e-01,9.99999e-01
1.006425000e+00,7.84992e-01,9.99999e-01,7.84992e-01,9.99999e-01
1.011457125e+00,7.88754e-01,9.99999e-01,7.88754e-01,9.99999e-01
1.016514411e+00,7.92460e-01,9.99999e-01,7.92460e-01,9.99999e-01
1.021596983e+00,7.96074e-01,9.99955e-01,7.96109e-01,9.99999e-01
1.026704968e+00,7.96931e-01,9.96532e-01,7.99703e-01,9.99999e-01
1.031838492e+00,7.70929e-01,9.59771e-01,8.03242e-01,9.99999e-01
1.036997685e+00,1.31801e-01,1.63377e-01,8.06725e-01,9.99999e-01
1.042182673e+00,1.09485e-01,1.35141e-01,8.10155e-01,9.99999e-01
1.047393587e+00,1.27396e-01,1.56596e-01,8.13531e-01,9.99999e-01
1.052630555e+00,4.29489e-03,5.25783e-03,8.16854e-01,9.99999e-01
1.057893707e+00,1.04986e-02,1.28013e-02,8.20124e-01,9.99999e-01
1.063183176e+00,3.33008e-02,4.04458e-02,8.23343e-01,9.99999e-01
1.068499092e+00,8.99656e-02,1.08850e-01,8.26510e-01,9.99999e-01
1.073841587e+00,2.03766e-01,2.45611e-01,8.29627e-01,9.99999e-01
1.079210795e+00,3.42413e-01,4.11211e-01,8.32693e-01,9.99999e-01
1.084606849e+00,5.12361e-01,6.13084e-01,8.35710e-01,9.99999e-01
1.090029883e+00,6.50722e-01,7.75890e-01,8.38678e-01,9.99999e-01
1.095480033e+00,7.42612e-01,8.82383e-01,8.41598e-01,9.99999e-01
1.100957433e+00,7.95086e-01,9.41520e-01,8.44469e-01,9.99999e-01
1.106462220e+00,8.26428e-01,9.75372e-01,8.47294e-01,9.99999e-01
1.111994531e+00,8.42253e-01,9.90801e-01,8.50072e-01,9.99999e-01
1.117554504e+00,8.50877e-01,9.97740e-01,8.52803e-01,9.99999e-01
1.123142276e+00,8.55362e-01,9.99850e-01,8.55490e-01,9.99999e-01
1.128757988e+00,8.58131e-01,9.99999e-01,8.58131e-01,9.99999e-01
1.134401778e+00,8.60729e-01,9.99999e-01,8.60729e-01,9.99999e-01
1.140073787e+00,8.63282e-01,9.99999e-01,8.63282e-01,9.99999e-01
1.145774156e+00,8.65793e-01,9.99999e-01,8.65793e-01,9.99999e-01
1.151503026e+00,8.68261e-01,9.99999e-01,8.68261e-01,9.99999e-01
1.157260541e+00,8.70687e-01,9.99999e-01,8.70687e-01,9.99999e-01
1.163046844e+00,8.73071e-01,9.99999e-01,8.73071e-01,9.99999e-01
1.168862078e+00,8.75415e-01,9.99999e-01,8.75415e-01,9.99999e-01
1.174706389e+00,8.77719e-01,9.99999e-01,8.77719e-01,9.99999e-01
1.180579921e+00,8.79983e-01,9.99999e-01,8.79983e-01,9.99999e-01
1.186482820e+00,8.82204e-01,9.99994e-01,8.82208e-01,9.99999e-01
1.192415234e+00,8.73523e-01,9.87706e-01,8.84395e-01,9.99999e-01
1.198377311e+00,4.99852e-01,5.63820e-01,8.86544e-01,9.99999e-01
1.204369197e+00,1.16101e-10,1.30648e-10,8.88655e-01,9.99999e-01
1.210391043e+00,2.17432e-38,2.44106e-38,8.90729e-01,9.99999e-01
1.216442998e+00,1.97327e-33,2.21028e-33,8.92768e-01,9.99999e-01
1.222525213e+00,5.94540e-33,6.64461e-33,8.94770e-01,9.99999e-01
1.228637839e+00,1.61698e-25,1.80317e-25,8.96737e-01,9.99999e-01
1.234781029e+00,1.25037e-16,1.39135e-16,8.98670e-01,9.99999e-01
1.240954934e+00,2.94833e-11,3.27385e-11,9.00569e-01,9.99999e-01
1.247159708e+00,2.47769e-06,2.74557e-06,9.02433e-01,9.99999e-01
1.253395507e+00,4.47832e-04,4.95244e-04,9.04265e-01,9.99999e-01
1.259662485e+00,1.15478e-02,1.27450e-02,9.06064e-01,9.99999e-01
1.265960797e+00,7.21787e-02,7.95067e-02,9.07832e-01,9.99999e-01
1.272290601e+00,2.87971e-01,3.16602e-01,9.09567e-01,9.99999e-01
1.278652054e+00,2.70680e-01,2.97035e-01,9.11272e-01,9.99999e-01
1.285045314e+00,8.24798e-03,9.03446e-03,9.12946e-01,9.99999e-01
1.291470541e+00,3.39431e-05,3.71129e-05,9.14590e-01,9.99999e-01
1.297927893e+00,5.55822e-03,6.06657e-03,9.16204e-01,9.99999e-01
1.304417533e+00,1.31922e-01,1.43739e-01,9.17789e-01,9.99999e-01
1.310939621e+00,3.31348e-02,3.60417e-02,9.19346e-01,9.99999e-01
1.317494319e+00,1.14442e-13,1.24275e-13,9.20874e-01,9.99999e-01
1.324081790e+00,1.58029e-09,1.71328e-09,9.22374e-01,9.99999e-01
1.330702199e+00,1.24864e-05,1.35157e-05,9.23848e-01,9.99999e-01
1.337355710e+00,1.48483e-05,1.60471e-05,9.25294e-01,9.99999e-01
1.344042489e+00,4.53184e-06,4.89021e-06,9.26714e-01,9.99999e-01
1.350762701e+00,7.81789e-06,8.42346e-06,9.28109e-01,9.99999e-01
1.357516515e+00,5.06572e-04,5.45007e-04,9.29477e-01,9.99999e-01
1.364304097e+00,7.13450e-03,7.66474e-03,9.30821e-01,9.99999e-01
1.371125618e+00,7.30847e-02,7.84053e-02,9.32140e-01,9.99999e-01
1.377981246e+00,1.16564e-01,1.24876e-01,9.33435e-01,9.99999e-01
1.384871152e+00,2.78421e-01,2.97870e-01,9.34706e-01,9.99999e-01
1.391795508e+00,3.05517e-01,3.26423e-01,9.35953e-01,9.99999e-01
1.398754485e+00,4.69763e-01,5.01252e-01,9.37178e-01,9.99999e-01
1.405748258e+00,5.64102e-01,6.01144e-01,9.38379e-01,9.99999e-01
1.412776999e+00,6.81191e-01,7.25011e-01,9.39559e-01,9.99999e-01
1.419840884e+00,6.17466e-01,6.56377e-01,9.40717e-01,9.99999e-01
1.426940089e+00,5.99037e-02,6.36019e-02,9.41853e-01,9.99999e-01
1.434074789e+00,0.00000e+00,0.00000e+00,9.42968e-01,9.99999e-01
1.441245163e+00,0.00000e+00,0.00000e+00,9.44062e-01,9.99999e-01
1.448451389e+00,0.00000e+00,0.00000e+00,9.45136e-01,9.99999e-01
1.455693646e+00,3.03623e-307,3.20890e-307,9.46190e-01,9.99999e-01
1.462972114e+00,6.09588e-149,6.43551e-149,9.47225e-01,9.99999e-01
1.470286975e+00,1.30773e-62,1.37911e-62,9.48240e-01,9.99999e-01
1.477638409e+00,7.47190e-40,7.87148e-40,9.49236e-01,9.99999e-01
1.485026601e+00,9.40526e-23,9.89804e-23,9.50213e-01,9.99999e-01
1.492451734e+00,2.19509e-19,2.30777e-19,9.51172e-01,9.99999e-01
1.499913993e+00,3.38303e-09,3.55318e-09,9.52113e-01,9.99999e-01
1.507413563e+00,5.40089e-08,5.66703e-08,9.53036e-01,9.99999e-01
1.514950631e+00,2.17186e-09,2.27672e-09,9.53942e-01,9.99999e-01
1.522525384e+00,1.01106e-28,1.05889e-28,9.54831e-01,9.99999e-01
1.530138011e+00,1.06678e-66,1.11622e-66,9.55703e-01,9.99999e-01
1.537788701e+00,1.08812e-49,1.13753e-49,9.56559e-01,9.99999e-01
1.545477645e+00,1.46966e-11,1.53505e-11,9.57398e-01,9.99999e-01
1.553205033e+00,4.28606e-08,4.47293e-08,9.58222e-01,9.99999e-01
1.560971058e+00,1.27489e-08,1.32935e-08,9.59030e-01,9.99999e-01
1.568775913e+00,4.79075e-167,4.99128e-167,9.59823e-01,9.99999e-01
1.576619793e+00,0.00000e+00,0.00000e+00,9.60601e-01,9.99999e-01
1.584502892e+00,2.14414e-213,2.23031e-213,9.61364e-01,9.99999e-01
1.592425406e+00,5.68622e-149,5.91014e-149,9.62112e-01,9.99999e-01
1.600387533e+00,1.41522e-239,1.46983e-239,9.62846e-01,9.99999e-01
1.608389471e+00,0.00000e+00,0.00000e+00,9.63567e-01,9.99999e-01
1.616431418e+00,0.00000e+00,0.00000e+00,9.64273e-01,9.99999e-01
1.624513575e+00,5.11805e-189,5.30386e-189,9.64966e-01,9.99999e-01
1.632636143e+00,1.26212e-140,1.30702e-140,9.65646e-01,9.99999e-01
1.640799324e+00,4.19829e-58,4.34465e-58,9.66313e-01,9.99999e-01
1.649003321e+00,4.28708e-58,4.43353e-58,9.66968e-01,9.99999e-01
1.657248337e+00,3.56183e-45,3.68106e-45,9.67609e-01,9.99999e-01
1.665534579e+00,1.81234e-45,1.87179e-45,9.68239e-01,9.99999e-01
1.673862252e+00,1.92952e-29,1.99154e-29,9.68856e-01,9.99999e-01
1.682231563e+00,9.03406e-21,9.31863e-21,9.69462e-01,9.99999e-01
1.690642721e+00,3.84280e-12,3.96141e-12,9.70056e-01,9.99999e-01
1.699095934e+00,6.66062e-08,6.86209e-08,9.70639e-01,9.99999e-01
1.707591414e+00,1.48950e-04,1.53365e-04,9.71210e-01,9.99999e-01
1.716129371e+00,7.24052e-03,7.45084e-03,9.71771e-01,9.99999e-01
1.724710018e+00,6.64042e-02,6.82945e-02,9.72321e-01,9.99999e-01
1.733333568e+00,1.71546e-01,1.76332e-01,9.72860e-01,9.99999e-01
1.742000236e+00,3.43231e-01,3.52614e-01,9.73389e-01,9.99999e-01
1.750710237e+00,1.03932e-02,1.06716e-02,9.73907e-01,9.99999e-01
1.759463788e+00,4.47600e-28,4.59352e-28,9.74416e-01,9.99999e-01
1.768261107e+00,1.77306e-29,1.81868e-29,9.74915e-01,9.99999e-01
1.777102413e+00,2.47711e-28,2.53957e-28,9.75404e-01,9.99999e-01
1.785987925e+00,5.85008e-27,5.99464e-27,9.75884e-01,9.99999e-01
1.794917864e+00,1.13315e-25,1.16059e-25,9.76355e-01,9.99999e-01
1.803892454e+00,6.68141e-25,6.83998e-25,9.76816e-01,9.99999e-01
1.812911916e+00,7.89757e-24,8.08126e-24,9.77269e-01,9.99999e-01
1.821976476e+00,5.47736e-24,5.60221e-24,9.77713e-01,9.99999e-01
1.831086358e+00,1.60171e-19,1.63749e-19,9.78148e-01,9.99999e-01
1.840241790e+00,1.31627e-16,1.34508e-16,9.78575e-01,9.99999e-01
1.849442999e+00,1.20175e-11,1.22754e-11,9.78994e-01,9.99999e-01
1.858690214e+00,9.24888e-11,9.44336e-11,9.79405e-01,9.99999e-01
1.867983665e+00,1.58569e-11,1.61836e-11,9.79807e-01,9.99999e-01
1.877323583e+00,1.02308e-52,1.04374e-52,9.80202e-01,9.99999e-01
