#,Wave/freq,Total,CO2,Rayleigh,CIA
4.000000000e-01,3.04145e-03,9.99999e-01,3.04145e-03,9.99999e-01
4.020000000e-01,3.41073e-03,9.99999e-01,3.41073e-03,9.99999e-01
4.040100000e-01,3.81575e-03,9.99999e-01,3.81575e-03,9.99999e-01
4.060300500e-01,4.25942e-03,9.99999e-01,4.25942e-03,9.99999e-01
4.080602003e-01,4.74434e-03,9.99999e-01,4.74434e-03,9.99999e-01
4.101005013e-01,5.27324e-03,9.99999e-01,5.27324e-03,9.99999e-01
4.121510038e-01,5.84887e-03,9.99999e-01,5.84887e-03,9.99999e-01
4.142117588e-01,6.47408e-03,9.99999e-01,6.47408e-03,9.99999e-01
4.162828176e-01,7.15175e-03,9.99999e-01,7.15175e-03,9.99999e-01
4.183642317e-01,7.88485e-03,9.99999e-01,7.88485e-03,9.99999e-01
4.204560528e-01,8.67634e-03,9.99999e-01,8.67634e-03,9.99999e-01
4.225583331e-01,9.52927e-03,9.99999e-01,9.52927e-03,9.99999e-01
4.246711247e-01,1.04467e-02,9.99999e-01,1.04467e-02,9.99999e-01
4.267944804e-01,1.14316e-02,9.99999e-01,1.14316e-02,9.99999e-01
4.289284528e-01,1.24872e-02,9.99999e-01,1.24872e-02,9.99999e-01
4.310730950e-01,1.36165e-02,9.99999e-01,1.36165e-02,9.99999e-01
4.332284605e-01,1.48225e-02,9.99999e-01,1.48225e-02,9.99999e-01
4.353946028e-01,1.61083e-02,9.99999e-01,1.61083e-02,9.99999e-01
4.375715758e-01,1.74770e-02,9.99999e-01,1.74770e-02,9.99999e-01
4.397594337e-01,1.89313e-02,9.99999e-01,1.89313e-02,9.99999e-01
4.419582309e-01,2.04744e-02,9.99999e-01,2.04744e-02,9.99999e-01
4.441680220e-01,2.21090e-02,9.99999e-01,2.21090e-02,9.99999e-01
4.463888621e-01,2.38379e-02,9.99999e-01,2.38379e-02,9.99999e-01
4.486208064e-01,2.56638e-02,9.99999e-01,2.56638e-02,9.99999e-01
4.508639105e-01,2.75893e-02,9.99999e-01,2.75893e-02,9.99999e-01
4.531182300e-01,2.96169e-02,9.99999e-01,2.96169e-02,9.99999e-01
4.553838212e-01,3.17491e-02,9.99999e-01,3.17491e-02,9.99999e-01
4.576607403e-01,3.39880e-02,9.99999e-01,3.39880e-02,9.99999e-01
4.599490440e-01,3.63359e-02,9.99999e-01,3.63359e-02,9.99999e-01
4.622487892e-01,3.87947e-02,9.99999e-01,3.87947e-02,9.99999e-01
4.645600332e-01,4.13664e-02,9.99999e-01,4.13664e-02,9.99999e-01
4.668828333e-01,4.40527e-02,9.99999e-01,4.40527e-02,9.99999e-01
4.692172475e-01,4.68551e-02,9.99999e-01,4.68551e-02,9.99999e-01
4.715633337e-01,4.97752e-02,9.99999e-01,4.97752e-02,9.99999e-01
4.739211504e-01,5.28141e-02,9.99999e-01,5.28141e-02,9.99999e-01
4.762907561e-01,5.59731e-02,9.99999e-01,5.59731e-02,9.99999e-01
4.786722099e-01,5.92529e-02,9.99999e-01,5.92529e-02,9.99999e-01
4.810655710e-01,6.26544e-02,9.99999e-01,6.26544e-02,9.99999e-01
4.834708988e-01,6.61782e-02,9.99999e-01,6.61782e-02,9.99999e-01
4.858882533e-01,6.98246e-02,9.99999e-01,6.98246e-02,9.99999e-01
4.883176946e-01,7.35940e-02,9.99999e-01,7.35940e-02,9.99999e-01
4.907592831e-01,7.74863e-02,9.99999e-01,7.74863e-02,9.99999e-01
4.932130795e-01,8.15015e-02,9.99999e-01,8.15015e-02,9.99999e-01
4.956791449e-01,8.56392e-02,9.99999e-01,8.56392e-02,9.99999e-01
4.981575406e-01,8.98990e-02,9.99999e-01,8.98990e-02,9.99999e-01
5.006483283e-01,9.42803e-02,9.99999e-01,9.42803e-02,9.99999e-01
5.031515699e-01,9.87822e-02,9.99999e-01,9.87822e-02,9.99999e-01
5.056673278e-01,1.03404e-01,9.99999e-01,1.03404e-01,9.99999e-01
5.081956644e-01,1.08144e-01,9.99999e-01,1.08144e-01,9.99999e-01
5.107366428e-01,1.13001e-01,9.99999e-01,1.13001e-01,9.99999e-01
5.132903260e-01,1.17974e-01,9.99999e-01,1.17974e-01,9.99999e-01
5.158567776e-01,1.23061e-01,9.99999e-01,1.23061e-01,9.99999e-01
5.184360615e-01,1.28261e-01,9.99999e-01,1.28261e-01,9.99999e-01
5.210282418e-01,1.33571e-01,9.99999e-01,1.33571e-01,9.99999e-01
5.236333830e-01,1.38989e-01,9.99999e-01,1.38989e-01,9.99999e-01
5.262515499e-01,1.44513e-01,9.99999e-01,1.44513e-01,9.99999e-01
5.288828077e-01,1.50142e-01,9.99999e-01,1.50142e-01,9.99999e-01
5.315272217e-01,1.55872e-01,9.99999e-01,1.55872e-01,9.99999e-01
5.341848578e-01,1.61701e-01,9.99999e-01,1.61701e-01,9.99999e-01
5.368557821e-01,1.67627e-01,9.99999e-01,1.67627e-01,9.99999e-01
5.395400610e-01,1.73646e-01,9.99999e-01,1.73646e-01,9.99999e-01
5.422377613e-01,1.79756e-01,9.99999e-01,1.79756e-01,9.99999e-01
5.449489501e-01,1.85954e-01,9.99999e-01,1.85954e-01,9.99999e-01
5.476736949e-01,1.92236e-01,9.99999e-01,1.92236e-01,9.99999e-01
5.504120634e-01,1.98601e-01,9.99999e-01,1.98601e-01,9.99999e-01
5.531641237e-01,2.05044e-01,9.99999e-01,2.05044e-01,9.99999e-01
5.559299443e-01,2.11564e-01,9.99999e-01,2.11564e-01,9.99999e-01
5.587095940e-01,2.18155e-01,9.99999e-01,2.18155e-01,9.99999e-01
5.615031420e-01,2.24815e-01,9.99999e-01,2.24815e-01,9.99999e-01
5.643106577e-01,2.31542e-01,9.99999e-01,2.31542e-01,9.99999e-01
5.671322110e-01,2.38330e-01,9.99999e-01,2.38330e-01,9.99999e-01
5.699678720e-01,2.45178e-01,9.99999e-01,2.45178e-01,9.99999e-01
5.728177114e-01,2.52081e-01,9.99999e-01,2.52081e-01,9.99999e-01
5.756818000e-01,2.59037e-01,9.99999e-01,2.59037e-01,9.99999e-01
5.785602090e-01,2.66041e-01,9.99999e-01,2.66041e-01,9.99999e-01
5.814530100e-01,2.73091e-01,9.99999e-01,2.73091e-01,9.99999e-01
5.843602750e-01,2.80183e-01,9.99999e-01,2.80183e-01,9.99999e-01
5.872820764e-01,2.87314e-01,9.99999e-01,2.87314e-01,9.99999e-01
5.902184868e-01,2.94480e-01,9.99999e-01,2.94480e-01,9.99999e-01
5.931695792e-01,3.01677e-01,9.99999e-01,3.01677e-01,9.99999e-01
5.961354271e-01,3.08904e-01,9.99999e-01,3.08904e-01,9.99999e-01
5.991161043e-01,3.16155e-01,9.99999e-01,3.16155e-01,9.99999e-01
6.021116848e-01,3.23429e-01,9.99999e-01,3.23429e-01,9.99999e-01
6.051222432e-01,3.30721e-01,9.99999e-01,3.30721e-01,9.99999e-01
6.081478544e-01,3.38029e-01,9.99999e-01,3.38029e-01,9.99999e-01
6.111885937e-01,3.45349e-01,9.99999e-01,3.45349e-01,9.99999e-01
6.142445367e-01,3.52678e-01,9.99999e-01,3.52678e-01,9.99999e-01
6.173157594e-01,3.60014e-01,9.99999e-01,3.60014e-01,9.99999e-01
6.204023382e-01,3.67352e-01,9.99999e-01,3.67352e-01,9.99999e-01
6.235043498e-01,3.74691e-01,9.99999e-01,3.74691e-01,9.99999e-01
6.266218716e-01,3.82027e-01,9.99999e-01,3.82027e-01,9.99999e-01
6.297549810e-01,3.89358e-01,9.99999e-01,3.89358e-01,9.99999e-01
6.329037559e-01,3.96680e-01,9.99999e-01,3.96680e-01,9.99999e-01
6.360682746e-01,4.03992e-01,9.99999e-01,4.03992e-01,9.99999e-01
6.392486160e-01,4.11289e-01,9.99999e-01,4.11289e-01,9.99999e-01
6.424448591e-01,4.18571e-01,9.99999e-01,4.18571e-01,9.99999e-01
6.456570834e-01,4.25834e-01,9.99999e-01,4.25834e-01,9.99999e-01
6.488853688e-01,4.33075e-01,9.99999e-01,4.33075e-01,9.99999e-01
6.521297956e-01,4.40293e-01,9.99999e-01,4.40293e-01,9.99999e-01
6.553904446e-01,4.47486e-01,9.99999e-01,4.47486e-01,9.99999e-01
6.586673968e-01,4.54650e-01,9.99999e-01,4.54650e-01,9.99999e-01
6.619607338e-01,4.61784e-01,9.99999e-01,4.61784e-01,9.99999e-01
6.652705375e-01,4.68886e-01,9.99999e-01,4.68886e-01,9.99999e-01
6.685968902e-01,4.75953e-01,9.99999e-01,4.75953e-01,9.99999e-01
6.719398746e-01,4.82984e-01,9.99999e-01,4.82984e-01,9.99999e-01
6.752995740e-01,4.89978e-01,9.99999e-01,4.89978e-01,9.99999e-01
6.786760719e-01,4.96931e-01,9.99999e-01,4.96931e-01,9.99999e-01
6.820694522e-01,5.03843e-01,9.99999e-01,5.03843e-01,9.99999e-01
6.854797995e-01,5.10711e-01,9.99999e-01,5.10711e-01,9.99999e-01
6.889071985e-01,5.17535e-01,9.99999e-01,5.17535e-01,9.99999e-01
6.923517345e-01,5.24312e-01,9.99999e-01,5.24312e-01,9.99999e-01
6.958134932e-01,5.31042e-01,9.99999e-01,5.31042e-01,9.99999e-01
6.992925606e-01,5.37722e-01,9.99999e-01,5.37722e-01,9.99999e-01
7.027890234e-01,5.44353e-01,9.99999e-01,5.44353e-01,9.99999e-01
7.063029686e-01,5.50931e-01,9.99999e-01,5.50931e-01,9.99999e-01
7.098344834e-01,5.57457e-01,9.99999e-01,5.57457e-01,9.99999e-01
7.133836558e-01,5.63929e-01,9.99999e-01,5.63929e-01,9.99999e-01
7.169505741e-01,5.70346e-01,9.99999e-01,5.70346e-01,9.99999e-01
7.205353270e-01,5.76707e-01,9.99999e-01,5.76707e-01,9.99999e-01
7.241380036e-01,5.83011e-01,9.99999e-01,5.83011e-01,9.99999e-01
7.277586936e-01,5.89258e-01,9.99999e-01,5.89258e-01,9.99999e-01
7.313974871e-01,5.95446e-01,9.99999e-01,5.95446e-01,9.99999e-01
7.350544745e-01,6.01575e-01,9.99999e-01,6.01575e-01,9.99999e-01
7.387297469e-01,6.07644e-01,9.99999e-01,6.07644e-01,9.99999e-01
7.424233956e-01,6.13653e-01,9.99999e-01,6.13653e-01,9.99999e-01
7.461355126e-01,6.19600e-01,9.99999e-01,6.19600e-01,9.99999e-01
7.498661902e-01,6.25487e-01,9.99999e-01,6.25487e-01,9.99999e-01
7.536155211e-01,6.31311e-01,9.99999e-01,6.31311e-01,9.99999e-01
7.573835987e-01,6.37072e-01,9.99999e-01,6.37072e-01,9.99999e-01
7.611705167e-01,6.42771e-01,9.99999e-01,6.42771e-01,9.99999e-01
7.649763693e-01,6.48407e-01,9.99999e-01,6.48407e-01,9.99999e-01
7.688012511e-01,6.53980e-01,9.99999e-01,6.53980e-01,9.99999e-01
7.726452574e-01,6.59489e-01,9.99999e-01,6.59489e-01,9.99999e-01
7.765084837e-01,6.64934e-01,9.99999e-01,6.64934e-01,9.99999e-01
7.803910261e-01,6.57062e-01,9.80227e-01,6.70315e-01,9.99999e-01
7.842929812e-01,6.20114e-01,9.17827e-01,6.75632e-01,9.99999e-01
7.882144461e-01,6.20977e-01,9.12012e-01,6.80886e-01,9.99999e-01
7.921555184e-01,6.50662e-01,9.48383e-01,6.86075e-01,9.99999e-01
7.961162960e-01,6.67167e-01,9.65230e-01,6.91199e-01,9.99999e-01
8.000968774e-01,6.83040e-01,9.81011e-01,6.96260e-01,9.99999e-01
8.040973618e-01,6.94332e-01,9.90123e-01,7.01257e-01,9.99999e-01
8.081178486e-01,7.02981e-01,9.95456e-01,7.06190e-01,9.99999e-01
8.121584379e-01,7.10060e-01,9.98594e-01,7.11059e-01,9.99999e-01
8.162192301e-01,7.15643e-01,9.99689e-01,7.15865e-01,9.99999e-01
8.203003262e-01,7.20604e-01,9.99994e-01,7.20607e-01,9.99999e-01
8.244018279e-01,7.25286e-01,9.99999e-01,7.25286e-01,9.99999e-01
8.285238370e-01,7.29902e-01,9.99999e-01,7.29902e-01,9.99999e-01
8.326664562e-01,7.34455e-01,9.99999e-01,7.34455e-01,9.99999e-01
8.368297885e-01,7.38946e-01,9.99999e-01,7.38946e-01,9.99999e-01
8.410139374e-01,7.43375e-01,9.99999e-01,7.43375e-01,9.99999e-01
8.452190071e-01,7.47742e-01,9.99999e-01,7.47742e-01,9.99999e-01
8.494451021e-01,7.52048e-01,9.99999e-01,7.52048e-01,9.99999e-01
8.536923276e-01,7.56293e-01,9.99999e-01,7.56293e-01,9.99999e-01
8.579607893e-01,7.60477e-01,9.99999e-01,7.60477e-01,9.99999e-01
8.622505932e-01,7.64601e-01,9.99999e-01,7.64601e-01,9.99999e-01
8.665618462e-01,7.29604e-01,9.49182e-01,7.68666e-01,9.99999e-01
8.708946554e-01,6.19710e-01,8.02036e-01,7.72671e-01,9.99999e-01
8.752491287e-01,6.51412e-01,8.38781e-01,7.76617e-01,9.99999e-01
8.796253743e-01,7.09273e-01,9.08735e-01,7.80505e-01,9.99999e-01
8.840235012e-01,7.46528e-01,9.51796e-01,7.84335e-01,9.99999e-01
8.884436187e-01,7.72937e-01,9.80750e-01,7.88107e-01,9.99999e-01
8.928858368e-01,7.85619e-01,9.92164e-01,7.91823e-01,9.99999e-01
8.973502660e-01,7.93965e-01,9.98092e-01,7.95482e-01,9.99999e-01
9.018370173e-01,7.98917e-01,9.99789e-01,7.99085e-01,9.99999e-01
9.063462024e-01,7.98291e-01,9.94589e-01,8.02633e-01,9.99999e-01
9.108779334e-01,7.96179e-01,9.87659e-01,8.06126e-01,9.99999e-01
9.154323231e-01,8.07211e-01,9.97091e-01,8.09565e-01,9.99999e-01
9.200094847e-01,7.78230e-01,9.57290e-01,8.12951e-01,9.99999e-01
9.246095321e-01,7.68080e-01,9.40947e-01,8.16283e-01,9.99999e-01
9.292325798e-01,7.81231e-01,9.53228e-01,8.19562e-01,9.99999e-01
9.338787427e-01,7.85660e-01,9.54872e-01,8.22790e-01,9.99999e-01
9.385481364e-01,7.98465e-01,9.66704e-01,8.25966e-01,9.99999e-01
9.432408771e-01,8.12104e-01,9.79510e-01,8.29091e-01,9.99999e-01
9.479570815e-01,8.23378e-01,9.89438e-01,8.32166e-01,9.99999e-01
9.526968669e-01,8.30927e-01,9.94893e-01,8.35192e-01,9.99999e-01
9.574603512e-01,8.36336e-01,9.97814e-01,8.38168e-01,9.99999e-01
9.622476530e-01,8.40522e-01,9.99317e-01,8.41096e-01,9.99999e-01
9.670588912e-01,8.43803e-01,9.99795e-01,8.43976e-01,9.99999e-01
9.718941857e-01,8.46796e-01,9.99985e-01,8.46808e-01,9.99999e-01
9.767536566e-01,8.49594e-01,9.99999e-01,8.49594e-01,9.99999e-01
9.816374249e-01,8.52334e-01,9.99999e-01,8.52334e-01,9.99999e-01
9.865456120e-01,8.55028e-01,9.99999e-01,8.55028e-01,9.99999e-01
9.914783401e-01,8.57677e-01,9.99999e-01,8.57677e-01,9.99999e-01
9.964357318e-01,8.60282e-01,9.99999e-01,8.60282e-01,9.99999e-01
1.001417910e+00,8.62843e-01,9.99999e-01,8.62843e-01,9.99999e-01
1.006425000e+00,8.65361e-01,9.99999e-01,8.65361e-01,9.99999e-01
1.011457125e+00,8.67837e-01,9.99999e-01,8.67837e-01,9.99999e-01
1.016514411e+00,8.70270e-01,9.99999e-01,8.70270e-01,9.99999e-01
1.021596983e+00,8.72637e-01,9.99971e-01,8.72662e-01,9.99999e-01
1.026704968e+00,8.73171e-01,9.97894e-01,8.75013e-01,9.99999e-01
1.031838492e+00,8.51310e-01,9.70348e-01,8.77323e-01,9.99999e-01
1.036997685e+00,2.24357e-01,2.55068e-01,8.79594e-01,9.99999e-01
1.042182673e+00,2.56635e-01,2.91027e-01,8.81826e-01,9.99999e-01
1.047393587e+00,2.46688e-01,2.79053e-01,8.84019e-01,9.99999e-01
1.052630555e+00,2.84399e-02,3.20928e-02,8.86175e-01,9.99999e-01
1.057893707e+00,5.64836e-02,6.35866e-02,8.88292e-01,9.99999e-01
1.063183176e+00,1.20154e-01,1.34947e-01,8.90373e-01,9.99999e-01
1.068499092e+00,2.32121e-01,2.60103e-01,8.92418e-01,9.99999e-01
1.073841587e+00,3.82576e-01,4.27733e-01,8.94426e-01,9.99999e-01
1.079210795e+00,5.24415e-01,5.85024e-01,8.96400e-01,9.99999e-01
1.084606849e+00,6.70215e-01,7.46060e-01,8.98338e-01,9.99999e-01
1.090029883e+00,7.73524e-01,8.59238e-01,9.00242e-01,9.99999e-01
1.095480033e+00,8.37194e-01,9.28035e-01,9.02113e-01,9.99999e-01
1.100957433e+00,8.72044e-01,9.64702e-01,9.03951e-01,9.99999e-01
1.106462220e+00,8.92402e-01,9.85256e-01,9.05755e-01,9.99999e-01
1.111994531e+00,9.02548e-01,9.94511e-01,9.07528e-01,9.99999e-01
1.117554504e+00,9.08049e-01,9.98657e-01,9.09269e-01,9.99999e-01
1.123142276e+00,9.10899e-01,9.99911e-01,9.10979e-01,9.99999e-01
1.128757988e+00,9.12658e-01,9.99999e-01,9.12658e-01,9.99999e-01
1.134401778e+00,9.14307e-01,9.99999e-01,9.14307e-01,9.99999e-01
1.140073787e+00,9.15927e-01,9.99999e-01,9.15927e-01,9.99999e-01
1.145774156e+00,9.17517e-01,9.99999e-01,9.17517e-01,9.99999e-01
1.151503026e+00,9.19078e-01,9.99999e-01,9.19078e-01,9.99999e-01
1.157260541e+00,9.20611e-01,9.99999e-01,9.20611e-01,9.99999e-01
1.163046844e+00,9.22117e-01,9.99999e-01,9.22117e-01,9.99999e-01
1.168862078e+00,9.23595e-01,9.99999e-01,9.23595e-01,9.99999e-01
1.174706389e+00,9.25046e-01,9.99999e-01,9.25046e-01,9.99999e-01
1.180579921e+00,9.26471e-01,9.99999e-01,9.26471e-01,9.99999e-01
1.186482820e+00,9.27866e-01,9.99995e-01,9.27869e-01,9.99999e-01
1.192415234e+00,9.22226e-01,9.92448e-01,9.29242e-01,9.99999e-01
1.198377311e+00,5.39126e-01,5.79337e-01,9.30590e-01,9.99999e-01
1.204369197e+00,2.83151e-07,3.03838e-07,9.31913e-01,9.99999e-01
1.210391043e+00,7.69601e-24,8.24679e-24,9.33212e-01,9.99999e-01
1.216442998e+00,7.08102e-21,7.57743e-21,9.34487e-01,9.99999e-01
1.222525213e+00,1.39885e-20,1.49492e-20,9.35739e-01,9.99999e-01
1.228637839e+00,7.23623e-16,7.72302e-16,9.36967e-01,9.99999e-01
1.234781029e+00,7.86928e-11,8.38787e-11,9.38173e-01,9.99999e-01
1.240954934e+00,2.34926e-07,2.50092e-07,9.39356e-01,9.99999e-01
1.247159708e+00,1.94758e-04,2.07075e-04,9.40518e-01,9.99999e-01
1.253395507e+00,8.30380e-03,8.81827e-03,9.41658e-01,9.99999e-01
1.259662485e+00,6.38908e-02,6.77687e-02,9.42777e-01,9.99999e-01
1.265960797e+00,1.98008e-01,2.09782e-01,9.43875e-01,9.99999e-01
1.272290601e+00,4.96702e-01,5.25637e-01,9.44952e-01,9.99999e-01
1.278652054e+00,4.36326e-01,4.61228e-01,9.46009e-01,9.99999e-01
1.285045314e+00,2.12296e-02,2.24166e-02,9.47047e-01,9.99999e-01
1.291470541e+00,1.71288e-03,1.80671e-03,9.48065e-01,9.99999e-01
1.297927893e+00,2.97967e-02,3.13958e-02,9.49065e-01,9.99999e-01
1.304417533e+00,2.96040e-01,3.11606e-01,9.50045e-01,9.99999e-01
1.310939621e+00,8.09852e-02,8.51572e-02,9.51007e-01,9.99999e-01
1.317494319e+00,1.19737e-08,1.25781e-08,9.51951e-01,9.99999e-01
1.324081790e+00,2.62744e-06,2.75737e-06,9.52878e-01,9.99999e-01
1.330702199e+00,9.92868e-04,1.04097e-03,9.53787e-01,9.99999e-01
1.337355710e+00,7.61835e-04,7.98001e-04,9.54678e-01,9.99999e-01
1.344042489e+00,2.44468e-04,2.55839e-04,9.55553e-01,9.99999e-01
1.350762701e+00,7.34213e-04,7.67674e-04,9.56412e-01,9.99999e-01
1.357516515e+00,8.65460e-03,9.04106e-03,9.57254e-01,9.99999e-01
1.364304097e+00,5.02129e-02,5.24098e-02,9.58081e-01,9.99999e-01
1.371125618e+00,2.02325e-01,2.10999e-01,9.58891e-01,9.99999e-01
1.377981246e+00,2.75678e-01,2.87258e-01,9.59687e-01,9.99999e-01
1.384871152e+00,4.64634e-01,4.83758e-01,9.60467e-01,9.99999e-01
1.391795508e+00,4.91600e-01,5.11426e-01,9.61233e-01,9.99999e-01
1.398754485e+00,6.36937e-01,6.62107e-01,9.61984e-01,9.99999e-01
1.405748258e+00,7.10135e-01,7.37633e-01,9.62720e-01,9.99999e-01
1.412776999e+00,7.95238e-01,8.25412e-01,9.63443e-01,9.99999e-01
1.419840884e+00,7.32532e-01,7.59767e-01,9.64152e-01,9.99999e-01
1.426940089e+00,9.28937e-02,9.62781e-02,9.64847e-01,9.99999e-01
1.434074789e+00,0.00000e+00,0.00000e+00,9.65530e-01,9.99999e-01
1.441245163e+00,0.00000e+00,0.00000e+00,9.66199e-01,9.99999e-01
1.448451389e+00,0.00000e+00,0.00000e+00,9.66855e-01,9.99999e-01
1.455693646e+00,1.83972e-184,1.90152e-184,9.67499e-01,9.99999e-01
1.462972114e+00,6.90397e-90,7.13123e-90,9.68131e-01,9.99999e-01
1.470286975e+00,2.61047e-38,2.69468e-38,9.68750e-01,9.99999e-01
1.477638409e+00,1.05871e-24,1.09217e-24,9.69358e-01,9.99999e-01
1.485026601e+00,2.24559e-14,2.31515e-14,9.69954e-01,9.99999e-01
1.492451734e+00,3.00979e-12,3.10115e-12,9.70539e-01,9.99999e-01
1.499913993e+00,3.13682e-06,3.23013e-06,9.71112e-01,9.99999e-01
1.507413563e+00,4.09811e-05,4.21757e-05,9.71675e-01,9.99999e-01
1.514950631e+00,1.71630e-06,1.76533e-06,9.72226e-01,9.99999e-01
1.522525384e+00,4.61139e-18,4.74049e-18,9.72767e-01,9.99999e-01
1.530138011e+00,1.13257e-40,1.16364e-40,9.73298e-01,9.99999e-01
1.537788701e+00,1.60596e-30,1.64913e-30,9.73818e-01,9.99999e-01
1.545477645e+00,8.27585e-08,8.49389e-08,9.74329e-01,9.99999e-01
1.553205033e+00,3.24996e-05,3.33387e-05,9.74829e-01,9.99999e-01
1.560971058e+00,8.46430e-06,8.67847e-06,9.75320e-01,9.99999e-01
1.568775913e+00,1.05444e-100,1.08059e-100,9.75802e-01,9.99999e-01
1.576619793e+00,1.70243e-234,1.74380e-234,9.76274e-01,9.99999e-01
1.584502892e+00,2.15246e-128,2.20372e-128,9.76737e-01,9.99999e-01
1.592425406e+00,8.38813e-90,8.58391e-90,9.77191e-01,9.99999e-01
1.600387533e+00,4.92121e-144,5.03377e-144,9.77637e-01,9.99999e-01
1.608389471e+00,2.71969e-241,2.78066e-241,9.78074e-01,9.99999e-01
1.616431418e+00,8.30379e-243,8.48621e-243,9.78502e-01,9.99999e-01
1.624513575e+00,7.88498e-114,8.05475e-114,9.78922e-01,9.99999e-01
1.632636143e+00,6.63335e-85,6.77332e-85,9.79334e-01,9.99999e-01
1.640799324e+00,1.28349e-35,1.31003e-35,9.79738e-01,9.99999e-01
1.649003321e+00,1.45008e-35,1.47947e-35,9.80134e-01,9.99999e-01
1.657248337e+00,8.54180e-28,8.71146e-28,9.80523e-01,9.99999e-01
1.665534579e+00,5.55262e-28,5.66071e-28,9.80904e-01,9.99999e-01
1.673862252e+00,2.39898e-18,2.44475e-18,9.81278e-01,9.99999e-01
1.682231563e+00,3.71752e-13,3.78703e-13,9.81644e-01,9.99999e-01
1.690642721e+00,5.09736e-08,5.19077e-08,9.82003e-01,9.99999e-01
1.699095934e+00,3.04107e-05,3.09569e-05,9.82356e-01,9.99999e-01
1.707591414e+00,3.79379e-03,3.86057e-03,9.82701e-01,9.99999e-01
1.716129371e+00,4.71702e-02,4.79840e-02,9.83040e-01,9.99999e-01
1.724710018e+00,1.93597e-01,1.96870e-01,9.83372e-01,9.99999e-01
1.733333568e+00,3.46439e-01,3.52180e-01,9.83698e-01,9.99999e-01
1.742000236e+00,5.15547e-01,5.23920e-01,9.84017e-01,9.99999e-01
1.750710237e+00,3.14462e-02,3.19467e-02,9.84330e-01,9.99999e-01
1.759463788e+00,1.80581e-17,1.83399e-17,9.84637e-01,9.99999e-01
1.768261107e+00,1.63285e-18,1.65782e-18,9.84939e-01,9.99999e-01
1.777102413e+00,1.97390e-17,2.00348e-17,9.85234e-01,9.99999e-01
1.785987925e+00,6.92065e-17,7.02230e-17,9.85523e-01,9.99999e-01
1.794917864e+00,6.56956e-16,6.66413e-16,9.85807e-01,9.99999e-01
1.803892454e+00,9.23121e-16,9.36146e-16,9.86086e-01,9.99999e-01
1.812911916e+00,6.18523e-15,6.27076e-15,9.86359e-01,9.99999e-01
1.821976476e+00,3.71265e-15,3.76297e-15,9.86626e-01,9.99999e-01
1.831086358e+00,1.78093e-12,1.80459e-12,9.86889e-01,9.99999e-01
1.840241790e+00,1.49474e-10,1.51420e-10,9.87146e-01,9.99999e-01
1.849442999e+00,1.83682e-07,1.86026e-07,9.87398e-01,9.99999e-01
1.858690214e+00,9.18039e-07,9.29522e-07,9.87645e-01,9.99999e-01
1.867983665e+00,1.44363e-07,1.46133e-07,9.87888e-01,9.99999e-01
1.877323583e+00,2.59183e-32,2.62297e-32,9.88126e-01,9.99999e-01
