#,Wave/freq,Total,CO2,Rayleigh,CIA
4.000000000e-01,3.46403e-09,9.99999e-01,3.46403e-09,9.99999e-01
4.020000000e-01,5.09178e-09,9.99999e-01,5.09178e-09,9.99999e-01
4.040100000e-01,7.42471e-09,9.99999e-01,7.42471e-09,9.99999e-01
4.060300500e-01,1.07462e-08,9.99999e-01,1.07462e-08,9.99999e-01
4.080602003e-01,1.54403e-08,9.99999e-01,1.54403e-08,9.99999e-01
4.101005013e-01,2.20267e-08,9.99999e-01,2.20267e-08,9.99999e-01
4.121510038e-01,3.12029e-08,9.99999e-01,3.12029e-08,9.99999e-01
4.142117588e-01,4.38989e-08,9.99999e-01,4.38989e-08,9.99999e-01
4.162828176e-01,6.13456e-08,9.99999e-01,6.13456e-08,9.99999e-01
4.183642317e-01,8.51613e-08,9.99999e-01,8.51613e-08,9.99999e-01
4.204560528e-01,1.17459e-07,9.99999e-01,1.17459e-07,9.99999e-01
4.225583331e-01,1.60981e-07,9.99999e-01,1.60981e-07,9.99999e-01
4.246711247e-01,2.19259e-07,9.99999e-01,2.19259e-07,9.99999e-01
4.267944804e-01,2.96818e-07,9.99999e-01,2.96818e-07,9.99999e-01
4.289284528e-01,3.99415e-07,9.99999e-01,3.99415e-07,9.99999e-01
4.310730950e-01,5.34334e-07,9.99999e-01,5.34334e-07,9.99999e-01
4.332284605e-01,7.10728e-07,9.99999e-01,7.10728e-07,9.99999e-01
4.353946028e-01,9.40043e-07,9.99999e-01,9.40043e-07,9.99999e-01
4.375715758e-01,1.23650e-06,9.99999e-01,1.23650e-06,9.99999e-01
4.397594337e-01,1.61766e-06,9.99999e-01,1.61766e-06,9.99999e-01
4.419582309e-01,2.10511e-06,9.99999e-01,2.10511e-06,9.99999e-01
4.441680220e-01,2.72524e-06,9.99999e-01,2.72524e-06,9.99999e-01
4.463888621e-01,3.51010e-06,9.99999e-01,3.51010e-06,9.99999e-01
4.486208064e-01,4.49845e-06,9.99999e-01,4.49845e-06,9.99999e-01
4.508639105e-01,5.73691e-06,9.99999e-01,5.73691e-06,9.99999e-01
4.531182300e-01,7.28127e-06,9.99999e-01,7.28127e-06,9.99999e-01
4.553838212e-01,9.19796e-06,9.99999e-01,9.19796e-06,9.99999e-01
4.576607403e-01,1.15657e-05,9.99999e-01,1.15657e-05,9.99999e-01
4.599490440e-01,1.44772e-05,9.99999e-01,1.44772e-05,9.99999e-01
4.622487892e-01,1.80416e-05,9.99999e-01,1.80416e-05,9.99999e-01
4.645600332e-01,2.23859e-05,9.99999e-01,2.23859e-05,9.99999e-01
4.668828333e-01,2.76582e-05,9.99999e-01,2.76582e-05,9.99999e-01
4.692172475e-01,3.40298e-05,9.99999e-01,3.40298e-05,9.99999e-01
4.715633337e-01,4.16981e-05,9.99999e-01,4.16981e-05,9.99999e-01
4.739211504e-01,5.08897e-05,9.99999e-01,5.08897e-05,9.99999e-01
4.762907561e-01,6.18635e-05,9.99999e-01,6.18635e-05,9.99999e-01
4.786722099e-01,7.49142e-05,9.99999e-01,7.49142e-05,9.99999e-01
4.810655710e-01,9.03757e-05,9.99999e-01,9.03757e-05,9.99999e-01
4.834708988e-01,1.08625e-04,9.99999e-01,1.08625e-04,9.99999e-01
4.858882533e-01,1.30086e-04,9.99999e-01,1.30086e-04,9.99999e-01
4.883176946e-01,1.55233e-04,9.99999e-01,1.55233e-04,9.99999e-01
4.907592831e-01,1.84595e-04,9.99999e-01,1.84595e-04,9.99999e-01
4.932130795e-01,2.18762e-04,9.99999e-01,2.18762e-04,9.99999e-01
4.956791449e-01,2.58385e-04,9.99999e-01,2.58385e-04,9.99999e-01
4.981575406e-01,3.04182e-04,9.99999e-01,3.04182e-04,9.99999e-01
5.006483283e-01,3.56944e-04,9.99999e-01,3.56944e-04,9.99999e-01
5.031515699e-01,4.17537e-04,9.99999e-01,4.17537e-04,9.99999e-01
5.056673278e-01,4.86905e-04,9.99999e-01,4.86905e-04,9.99999e-01
5.081956644e-01,5.66077e-04,9.99999e-01,5.66077e-04,9.99999e-01
5.107366428e-01,6.56167e-04,9.99999e-01,6.56167e-04,9.99999e-01
5.132903260e-01,7.58379e-04,9.99999e-01,7.58379e-04,9.99999e-01
5.158567776e-01,8.74010e-04,9.99999e-01,8.74010e-04,9.99999e-01
5.184360615e-01,1.00445e-03,9.99999e-01,1.00445e-03,9.99999e-01
5.210282418e-01,1.15119e-03,9.99999e-01,1.15119e-03,9.99999e-01
5.236333830e-01,1.31582e-03,9.99999e-01,1.31582e-03,9.99999e-01
5.262515499e-01,1.50003e-03,9.99999e-01,1.50003e-03,9.99999e-01
5.288828077e-01,1.70561e-03,9.99999e-01,1.70561e-03,9.99999e-01
5.315272217e-01,1.93445e-03,9.99999e-01,1.93445e-03,9.99999e-01
5.341848578e-01,2.18854e-03,9.99999e-01,2.18854e-03,9.99999e-01
5.368557821e-01,2.46998e-03,9.99999e-01,2.46998e-03,9.99999e-01
5.395400610e-01,2.78095e-03,9.99999e-01,2.78095e-03,9.99999e-01
5.422377613e-01,3.12376e-03,9.99999e-01,3.12376e-03,9.99999e-01
5.449489501e-01,3.50077e-03,9.99999e-01,3.50077e-03,9.99999e-01
5.476736949e-01,3.91446e-03,9.99999e-01,3.91446e-03,9.99999e-01
5.504120634e-01,4.36740e-03,9.99999e-01,4.36740e-03,9.99999e-01
5.531641237e-01,4.86222e-03,9.99999e-01,4.86222e-03,9.99999e-01
5.559299443e-01,5.40163e-03,9.99999e-01,5.40163e-03,9.99999e-01
5.587095940e-01,5.98843e-03,9.99999e-01,5.98843e-03,9.99999e-01
5.615031420e-01,6.62547e-03,9.99999e-01,6.62547e-03,9.99999e-01
5.643106577e-01,7.31566e-03,9.99999e-01,7.31566e-03,9.99999e-01
5.671322110e-01,8.06194e-03,9.99999e-01,8.06194e-03,9.99999e-01
5.699678720e-01,8.86732e-03,9.99999e-01,8.86732e-03,9.99999e-01
5.728177114e-01,9.73484e-03,9.99999e-01,9.73484e-03,9.99999e-01
5.756818000e-01,1.06675e-02,9.99999e-01,1.06675e-02,9.99999e-01
5.785602090e-01,1.16685e-02,9.99999e-01,1.16685e-02,9.99999e-01
5.814530100e-01,1.27408e-02,9.99999e-01,1.27408e-02,9.99999e-01
5.843602750e-01,1.38875e-02,9.99999e-01,1.38875e-02,9.99999e-01
5.872820764e-01,1.51116e-02,9.99999e-01,1.51116e-02,9.99999e-01
5.902184868e-01,1.64163e-02,9.99999e-01,1.64163e-02,9.99999e-01
5.931695792e-01,1.78044e-02,9.99999e-01,1.78044e-02,9.99999e-01
5.961354271e-01,1.92789e-02,9.99999e-01,1.92789e-02,9.99999e-01
5.991161043e-01,2.08428e-02,9.99999e-01,2.08428e-02,9.99999e-01
6.021116848e-01,2.24989e-02,9.99999e-01,2.24989e-02,9.99999e-01
6.051222432e-01,2.42499e-02,9.99999e-01,2.42499e-02,9.99999e-01
6.081478544e-01,2.60986e-02,9.99999e-01,2.60986e-02,9.99999e-01
6.111885937e-01,2.80474e-02,9.99999e-01,2.80474e-02,9.99999e-01
6.142445367e-01,3.00989e-02,9.99999e-01,3.00989e-02,9.99999e-01
6.173157594e-01,3.22554e-02,9.99999e-01,3.22554e-02,9.99999e-01
6.204023382e-01,3.45193e-02,9.99999e-01,3.45193e-02,9.99999e-01
6.235043498e-01,3.68925e-02,9.99999e-01,3.68925e-02,9.99999e-01
6.266218716e-01,3.93772e-02,9.99999e-01,3.93772e-02,9.99999e-01
6.297549810e-01,4.19752e-02,9.99999e-01,4.19752e-02,9.99999e-01
6.329037559e-01,4.46881e-02,9.99999e-01,4.46881e-02,9.99999e-01
6.360682746e-01,4.75175e-02,9.99999e-01,4.75175e-02,9.99999e-01
6.392486160e-01,5.04649e-02,9.99999e-01,5.04649e-02,9.99999e-01
6.424448591e-01,5.35314e-02,9.99999e-01,5.35314e-02,9.99999e-01
6.456570834e-01,5.67181e-02,9.99999e-01,5.67181e-02,9.99999e-01
6.488853688e-01,6.00259e-02,9.99999e-01,6.00259e-02,9.99999e-01
6.521297956e-01,6.34555e-02,9.99999e-01,6.34555e-02,9.99999e-01
6.553904446e-01,6.70075e-02,9.99999e-01,6.70075e-02,9.99999e-01
6.586673968e-01,7.06823e-02,9.99999e-01,7.06823e-02,9.99999e-01
6.619607338e-01,7.44800e-02,9.99999e-01,7.44800e-02,9.99999e-01
6.652705375e-01,7.84006e-02,9.99999e-01,7.84006e-02,9.99999e-01
6.685968902e-01,8.24441e-02,9.99999e-01,8.24441e-02,9.99999e-01
6.719398746e-01,8.66100e-02,9.99999e-01,8.66100e-02,9.99999e-01
6.752995740e-01,9.08978e-02,9.99999e-01,9.08978e-02,9.99999e-01
6.786760719e-01,9.53070e-02,9.99999e-01,9.53070e-02,9.99999e-01
6.820694522e-01,9.98365e-02,9.99999e-01,9.98365e-02,9.99999e-01
6.854797995e-01,1.04485e-01,9.99999e-01,1.04485e-01,9.99999e-01
6.889071985e-01,1.09253e-01,9.99999e-01,1.09253e-01,9.99999e-01
6.923517345e-01,1.14137e-01,9.99999e-01,1.14137e-01,9.99999e-01
6.958134932e-01,1.19136e-01,9.99999e-01,1.19136e-01,9.99999e-01
6.992925606e-01,1.24249e-01,9.99999e-01,1.24249e-01,9.99999e-01
7.027890234e-01,1.29474e-01,9.99999e-01,1.29474e-01,9.99999e-01
7.063029686e-01,1.34809e-01,9.99999e-01,1.34809e-01,9.99999e-01
7.098344834e-01,1.40253e-01,9.99999e-01,1.40253e-01,9.99999e-01
7.133836558e-01,1.45801e-01,9.99999e-01,1.45801e-01,9.99999e-01
7.169505741e-01,1.51453e-01,9.99999e-01,1.51453e-01,9.99999e-01
7.205353270e-01,1.57207e-01,9.99999e-01,1.57207e-01,9.99999e-01
7.241380036e-01,1.63058e-01,9.99999e-01,1.63058e-01,9.99999e-01
7.277586936e-01,1.69005e-01,9.99999e-01,1.69005e-01,9.99999e-01
7.313974871e-01,1.75046e-01,9.99999e-01,1.75046e-01,9.99999e-01
7.350544745e-01,1.81176e-01,9.99999e-01,1.81176e-01,9.99999e-01
7.387297469e-01,1.87394e-01,9.99999e-01,1.87394e-01,9.99999e-01
7.424233956e-01,1.93696e-01,9.99999e-01,1.93696e-01,9.99999e-01
7.461355126e-01,2.00079e-01,9.99999e-01,2.00079e-01,9.99999e-01
7.498661902e-01,2.06540e-01,9.99999e-01,2.06540e-01,9.99999e-01
7.536155211e-01,2.13076e-01,9.99999e-01,2.13076e-01,9.99999e-01
7.573835987e-01,2.19684e-01,9.99999e-01,2.19684e-01,9.99999e-01
7.611705167e-01,2.26360e-01,9.99999e-01,2.26360e-01,9.99999e-01
7.649763693e-01,2.33100e-01,9.99999e-01,2.33100e-01,9.99999e-01
7.688012511e-01,2.39903e-01,9.99999e-01,2.39903e-01,9.99999e-01
7.726452574e-01,2.46764e-01,9.99999e-01,2.46764e-01,9.99999e-01
7.765084837e-01,2.53680e-01,9.99999e-01,2.53680e-01,9.99999e-01
7.803910261e-01,2.45835e-01,9.43172e-01,2.60647e-01,9.99999e-01
7.842929812e-01,2.02754e-01,7.57500e-01,2.67662e-01,9.99999e-01
7.882144461e-01,2.04618e-01,7.44817e-01,2.74722e-01,9.99999e-01
7.921555184e-01,2.36354e-01,8.38659e-01,2.81823e-01,9.99999e-01
7.961162960e-01,2.56587e-01,8.87959e-01,2.88962e-01,9.99999e-01
8.000968774e-01,2.77666e-01,9.37630e-01,2.96136e-01,9.99999e-01
8.040973618e-01,2.93359e-01,9.67096e-01,3.03340e-01,9.99999e-01
8.081178486e-01,3.05849e-01,9.84789e-01,3.10573e-01,9.99999e-01
8.121584379e-01,3.16322e-01,9.95256e-01,3.17829e-01,9.99999e-01
8.162192301e-01,3.24767e-01,9.98950e-01,3.25108e-01,9.99999e-01
8.203003262e-01,3.32398e-01,9.99982e-01,3.32404e-01,9.99999e-01
8.244018279e-01,3.39714e-01,9.99999e-01,3.39714e-01,9.99999e-01
8.285238370e-01,3.47037e-01,9.99999e-01,3.47037e-01,9.99999e-01
8.326664562e-01,3.54368e-01,9.99999e-01,3.54368e-01,9.99999e-01
8.368297885e-01,3.61704e-01,9.99999e-01,3.61704e-01,9.99999e-01
8.410139374e-01,3.69043e-01,9.99999e-01,3.69043e-01,9.99999e-01
8.452190071e-01,3.76382e-01,9.99999e-01,3.76382e-01,9.99999e-01
8.494451021e-01,3.83717e-01,9.99999e-01,3.83717e-01,9.99999e-01
8.536923276e-01,3.91046e-01,9.99999e-01,3.91046e-01,9.99999e-01
8.579607893e-01,3.98366e-01,9.99999e-01,3.98366e-01,9.99999e-01
8.622505932e-01,4.05674e-01,9.99999e-01,4.05674e-01,9.99999e-01
8.665618462e-01,3.70541e-01,8.97260e-01,4.12969e-01,9.99999e-01
8.708946554e-01,2.10463e-01,5.00809e-01,4.20246e-01,9.99999e-01
8.752491287e-01,2.42385e-01,5.66977e-01,4.27504e-01,9.99999e-01
8.796253743e-01,3.16904e-01,7.28948e-01,4.34741e-01,9.99999e-01
8.840235012e-01,3.74639e-01,8.47689e-01,4.41953e-01,9.99999e-01
8.884436187e-01,4.20689e-01,9.36657e-01,4.49139e-01,9.99999e-01
8.928858368e-01,4.44366e-01,9.73852e-01,4.56297e-01,9.99999e-01
8.973502660e-01,4.60441e-01,9.93564e-01,4.63423e-01,9.99999e-01
9.018370173e-01,4.70183e-01,9.99287e-01,4.70517e-01,9.99999e-01
9.063462024e-01,4.69138e-01,9.82329e-01,4.77577e-01,9.99999e-01
9.108779334e-01,4.64794e-01,9.59131e-01,4.84599e-01,9.99999e-01
9.154323231e-01,4.86768e-01,9.90203e-01,4.91583e-01,9.99999e-01
9.200094847e-01,4.36341e-01,8.75258e-01,4.98527e-01,9.99999e-01
9.246095321e-01,4.12330e-01,8.15801e-01,5.05429e-01,9.99999e-01
9.292325798e-01,4.37658e-01,8.54320e-01,5.12287e-01,9.99999e-01
9.338787427e-01,4.45113e-01,8.57469e-01,5.19101e-01,9.99999e-01
9.385481364e-01,4.69493e-01,8.92797e-01,5.25867e-01,9.99999e-01
9.432408771e-01,4.96730e-01,9.32676e-01,5.32586e-01,9.99999e-01
9.479570815e-01,5.20333e-01,9.64911e-01,5.39255e-01,9.99999e-01
9.526968669e-01,5.36548e-01,9.82916e-01,5.45873e-01,9.99999e-01
9.574603512e-01,5.48382e-01,9.92654e-01,5.52439e-01,9.99999e-01
9.622476530e-01,5.57669e-01,9.97702e-01,5.58953e-01,9.99999e-01
9.670588912e-01,5.65022e-01,9.99310e-01,5.65412e-01,9.99999e-01
9.718941857e-01,5.71788e-01,9.99950e-01,5.71816e-01,9.99999e-01
9.767536566e-01,5.78164e-01,9.99999e-01,5.78164e-01,9.99999e-01
9.816374249e-01,5.84455e-01,9.99999e-01,5.84455e-01,9.99999e-01
9.865456120e-01,5.90689e-01,9.99999e-01,5.90689e-01,9.99999e-01
9.914783401e-01,5.96863e-01,9.99999e-01,5.96863e-01,9.99999e-01
9.964357318e-01,6.02979e-01,9.99999e-01,6.02979e-01,9.99999e-01
1.001417910e+00,6.09034e-01,9.99999e-01,6.09034e-01,9.99999e-01
1.006425000e+00,6.15029e-01,9.99999e-01,6.15029e-01,9.99999e-01
1.011457125e+00,6.20962e-01,9.99999e-01,6.20962e-01,9.99999e-01
1.016514411e+00,6.26834e-01,9.99999e-01,6.26834e-01,9.99999e-01
1.021596983e+00,6.32587e-01,9.99909e-01,6.32644e-01,9.99999e-01
1.026704968e+00,6.33956e-01,9.93051e-01,6.38391e-01,9.99999e-01
1.031838492e+00,6.01865e-01,9.34463e-01,6.44076e-01,9.99999e-01
1.036997685e+00,5.60188e-02,8.62228e-02,6.49697e-01,9.99999e-01
1.042182673e+00,1.57508e-02,2.40377e-02,6.55255e-01,9.99999e-01
1.047393587e+00,2.82801e-02,4.27999e-02,6.60749e-01,9.99999e-01
1.052630555e+00,6.79922e-05,1.02063e-04,6.66180e-01,9.99999e-01
1.057893707e+00,2.28684e-04,3.40533e-04,6.71546e-01,9.99999e-01
1.063183176e+00,1.76659e-03,2.61001e-03,6.76849e-01,9.99999e-01
1.068499092e+00,9.16252e-03,1.34331e-02,6.82087e-01,9.99999e-01
1.073841587e+00,4.40347e-02,6.40727e-02,6.87261e-01,9.99999e-01
1.079210795e+00,1.21824e-01,1.75951e-01,6.92371e-01,9.99999e-01
1.084606849e+00,2.64136e-01,3.78734e-01,6.97417e-01,9.99999e-01
1.090029883e+00,4.23463e-01,6.02880e-01,7.02399e-01,9.99999e-01
1.095480033e+00,5.50883e-01,7.78833e-01,7.07318e-01,9.99999e-01
1.100957433e+00,6.31206e-01,8.86310e-01,7.12172e-01,9.99999e-01
1.106462220e+00,6.82014e-01,9.51252e-01,7.16963e-01,9.99999e-01
1.111994531e+00,7.08440e-01,9.81638e-01,7.21691e-01,9.99999e-01
1.117554504e+00,7.23069e-01,9.95475e-01,7.26355e-01,9.99999e-01
1.123142276e+00,7.30739e-01,9.99701e-01,7.30957e-01,9.99999e-01
1.128757988e+00,7.35495e-01,9.99999e-01,7.35496e-01,9.99999e-01
1.134401778e+00,7.39972e-01,9.99999e-01,7.39972e-01,9.99999e-01
1.140073787e+00,7.44387e-01,9.99999e-01,7.44387e-01,9.99999e-01
1.145774156e+00,7.48740e-01,9.99999e-01,7.48740e-01,9.99999e-01
1.151503026e+00,7.53032e-01,9.99999e-01,7.53032e-01,9.99999e-01
1.157260541e+00,7.57263e-01,9.99999e-01,7.57263e-01,9.99999e-01
1.163046844e+00,7.61433e-01,9.99999e-01,7.61433e-01,9.99999e-01
1.168862078e+00,7.65543e-01,9.99999e-01,7.65543e-01,9.99999e-01
1.174706389e+00,7.69594e-01,9.99999e-01,7.69594e-01,9.99999e-01
1.180579921e+00,7.73585e-01,9.99999e-01,7.73585e-01,9.99999e-01
1.186482820e+00,7.77510e-01,9.99988e-01,7.77518e-01,9.99999e-01
1.192415234e+00,7.62494e-01,9.75814e-01,7.81392e-01,9.99999e-01
1.198377311e+00,4.26044e-01,5.42586e-01,7.85209e-01,9.99999e-01
1.204369197e+00,3.85850e-19,4.89056e-19,7.88968e-01,9.99999e-01
1.210391043e+00,8.16607e-75,1.03020e-74,7.92671e-01,9.99999e-01
1.216442998e+00,7.36378e-65,9.24728e-65,7.96317e-01,9.99999e-01
1.222525213e+00,6.72687e-64,8.40955e-64,7.99908e-01,9.99999e-01
1.228637839e+00,2.00793e-49,2.49915e-49,8.03443e-01,9.99999e-01
1.234781029e+00,4.00889e-31,4.96811e-31,8.06924e-01,9.99999e-01
1.240954934e+00,8.05360e-21,9.93841e-21,8.10350e-01,9.99999e-01
1.247159708e+00,1.51773e-10,1.86516e-10,8.13723e-01,9.99999e-01
1.253395507e+00,4.46546e-07,5.46538e-07,8.17043e-01,9.99999e-01
1.259662485e+00,2.13416e-04,2.60164e-04,8.20311e-01,9.99999e-01
1.265960797e+00,7.57087e-03,9.19323e-03,8.23526e-01,9.99999e-01
1.272290601e+00,8.80862e-02,1.06553e-01,8.26691e-01,9.99999e-01
1.278652054e+00,8.95298e-02,1.07893e-01,8.29804e-01,9.99999e-01
1.285045314e+00,6.20692e-04,7.45246e-04,8.32868e-01,9.99999e-01
1.291470541e+00,2.79969e-09,3.34938e-09,8.35882e-01,9.99999e-01
1.297927893e+00,1.71305e-04,2.04214e-04,8.38847e-01,9.99999e-01
1.304417533e+00,1.85229e-02,2.20049e-02,8.41764e-01,9.99999e-01
1.310939621e+00,4.48466e-03,5.30960e-03,8.44633e-01,9.99999e-01
1.317494319e+00,6.54232e-26,7.71996e-26,8.47454e-01,9.99999e-01
1.324081790e+00,2.61197e-17,3.07208e-17,8.50230e-01,9.99999e-01
1.330702199e+00,2.82844e-10,3.31603e-10,8.52959e-01,9.99999e-01
1.337355710e+00,1.20592e-09,1.40937e-09,8.55643e-01,9.99999e-01
1.344042489e+00,4.92045e-10,5.73290e-10,8.58281e-01,9.99999e-01
1.350762701e+00,1.52090e-10,1.76669e-10,8.60876e-01,9.99999e-01
1.357516515e+00,8.72194e-07,1.01015e-06,8.63427e-01,9.99999e-01
1.364304097e+00,6.53007e-05,7.54105e-05,8.65935e-01,9.99999e-01
1.371125618e+00,6.62004e-03,7.62325e-03,8.68401e-01,9.99999e-01
1.377981246e+00,1.40347e-02,1.61166e-02,8.70825e-01,9.99999e-01
1.384871152e+00,7.89850e-02,9.04538e-02,8.73207e-01,9.99999e-01
1.391795508e+00,9.49371e-02,1.08431e-01,8.75549e-01,9.99999e-01
1.398754485e+00,2.20163e-01,2.50797e-01,8.77850e-01,9.99999e-01
1.405748258e+00,3.19354e-01,3.62855e-01,8.80112e-01,9.99999e-01
1.412776999e+00,4.63791e-01,5.25640e-01,8.82335e-01,9.99999e-01
1.419840884e+00,4.21376e-01,4.76389e-01,8.84519e-01,9.99999e-01
1.426940089e+00,2.35756e-02,2.65890e-02,8.86666e-01,9.99999e-01
1.434074789e+00,0.00000e+00,0.00000e+00,8.88775e-01,9.99999e-01
1.441245163e+00,0.00000e+00,0.00000e+00,8.90847e-01,9.99999e-01
1.448451389e+00,0.00000e+00,0.00000e+00,8.92884e-01,9.99999e-01
1.455693646e+00,0.00000e+00,0.00000e+00,8.94884e-01,9.99999e-01
1.462972114e+00,8.72228e-297,9.72546e-297,8.96849e-01,9.99999e-01
1.470286975e+00,1.91398e-123,2.12953e-123,8.98780e-01,9.99999e-01
1.477638409e+00,9.38747e-78,1.04227e-77,9.00676e-01,9.99999e-01
1.485026601e+00,1.67176e-43,1.85228e-43,9.02539e-01,9.99999e-01
1.492451734e+00,4.44966e-37,4.92017e-37,9.04369e-01,9.99999e-01
1.499913993e+00,2.20039e-16,2.42824e-16,9.06167e-01,9.99999e-01
1.507413563e+00,3.83532e-15,4.22423e-15,9.07932e-01,9.99999e-01
1.514950631e+00,1.37267e-16,1.50898e-16,9.09666e-01,9.99999e-01
1.522525384e+00,2.10717e-55,2.31209e-55,9.11369e-01,9.99999e-01
1.530138011e+00,1.05795e-131,1.15871e-131,9.13041e-01,9.99999e-01
1.537788701e+00,1.54514e-97,1.68927e-97,9.14683e-01,9.99999e-01
1.545477645e+00,6.07794e-21,6.63316e-21,9.16296e-01,9.99999e-01
1.553205033e+00,3.54867e-15,3.86616e-15,9.17879e-01,9.99999e-01
1.560971058e+00,1.46942e-15,1.59818e-15,9.19434e-01,9.99999e-01
1.568775913e+00,0.00000e+00,0.00000e+00,9.20961e-01,9.99999e-01
1.576619793e+00,0.00000e+00,0.00000e+00,9.22460e-01,9.99999e-01
1.584502892e+00,0.00000e+00,0.00000e+00,9.23931e-01,9.99999e-01
1.592425406e+00,6.50271e-297,7.02708e-297,9.25376e-01,9.99999e-01
1.600387533e+00,0.00000e+00,0.00000e+00,9.26795e-01,9.99999e-01
1.608389471e+00,0.00000e+00,0.00000e+00,9.28188e-01,9.99999e-01
1.616431418e+00,0.00000e+00,0.00000e+00,9.29555e-01,9.99999e-01
1.624513575e+00,0.00000e+00,0.00000e+00,9.30897e-01,9.99999e-01
1.632636143e+00,4.29222e-280,4.60432e-280,9.32215e-01,9.99999e-01
1.640799324e+00,2.13540e-114,2.28750e-114,9.33508e-01,9.99999e-01
1.649003321e+00,2.13790e-114,2.28707e-114,9.34778e-01,9.99999e-01
1.657248337e+00,1.69070e-88,1.80625e-88,9.36024e-01,9.99999e-01
1.665534579e+00,4.36104e-89,4.65303e-89,9.37247e-01,9.99999e-01
1.673862252e+00,5.88621e-57,6.27227e-57,9.38448e-01,9.99999e-01
1.682231563e+00,1.44025e-39,1.53279e-39,9.39626e-01,9.99999e-01
1.690642721e+00,3.56923e-22,3.79389e-22,9.40782e-01,9.99999e-01
1.699095934e+00,2.97828e-14,3.16193e-14,9.41918e-01,9.99999e-01
1.707591414e+00,1.29376e-07,1.37192e-07,9.43031e-01,9.99999e-01
1.716129371e+00,1.02624e-04,1.08698e-04,9.44125e-01,9.99999e-01
1.724710018e+00,5.23776e-03,5.54144e-03,9.45197e-01,9.99999e-01
1.733333568e+00,3.07969e-02,3.25463e-02,9.46250e-01,9.99999e-01
1.742000236e+00,1.27599e-01,1.34700e-01,9.47283e-01,9.99999e-01
1.750710237e+00,1.04591e-03,1.10293e-03,9.48297e-01,9.99999e-01
1.759463788e+00,2.17681e-54,2.29309e-54,9.49292e-01,9.99999e-01
1.768261107e+00,6.39699e-57,6.73177e-57,9.50269e-01,9.99999e-01
1.777102413e+00,2.33888e-55,2.45881e-55,9.51226e-01,9.99999e-01
1.785987925e+00,5.70855e-52,5.99533e-52,9.52166e-01,9.99999e-01
1.794917864e+00,1.23364e-49,1.29436e-49,9.53089e-01,9.99999e-01
1.803892454e+00,9.82726e-48,1.03012e-47,9.53994e-01,9.99999e-01
1.812911916e+00,7.26479e-46,7.60805e-46,9.54882e-01,9.99999e-01
1.821976476e+00,6.21195e-46,6.49953e-46,9.55753e-01,9.99999e-01
1.831086358e+00,5.81268e-37,6.07634e-37,9.56607e-01,9.99999e-01
1.840241790e+00,1.65710e-31,1.73075e-31,9.57446e-01,9.99999e-01
1.849442999e+00,6.13387e-22,6.40099e-22,9.58269e-01,9.99999e-01
1.858690214e+00,1.36710e-20,1.42543e-20,9.59076e-01,9.99999e-01
1.867983665e+00,3.14307e-21,3.27448e-21,9.59868e-01,9.99999e-01
1.877323583e+00,1.26888e-103,1.32086e-103,9.60645e-01,9.99999e-01
