#,Wave/freq,Total,CO2,Rayleigh,CIA
4.000000000e-01,2.41921e-05,9.99999e-01,2.41921e-05,9.99999e-01
4.020000000e-01,2.98505e-05,9.99999e-01,2.98505e-05,9.99999e-01
4.040100000e-01,3.66719e-05,9.99999e-01,3.66719e-05,9.99999e-01
4.060300500e-01,4.48692e-05,9.99999e-01,4.48692e-05,9.99999e-01
4.080602003e-01,5.46806e-05,9.99999e-01,5.46806e-05,9.99999e-01
4.101005013e-01,6.63776e-05,9.99999e-01,6.63776e-05,9.99999e-01
4.121510038e-01,8.02688e-05,9.99999e-01,8.02688e-05,9.99999e-01
4.142117588e-01,9.67035e-05,9.99999e-01,9.67035e-05,9.99999e-01
4.162828176e-01,1.16075e-04,9.99999e-01,1.16075e-04,9.99999e-01
4.183642317e-01,1.38826e-04,9.99999e-01,1.38826e-04,9.99999e-01
4.204560528e-01,1.65450e-04,9.99999e-01,1.65450e-04,9.99999e-01
4.225583331e-01,1.96498e-04,9.99999e-01,1.96498e-04,9.99999e-01
4.246711247e-01,2.32580e-04,9.99999e-01,2.32580e-04,9.99999e-01
4.267944804e-01,2.74373e-04,9.99999e-01,2.74373e-04,9.99999e-01
4.289284528e-01,3.22622e-04,9.99999e-01,3.22622e-04,9.99999e-01
4.310730950e-01,3.78142e-04,9.99999e-01,3.78142e-04,9.99999e-01
4.332284605e-01,4.41830e-04,9.99999e-01,4.41830e-04,9.99999e-01
4.353946028e-01,5.14659e-04,9.99999e-01,5.14659e-04,9.99999e-01
4.375715758e-01,5.97689e-04,9.99999e-01,5.97689e-04,9.99999e-01
4.397594337e-01,6.92067e-04,9.99999e-01,6.92067e-04,9.99999e-01
4.419582309e-01,7.99029e-04,9.99999e-01,7.99029e-04,9.99999e-01
4.441680220e-01,9.19909e-04,9.99999e-01,9.19909e-04,9.99999e-01
4.463888621e-01,1.05613e-03,9.99999e-01,1.05613e-03,9.99999e-01
4.486208064e-01,1.20923e-03,9.99999e-01,1.20923e-03,9.99999e-01
4.508639105e-01,1.38081e-03,9.99999e-01,1.38081e-03,9.99999e-01
4.531182300e-01,1.57262e-03,9.99999e-01,1.57262e-03,9.99999e-01
4.553838212e-01,1.78648e-03,9.99999e-01,1.78648e-03,9.99999e-01
4.576607403e-01,2.02431e-03,9.99999e-01,2.02431e-03,9.99999e-01
4.599490440e-01,2.28816e-03,9.99999e-01,2.28816e-03,9.99999e-01
4.622487892e-01,2.58013e-03,9.99999e-01,2.58013e-03,9.99999e-01
4.645600332e-01,2.90248e-03,9.99999e-01,2.90248e-03,9.99999e-01
4.668828333e-01,3.25751e-03,9.99999e-01,3.25751e-03,9.99999e-01
4.692172475e-01,3.64764e-03,9.99999e-01,3.64764e-03,9.99999e-01
4.715633337e-01,4.07538e-03,9.99999e-01,4.07538e-03,9.99999e-01
4.739211504e-01,4.54332e-03,9.99999e-01,4.54332e-03,9.99999e-01
4.762907561e-01,5.05413e-03,9.99999e-01,5.05413e-03,9.99999e-01
4.786722099e-01,5.61054e-03,9.99999e-01,5.61054e-03,9.99999e-01
4.810655710e-01,6.21538e-03,9.99999e-01,6.21538e-03,9.99999e-01
4.834708988e-01,6.87151e-03,9.99999e-01,6.87151e-03,9.99999e-01
4.858882533e-01,7.58186e-03,9.99999e-01,7.58186e-03,9.99999e-01
4.883176946e-01,8.34940e-03,9.99999e-01,8.34940e-03,9.99999e-01
4.907592831e-01,9.17715e-03,9.99999e-01,9.17715e-03,9.99999e-01
4.932130795e-01,1.00681e-02,9.99999e-01,1.00681e-02,9.99999e-01
4.956791449e-01,1.10254e-02,9.99999e-01,1.10254e-02,9.99999e-01
4.981575406e-01,1.20521e-02,9.99999e-01,1.20521e-02,9.99999e-01
5.006483283e-01,1.31513e-02,9.99999e-01,1.31513e-02,9.99999e-01
5.031515699e-01,1.43259e-02,9.99999e-01,1.43259e-02,9.99999e-01
5.056673278e-01,1.55791e-02,9.99999e-01,1.55791e-02,9.99999e-01
5.081956644e-01,1.69140e-02,9.99999e-01,1.69140e-02,9.99999e-01
5.107366428e-01,1.83333e-02,9.99999e-01,1.83333e-02,9.99999e-01
5.132903260e-01,1.98402e-02,9.99999e-01,1.98402e-02,9.99999e-01
5.158567776e-01,2.14375e-02,9.99999e-01,2.14375e-02,9.99999e-01
5.184360615e-01,2.31280e-02,9.99999e-01,2.31280e-02,9.99999e-01
5.210282418e-01,2.49144e-02,9.99999e-01,2.49144e-02,9.99999e-01
5.236333830e-01,2.67994e-02,9.99999e-01,2.67994e-02,9.99999e-01
5.262515499e-01,2.87854e-02,9.99999e-01,2.87854e-02,9.99999e-01
5.288828077e-01,3.08751e-02,9.99999e-01,3.08751e-02,9.99999e-01
5.315272217e-01,3.30706e-02,9.99999e-01,3.30706e-02,9.99999e-01
5.341848578e-01,3.53742e-02,9.99999e-01,3.53742e-02,9.99999e-01
5.368557821e-01,3.77880e-02,9.99999e-01,3.77880e-02,9.99999e-01
5.395400610e-01,4.03139e-02,9.99999e-01,4.03139e-02,9.99999e-01
5.422377613e-01,4.29537e-02,9.99999e-01,4.29537e-02,9.99999e-01
5.449489501e-01,4.57090e-02,9.99999e-01,4.57090e-02,9.99999e-01
5.476736949e-01,4.85814e-02,9.99999e-01,4.85814e-02,9.99999e-01
5.504120634e-01,5.15722e-02,9.99999e-01,5.15722e-02,9.99999e-01
5.531641237e-01,5.46825e-02,9.99999e-01,5.46825e-02,9.99999e-01
5.559299443e-01,5.79134e-02,9.99999e-01,5.79134e-02,9.99999e-01
5.587095940e-01,6.12657e-02,9.99999e-01,6.12657e-02,9.99999e-01
5.615031420e-01,6.47400e-02,9.99999e-01,6.47400e-02,9.99999e-01
5.643106577e-01,6.83369e-02,9.99999e-01,6.83369e-02,9.99999e-01
5.671322110e-01,7.20565e-02,9.99999e-01,7.20565e-02,9.99999e-01
5.699678720e-01,7.58992e-02,9.99999e-01,7.58992e-02,9.99999e-01
5.728177114e-01,7.98648e-02,9.99999e-01,7.98648e-02,9.99999e-01
5.756818000e-01,8.39531e-02,9.99999e-01,8.39531e-02,9.99999e-01
5.785602090e-01,8.81636e-02,9.99999e-01,8.81636e-02,9.99999e-01
5.814530100e-01,9.24959e-02,9.99999e-01,9.24959e-02,9.99999e-01
5.843602750e-01,9.69492e-02,9.99999e-01,9.69492e-02,9.99999e-01
5.872820764e-01,1.01523e-01,9.99999e-01,1.01523e-01,9.99999e-01
5.902184868e-01,1.06215e-01,9.99999e-01,1.06215e-01,9.99999e-01
5.931695792e-01,1.11025e-01,9.99999e-01,1.11025e-01,9.99999e-01
5.961354271e-01,1.15951e-01,9.99999e-01,1.15951e-01,9.99999e-01
5.991161043e-01,1.20993e-01,9.99999e-01,1.20993e-01,9.99999e-01
6.021116848e-01,1.26147e-01,9.99999e-01,1.26147e-01,9.99999e-01
6.051222432e-01,1.31412e-01,9.99999e-01,1.31412e-01,9.99999e-01
6.081478544e-01,1.36787e-01,9.99999e-01,1.36787e-01,9.99999e-01
6.111885937e-01,1.42269e-01,9.99999e-01,1.42269e-01,9.99999e-01
6.142445367e-01,1.47856e-01,9.99999e-01,1.47856e-01,9.99999e-01
6.173157594e-01,1.53545e-01,9.99999e-01,1.53545e-01,9.99999e-01
6.204023382e-01,1.59335e-01,9.99999e-01,1.59335e-01,9.99999e-01
6.235043498e-01,1.65222e-01,9.99999e-01,1.65222e-01,9.99999e-01
6.266218716e-01,1.71203e-01,9.99999e-01,1.71203e-01,9.99999e-01
6.297549810e-01,1.77277e-01,9.99999e-01,1.77277e-01,9.99999e-01
6.329037559e-01,1.83440e-01,9.99999e-01,1.83440e-01,9.99999e-01
6.360682746e-01,1.89688e-01,9.99999e-01,1.89688e-01,9.99999e-01
6.392486160e-01,1.96020e-01,9.99999e-01,1.96020e-01,9.99999e-01
6.424448591e-01,2.02432e-01,9.99999e-01,2.02432e-01,9.99999e-01
6.456570834e-01,2.08921e-01,9.99999e-01,2.08921e-01,9.99999e-01
6.488853688e-01,2.15484e-01,9.99999e-01,2.15484e-01,9.99999e-01
6.521297956e-01,2.22117e-01,9.99999e-01,2.22117e-01,9.99999e-01
6.553904446e-01,2.28817e-01,9.99999e-01,2.28817e-01,9.99999e-01
6.586673968e-01,2.35581e-01,9.99999e-01,2.35581e-01,9.99999e-01
6.619607338e-01,2.42405e-01,9.99999e-01,2.42405e-01,9.99999e-01
6.652705375e-01,2.49286e-01,9.99999e-01,2.49286e-01,9.99999e-01
6.685968902e-01,2.56221e-01,9.99999e-01,2.56221e-01,9.99999e-01
6.719398746e-01,2.63206e-01,9.99999e-01,2.63206e-01,9.99999e-01
6.752995740e-01,2.70238e-01,9.99999e-01,2.70238e-01,9.99999e-01
6.786760719e-01,2.77314e-01,9.99999e-01,2.77314e-01,9.99999e-01
6.820694522e-01,2.84429e-01,9.99999e-01,2.84429e-01,9.99999e-01
6.854797995e-01,2.91581e-01,9.99999e-01,2.91581e-01,9.99999e-01
6.889071985e-01,2.98766e-01,9.99999e-01,2.98766e-01,9.99999e-01
6.923517345e-01,3.05982e-01,9.99999e-01,3.05982e-01,9.99999e-01
6.958134932e-01,3.13223e-01,9.99999e-01,3.13223e-01,9.99999e-01
6.992925606e-01,3.20488e-01,9.99999e-01,3.20488e-01,9.99999e-01
7.027890234e-01,3.27773e-01,9.99999e-01,3.27773e-01,9.99999e-01
7.063029686e-01,3.35075e-01,9.99999e-01,3.35075e-01,9.99999e-01
7.098344834e-01,3.42391e-01,9.99999e-01,3.42391e-01,9.99999e-01
7.133836558e-01,3.49716e-01,9.99999e-01,3.49716e-01,9.99999e-01
7.169505741e-01,3.57050e-01,9.99999e-01,3.57050e-01,9.99999e-01
7.205353270e-01,3.64388e-01,9.99999e-01,3.64388e-01,9.99999e-01
7.241380036e-01,3.71727e-01,9.99999e-01,3.71727e-01,9.99999e-01
7.277586936e-01,3.79064e-01,9.99999e-01,3.79064e-01,9.99999e-01
7.313974871e-01,3.86398e-01,9.99999e-01,3.86398e-01,9.99999e-01
7.350544745e-01,3.93724e-01,9.99999e-01,3.93724e-01,9.99999e-01
7.387297469e-01,4.01040e-01,9.99999e-01,4.01040e-01,9.99999e-01
7.424233956e-01,4.08343e-01,9.99999e-01,4.08343e-01,9.99999e-01
7.461355126e-01,4.15632e-01,9.99999e-01,4.15632e-01,9.99999e-01
7.498661902e-01,4.22902e-01,9.99999e-01,4.22902e-01,9.99999e-01
7.536155211e-01,4.30153e-01,9.99999e-01,4.30153e-01,9.99999e-01
7.573835987e-01,4.37381e-01,9.99999e-01,4.37381e-01,9.99999e-01
7.611705167e-01,4.44584e-01,9.99999e-01,4.44584e-01,9.99999e-01
7.649763693e-01,4.51759e-01,9.99999e-01,4.51759e-01,9.99999e-01
7.688012511e-01,4.58906e-01,9.99999e-01,4.58906e-01,9.99999e-01
7.726452574e-01,4.66021e-01,9.99999e-01,4.66021e-01,9.99999e-01
7.765084837e-01,4.73103e-01,9.99999e-01,4.73103e-01,9.99999e-01
7.803910261e-01,4.63780e-01,9.65909e-01,4.80149e-01,9.99999e-01
7.842929812e-01,4.17149e-01,8.56292e-01,4.87157e-01,9.99999e-01
7.882144461e-01,4.18623e-01,8.47196e-01,4.94127e-01,9.99999e-01
7.921555184e-01,4.54849e-01,9.07779e-01,5.01056e-01,9.99999e-01
7.961162960e-01,4.76018e-01,9.37150e-01,5.07942e-01,9.99999e-01
8.000968774e-01,4.96997e-01,9.65447e-01,5.14784e-01,9.99999e-01
8.040973618e-01,5.12156e-01,9.81931e-01,5.21580e-01,9.99999e-01
8.081178486e-01,5.23932e-01,9.91675e-01,5.28329e-01,9.99999e-01
8.121584379e-01,5.33648e-01,9.97416e-01,5.35030e-01,9.99999e-01
8.162192301e-01,5.41371e-01,9.99428e-01,5.41680e-01,9.99999e-01
8.203003262e-01,5.48275e-01,9.99990e-01,5.48280e-01,9.99999e-01
8.244018279e-01,5.54827e-01,9.99999e-01,5.54827e-01,9.99999e-01
8.285238370e-01,5.61321e-01,9.99999e-01,5.61321e-01,9.99999e-01
8.326664562e-01,5.67760e-01,9.99999e-01,5.67760e-01,9.99999e-01
8.368297885e-01,5.74144e-01,9.99999e-01,5.74144e-01,9.99999e-01
8.410139374e-01,5.80471e-01,9.99999e-01,5.80471e-01,9.99999e-01
8.452190071e-01,5.86741e-01,9.99999e-01,5.86741e-01,9.99999e-01
8.494451021e-01,5.92953e-01,9.99999e-01,5.92953e-01,9.99999e-01
8.536923276e-01,5.99106e-01,9.99999e-01,5.99106e-01,9.99999e-01
8.579607893e-01,6.05200e-01,9.99999e-01,6.05200e-01,9.99999e-01
8.622505932e-01,6.11233e-01,9.99999e-01,6.11233e-01,9.99999e-01
8.665618462e-01,5.70935e-01,9.25032e-01,6.17205e-01,9.99999e-01
8.708946554e-01,4.20469e-01,6.74783e-01,6.23116e-01,9.99999e-01
8.752491287e-01,4.57905e-01,7.28027e-01,6.28966e-01,9.99999e-01
8.796253743e-01,5.33118e-01,8.39882e-01,6.34753e-01,9.99999e-01
8.840235012e-01,5.85068e-01,9.13488e-01,6.40477e-01,9.99999e-01
8.884436187e-01,6.23483e-01,9.64936e-01,6.46138e-01,9.99999e-01
8.928858368e-01,6.42390e-01,9.85659e-01,6.51737e-01,9.99999e-01
8.973502660e-01,6.54967e-01,9.96493e-01,6.57271e-01,9.99999e-01
9.018370173e-01,6.62486e-01,9.99612e-01,6.62742e-01,9.99999e-01
9.063462024e-01,6.61595e-01,9.90190e-01,6.68149e-01,9.99999e-01
9.108779334e-01,6.58324e-01,9.77478e-01,6.73492e-01,9.99999e-01
9.154323231e-01,6.75144e-01,9.94655e-01,6.78771e-01,9.99999e-01
9.200094847e-01,6.33136e-01,9.25655e-01,6.83986e-01,9.99999e-01
9.246095321e-01,6.16447e-01,8.94520e-01,6.89137e-01,9.99999e-01
9.292325798e-01,6.36322e-01,9.16594e-01,6.94224e-01,9.99999e-01
9.338787427e-01,6.42634e-01,9.19038e-01,6.99246e-01,9.99999e-01
9.385481364e-01,6.61847e-01,9.39848e-01,7.04205e-01,9.99999e-01
9.432408771e-01,6.82656e-01,9.62706e-01,7.09100e-01,9.99999e-01
9.479570815e-01,7.00156e-01,9.80705e-01,7.13931e-01,9.99999e-01
9.526968669e-01,7.11977e-01,9.90646e-01,7.18699e-01,9.99999e-01
9.574603512e-01,7.20503e-01,9.95989e-01,7.23403e-01,9.99999e-01
9.622476530e-01,7.27133e-01,9.98747e-01,7.28045e-01,9.99999e-01
9.670588912e-01,7.32348e-01,9.99624e-01,7.32623e-01,9.99999e-01
9.718941857e-01,7.37120e-01,9.99972e-01,7.37140e-01,9.99999e-01
9.767536566e-01,7.41594e-01,9.99999e-01,7.41594e-01,9.99999e-01
9.816374249e-01,7.45986e-01,9.99999e-01,7.45986e-01,9.99999e-01
9.865456120e-01,7.50316e-01,9.99999e-01,7.50316e-01,9.99999e-01
9.914783401e-01,7.54586e-01,9.99999e-01,7.54586e-01,9.99999e-01
9.964357318e-01,7.58794e-01,9.99999e-01,7.58794e-01,9.99999e-01
1.001417910e+00,7.62943e-01,9.99999e-01,7.62943e-01,9.99999e-01
1.006425000e+00,7.67031e-01,9.99999e-01,7.67031e-01,9.99999e-01
1.011457125e+00,7.71060e-01,9.99999e-01,7.71060e-01,9.99999e-01
1.016514411e+00,7.75030e-01,9.99999e-01,7.75030e-01,9.99999e-01
1.021596983e+00,7.78902e-01,9.99949e-01,7.78941e-01,9.99999e-01
1.026704968e+00,7.79797e-01,9.96170e-01,7.82795e-01,9.99999e-01
1.031838492e+00,7.51832e-01,9.55811e-01,7.86590e-01,9.99999e-01
1.036997685e+00,1.18298e-01,1.49682e-01,7.90329e-01,9.99999e-01
1.042182673e+00,9.03407e-02,1.13778e-01,7.94011e-01,9.99999e-01
1.047393587e+00,1.09139e-01,1.36828e-01,7.97636e-01,9.99999e-01
1.052630555e+00,2.80638e-03,3.50269e-03,8.01207e-01,9.99999e-01
1.057893707e+00,7.21172e-03,8.96175e-03,8.04722e-01,9.99999e-01
1.063183176e+00,2.49180e-02,3.08321e-02,8.08183e-01,9.99999e-01
1.068499092e+00,7.20432e-02,8.87680e-02,8.11590e-01,9.99999e-01
1.073841587e+00,1.76063e-01,2.16043e-01,8.14943e-01,9.99999e-01
1.079210795e+00,3.10095e-01,3.78976e-01,8.18244e-01,9.99999e-01
1.084606849e+00,4.81289e-01,5.85872e-01,8.21492e-01,9.99999e-01
1.090029883e+00,6.24819e-01,7.57641e-01,8.24689e-01,9.99999e-01
1.095480033e+00,7.21982e-01,8.72132e-01,8.27835e-01,9.99999e-01
1.100957433e+00,7.77932e-01,9.36217e-01,8.30930e-01,9.99999e-01
1.106462220e+00,8.11546e-01,9.73105e-01,8.33976e-01,9.99999e-01
1.111994531e+00,8.28558e-01,9.89946e-01,8.36972e-01,9.99999e-01
1.117554504e+00,8.37848e-01,9.97533e-01,8.39919e-01,9.99999e-01
1.123142276e+00,8.42681e-01,9.99837e-01,8.42818e-01,9.99999e-01
1.128757988e+00,8.45670e-01,9.99999e-01,8.45670e-01,9.99999e-01
1.134401778e+00,8.48474e-01,9.99999e-01,8.48474e-01,9.99999e-01
1.140073787e+00,8.51233e-01,9.99999e-01,8.51233e-01,9.99999e-01
1.145774156e+00,8.53945e-01,9.99999e-01,8.53945e-01,9.99999e-01
1.151503026e+00,8.56613e-01,9.99999e-01,8.56613e-01,9.99999e-01
1.157260541e+00,8.59235e-01,9.99999e-01,8.59235e-01,9.99999e-01
1.163046844e+00,8.61814e-01,9.99999e-01,8.61814e-01,9.99999e-01
1.168862078e+00,8.64349e-01,9.99999e-01,8.64349e-01,9.99999e-01
1.174706389e+00,8.66842e-01,9.99999e-01,8.66842e-01,9.99999e-01
1.180579921e+00,8.69292e-01,9.99999e-01,8.69292e-01,9.99999e-01
1.186482820e+00,8.71695e-01,9.99993e-01,8.71700e-01,9.99999e-01
1.192415234e+00,8.62194e-01,9.86414e-01,8.74068e-01,9.99999e-01
1.198377311e+00,4.91679e-01,5.61024e-01,8.76395e-01,9.99999e-01
1.204369197e+00,1.81956e-11,2.07078e-11,8.78682e-01,9.99999e-01
1.210391043e+00,7.57562e-42,8.59956e-42,8.80929e-01,9.99999e-01
1.216442998e+00,2.04957e-36,2.32078e-36,8.83138e-01,9.99999e-01
1.222525213e+00,6.85789e-36,7.74632e-36,8.85309e-01,9.99999e-01
1.228637839e+00,8.45367e-28,9.52588e-28,8.87441e-01,9.99999e-01
1.234781029e+00,5.26007e-18,5.91326e-18,8.89537e-01,9.99999e-01
1.240954934e+00,3.65257e-12,4.09666e-12,8.91596e-01,9.99999e-01
1.247159708e+00,9.58563e-07,1.07267e-06,8.93619e-01,9.99999e-01
1.253395507e+00,2.30137e-04,2.56962e-04,8.95607e-01,9.99999e-01
1.259662485e+00,7.82555e-03,8.71870e-03,8.97559e-01,9.99999e-01
1.265960797e+00,5.77703e-02,6.42265e-02,8.99477e-01,9.99999e-01
1.272290601e+00,2.81683e-01,3.12508e-01,9.01361e-01,9.99999e-01
1.278652054e+00,2.41546e-01,2.67430e-01,9.03212e-01,9.99999e-01
1.285045314e+00,6.24479e-03,6.90008e-03,9.05030e-01,9.99999e-01
1.291470541e+00,1.36707e-05,1.50755e-05,9.06816e-01,9.99999e-01
1.297927893e+00,3.92046e-03,4.31498e-03,9.08570e-01,9.99999e-01
1.304417533e+00,1.09512e-01,1.20304e-01,9.10292e-01,9.99999e-01
1.310939621e+00,2.67416e-02,2.93224e-02,9.11984e-01,9.99999e-01
1.317494319e+00,7.57426e-15,8.29015e-15,9.13645e-01,9.99999e-01
1.324081790e+00,2.82861e-10,3.09044e-10,9.15276e-01,9.99999e-01
1.330702199e+00,4.47385e-06,4.87943e-06,9.16878e-01,9.99999e-01
1.337355710e+00,6.02183e-06,6.55650e-06,9.18451e-01,9.99999e-01
1.344042489e+00,1.85342e-06,2.01459e-06,9.19995e-01,9.99999e-01
1.350762701e+00,2.75271e-06,2.98717e-06,9.21512e-01,9.99999e-01
1.357516515e+00,2.69958e-04,2.92478e-04,9.23001e-01,9.99999e-01
1.364304097e+00,4.54321e-03,4.91442e-03,9.24463e-01,9.99999e-01
1.371125618e+00,5.80037e-02,6.26458e-02,9.25898e-01,9.99999e-01
1.377981246e+00,9.52614e-02,1.02729e-01,9.27307e-01,9.99999e-01
1.384871152e+00,2.47015e-01,2.65981e-01,9.28691e-01,9.99999e-01
1.391795508e+00,2.73462e-01,2.94029e-01,9.30049e-01,9.99999e-01
1.398754485e+00,4.37403e-01,4.69627e-01,9.31382e-01,9.99999e-01
1.405748258e+00,5.34648e-01,5.73231e-01,9.32691e-01,9.99999e-01
1.412776999e+00,6.57060e-01,7.03509e-01,9.33975e-01,9.99999e-01
1.419840884e+00,5.92464e-01,6.33490e-01,9.35236e-01,9.99999e-01
1.426940089e+00,5.38428e-02,5.74952e-02,9.36474e-01,9.99999e-01
1.434074789e+00,0.00000e+00,0.00000e+00,9.37689e-01,9.99999e-01
1.441245163e+00,0.00000e+00,0.00000e+00,9.38881e-01,9.99999e-01
1.448451389e+00,0.00000e+00,0.00000e+00,9.40051e-01,9.99999e-01
1.455693646e+00,0.00000e+00,0.00000e+00,9.41200e-01,9.99999e-01
1.462972114e+00,5.62224e-163,5.96633e-163,9.42327e-01,9.99999e-01
1.470286975e+00,2.19475e-68,2.32634e-68,9.43434e-01,9.99999e-01
1.477638409e+00,1.88452e-43,1.99521e-43,9.44519e-01,9.99999e-01
1.485026601e+00,1.00413e-24,1.06192e-24,9.45585e-01,9.99999e-01
1.492451734e+00,4.55468e-21,4.81146e-21,9.46630e-01,9.99999e-01
1.499913993e+00,7.01658e-10,7.40414e-10,9.47656e-01,9.99999e-01
1.507413563e+00,1.12254e-08,1.18329e-08,9.48663e-01,9.99999e-01
1.514950631e+00,4.49561e-10,4.73396e-10,9.49651e-01,9.99999e-01
1.522525384e+00,2.96402e-31,3.11798e-31,9.50621e-01,9.99999e-01
1.530138011e+00,7.11963e-73,7.48196e-73,9.51572e-01,9.99999e-01
1.537788701e+00,3.09529e-54,3.24963e-54,9.52506e-01,9.99999e-01
1.545477645e+00,1.88983e-12,1.98215e-12,9.53422e-01,9.99999e-01
1.553205033e+00,9.04155e-09,9.47433e-09,9.54320e-01,9.99999e-01
1.560971058e+00,2.70712e-09,2.83408e-09,9.55202e-01,9.99999e-01
1.568775913e+00,8.18013e-183,8.55602e-183,9.56067e-01,9.99999e-01
1.576619793e+00,0.00000e+00,0.00000e+00,9.56916e-01,9.99999e-01
1.584502892e+00,1.34475e-233,1.40408e-233,9.57749e-01,9.99999e-01
1.592425406e+00,5.06569e-163,5.28465e-163,9.58566e-01,9.99999e-01
1.600387533e+00,2.77459e-262,2.89210e-262,9.59367e-01,9.99999e-01
1.608389471e+00,0.00000e+00,0.00000e+00,9.60154e-01,9.99999e-01
1.616431418e+00,0.00000e+00,0.00000e+00,9.60925e-01,9.99999e-01
1.624513575e+00,6.90544e-207,7.18058e-207,9.61682e-01,9.99999e-01
1.632636143e+00,7.25874e-154,7.54214e-154,9.62424e-01,9.99999e-01
1.640799324e+00,1.90120e-63,1.97393e-63,9.63153e-01,9.99999e-01
1.649003321e+00,1.92595e-63,1.99815e-63,9.63867e-01,9.99999e-01
1.657248337e+00,2.71720e-49,2.81701e-49,9.64568e-01,9.99999e-01
1.665534579e+00,1.29157e-49,1.33806e-49,9.65256e-01,9.99999e-01
1.673862252e+00,4.73314e-32,4.90009e-32,9.65930e-01,9.99999e-01
1.682231563e+00,1.46022e-22,1.51069e-22,9.66592e-01,9.99999e-01
1.690642721e+00,4.26912e-13,4.41371e-13,9.67241e-01,9.99999e-01
1.699095934e+00,1.63521e-08,1.68948e-08,9.67877e-01,9.99999e-01
1.707591414e+00,7.39193e-05,7.63233e-05,9.68502e-01,9.99999e-01
1.716129371e+00,4.76359e-03,4.91540e-03,9.69114e-01,9.99999e-01
1.724710018e+00,5.20504e-02,5.36759e-02,9.69715e-01,9.99999e-01
1.733333568e+00,1.45470e-01,1.49922e-01,9.70304e-01,9.99999e-01
1.742000236e+00,3.11501e-01,3.20843e-01,9.70882e-01,9.99999e-01
1.750710237e+00,8.11063e-03,8.34900e-03,9.71449e-01,9.99999e-01
1.759463788e+00,1.38653e-30,1.42646e-30,9.72005e-01,9.99999e-01
1.768261107e+00,4.40051e-32,4.52471e-32,9.72550e-01,9.99999e-01
1.777102413e+00,6.55176e-31,6.73298e-31,9.73085e-01,9.99999e-01
1.785987925e+00,2.44141e-29,2.50758e-29,9.73609e-01,9.99999e-01
1.794917864e+00,5.74392e-28,5.89649e-28,9.74124e-01,9.99999e-01
1.803892454e+00,4.53795e-27,4.65608e-27,9.74628e-01,9.99999e-01
1.812911916e+00,6.23518e-26,6.39424e-26,9.75123e-01,9.99999e-01
1.821976476e+00,4.49109e-26,4.60337e-26,9.75609e-01,9.99999e-01
1.831086358e+00,3.51433e-21,3.60043e-21,9.76084e-01,9.99999e-01
1.840241790e+00,5.01225e-18,5.13260e-18,9.76551e-01,9.99999e-01
1.849442999e+00,1.25030e-12,1.27972e-12,9.77009e-01,9.99999e-01
1.858690214e+00,1.06180e-11,1.08629e-11,9.77458e-01,9.99999e-01
1.867983665e+00,1.81954e-12,1.86066e-12,9.77898e-01,9.99999e-01
1.877323583e+00,1.48878e-57,1.52176e-57,9.78330e-01,9.99999e-01
