#,Wave/freq,Total,CO2,Rayleigh,CIA
4.000000000e-01,1.45617e-02,9.99999e-01,1.45617e-02,9.99999e-01
4.020000000e-01,1.58319e-02,9.99999e-01,1.58319e-02,9.99999e-01
4.040100000e-01,1.71829e-02,9.99999e-01,1.71829e-02,9.99999e-01
4.060300500e-01,1.86190e-02,9.99999e-01,1.86190e-02,9.99999e-01
4.080602003e-01,2.01432e-02,9.99999e-01,2.01432e-02,9.99999e-01
4.101005013e-01,2.17584e-02,9.99999e-01,2.17584e-02,9.99999e-01
4.121510038e-01,2.34673e-02,9.99999e-01,2.34673e-02,9.99999e-01
4.142117588e-01,2.52726e-02,9.99999e-01,2.52726e-02,9.99999e-01
4.162828176e-01,2.71770e-02,9.99999e-01,2.71770e-02,9.99999e-01
4.183642317e-01,2.91830e-02,9.99999e-01,2.91830e-02,9.99999e-01
4.204560528e-01,3.12930e-02,9.99999e-01,3.12930e-02,9.99999e-01
4.225583331e-01,3.35094e-02,9.99999e-01,3.35094e-02,9.99999e-01
4.246711247e-01,3.58342e-02,9.99999e-01,3.58342e-02,9.99999e-01
4.267944804e-01,3.82696e-02,9.99999e-01,3.82696e-02,9.99999e-01
4.289284528e-01,4.08175e-02,9.99999e-01,4.08175e-02,9.99999e-01
4.310730950e-01,4.34796e-02,9.99999e-01,4.34796e-02,9.99999e-01
4.332284605e-01,4.62576e-02,9.99999e-01,4.62576e-02,9.99999e-01
4.353946028e-01,4.91528e-02,9.99999e-01,4.91528e-02,9.99999e-01
4.375715758e-01,5.21668e-02,9.99999e-01,5.21668e-02,9.99999e-01
4.397594337e-01,5.53004e-02,9.99999e-01,5.53004e-02,9.99999e-01
4.419582309e-01,5.85548e-02,9.99999e-01,5.85548e-02,9.99999e-01
4.441680220e-01,6.19308e-02,9.99999e-01,6.19308e-02,9.99999e-01
4.463888621e-01,6.54288e-02,9.99999e-01,6.54288e-02,9.99999e-01
4.486208064e-01,6.90495e-02,9.99999e-01,6.90495e-02,9.99999e-01
4.508639105e-01,7.27931e-02,9.99999e-01,7.27931e-02,9.99999e-01
4.531182300e-01,7.66596e-02,9.99999e-01,7.66596e-02,9.99999e-01
4.553838212e-01,8.06490e-02,9.99999e-01,8.06490e-02,9.99999e-01
4.576607403e-01,8.47611e-02,9.99999e-01,8.47611e-02,9.99999e-01
4.599490440e-01,8.89954e-02,9.99999e-01,8.89954e-02,9.99999e-01
4.622487892e-01,9.33512e-02,9.99999e-01,9.33512e-02,9.99999e-01
4.645600332e-01,9.78279e-02,9.99999e-01,9.78279e-02,9.99999e-01
4.668828333e-01,1.02424e-01,9.99999e-01,1.02424e-01,9.99999e-01
4.692172475e-01,1.07140e-01,9.99999e-01,1.07140e-01,9.99999e-01
4.715633337e-01,1.11972e-01,9.99999e-01,1.11972e-01,9.99999e-01
4.739211504e-01,1.16921e-01,9.99999e-01,1.16921e-01,9.99999e-01
4.762907561e-01,1.21985e-01,9.99999e-01,1.21985e-01,9.99999e-01
4.786722099e-01,1.27161e-01,9.99999e-01,1.27161e-01,9.99999e-01
4.810655710e-01,1.32448e-01,9.99999e-01,1.32448e-01,9.99999e-01
4.834708988e-01,1.37843e-01,9.99999e-01,1.37843e-01,9.99999e-01
4.858882533e-01,1.43346e-01,9.99999e-01,1.43346e-01,9.99999e-01
4.883176946e-01,1.48953e-01,9.99999e-01,1.48953e-01,9.99999e-01
4.907592831e-01,1.54662e-01,9.99999e-01,1.54662e-01,9.99999e-01
4.932130795e-01,1.60470e-01,9.99999e-01,1.60470e-01,9.99999e-01
4.956791449e-01,1.66376e-01,9.99999e-01,1.66376e-01,9.99999e-01
4.981575406e-01,1.72375e-01,9.99999e-01,1.72375e-01,9.99999e-01
5.006483283e-01,1.78467e-01,9.99999e-01,1.78467e-01,9.99999e-01
5.031515699e-01,1.84646e-01,9.99999e-01,1.84646e-01,9.99999e-01
5.056673278e-01,1.90912e-01,9.99999e-01,1.90912e-01,9.99999e-01
5.081956644e-01,1.97259e-01,9.99999e-01,1.97259e-01,9.99999e-01
5.107366428e-01,2.03686e-01,9.99999e-01,2.03686e-01,9.99999e-01
5.132903260e-01,2.10190e-01,9.99999e-01,2.10190e-01,9.99999e-01
5.158567776e-01,2.16766e-01,9.99999e-01,2.16766e-01,9.99999e-01
5.184360615e-01,2.23413e-01,9.99999e-01,2.23413e-01,9.99999e-01
5.210282418e-01,2.30125e-01,9.99999e-01,2.30125e-01,9.99999e-01
5.236333830e-01,2.36901e-01,9.99999e-01,2.36901e-01,9.99999e-01
5.262515499e-01,2.43737e-01,9.99999e-01,2.43737e-01,9.99999e-01
5.288828077e-01,2.50629e-01,9.99999e-01,2.50629e-01,9.99999e-01
5.315272217e-01,2.57574e-01,9.99999e-01,2.57574e-01,9.99999e-01
5.341848578e-01,2.64568e-01,9.99999e-01,2.64568e-01,9.99999e-01
5.368557821e-01,2.71609e-01,9.99999e-01,2.71609e-01,9.99999e-01
5.395400610e-01,2.78692e-01,9.99999e-01,2.78692e-01,9.99999e-01
5.422377613e-01,2.85815e-01,9.99999e-01,2.85815e-01,9.99999e-01
5.449489501e-01,2.92974e-01,9.99999e-01,2.92974e-01,9.99999e-01
5.476736949e-01,3.00165e-01,9.99999e-01,3.00165e-01,9.99999e-01
5.504120634e-01,3.07386e-01,9.99999e-01,3.07386e-01,9.99999e-01
5.531641237e-01,3.14632e-01,9.99999e-01,3.14632e-01,9.99999e-01
5.559299443e-01,3.21901e-01,9.99999e-01,3.21901e-01,9.99999e-01
5.587095940e-01,3.29190e-01,9.99999e-01,3.29190e-01,9.99999e-01
5.615031420e-01,3.36495e-01,9.99999e-01,3.36495e-01,9.99999e-01
5.643106577e-01,3.43812e-01,9.99999e-01,3.43812e-01,9.99999e-01
5.671322110e-01,3.51140e-01,9.99999e-01,3.51140e-01,9.99999e-01
5.699678720e-01,3.58474e-01,9.99999e-01,3.58474e-01,9.99999e-01
5.728177114e-01,3.65813e-01,9.99999e-01,3.65813e-01,9.99999e-01
5.756818000e-01,3.73152e-01,9.99999e-01,3.73152e-01,9.99999e-01
5.785602090e-01,3.80489e-01,9.99999e-01,3.80489e-01,9.99999e-01
5.814530100e-01,3.87821e-01,9.99999e-01,3.87821e-01,9.99999e-01
5.843602750e-01,3.95145e-01,9.99999e-01,3.95145e-01,9.99999e-01
5.872820764e-01,4.02459e-01,9.99999e-01,4.02459e-01,9.99999e-01
5.902184868e-01,4.09760e-01,9.99999e-01,4.09760e-01,9.99999e-01
5.931695792e-01,4.17045e-01,9.99999e-01,4.17045e-01,9.99999e-01
5.961354271e-01,4.24312e-01,9.99999e-01,4.24312e-01,9.99999e-01
5.991161043e-01,4.31558e-01,9.99999e-01,4.31558e-01,9.99999e-01
6.021116848e-01,4.38781e-01,9.99999e-01,4.38781e-01,9.99999e-01
6.051222432e-01,4.45979e-01,9.99999e-01,4.45979e-01,9.99999e-01
6.081478544e-01,4.53150e-01,9.99999e-01,4.53150e-01,9.99999e-01
6.111885937e-01,4.60290e-01,9.99999e-01,4.60290e-01,9.99999e-01
6.142445367e-01,4.67399e-01,9.99999e-01,4.67399e-01,9.99999e-01
6.173157594e-01,4.74474e-01,9.99999e-01,4.74474e-01,9.99999e-01
6.204023382e-01,4.81513e-01,9.99999e-01,4.81513e-01,9.99999e-01
6.235043498e-01,4.88514e-01,9.99999e-01,4.88514e-01,9.99999e-01
6.266218716e-01,4.95476e-01,9.99999e-01,4.95476e-01,9.99999e-01
6.297549810e-01,5.02396e-01,9.99999e-01,5.02396e-01,9.99999e-01
6.329037559e-01,5.09274e-01,9.99999e-01,5.09274e-01,9.99999e-01
6.360682746e-01,5.16107e-01,9.99999e-01,5.16107e-01,9.99999e-01
6.392486160e-01,5.22894e-01,9.99999e-01,5.22894e-01,9.99999e-01
6.424448591e-01,5.29634e-01,9.99999e-01,5.29634e-01,9.99999e-01
6.456570834e-01,5.36325e-01,9.99999e-01,5.36325e-01,9.99999e-01
6.488853688e-01,5.42966e-01,9.99999e-01,5.42966e-01,9.99999e-01
6.521297956e-01,5.49555e-01,9.99999e-01,5.49555e-01,9.99999e-01
6.553904446e-01,5.56092e-01,9.99999e-01,5.56092e-01,9.99999e-01
6.586673968e-01,5.62576e-01,9.99999e-01,5.62576e-01,9.99999e-01
6.619607338e-01,5.69004e-01,9.99999e-01,5.69004e-01,9.99999e-01
6.652705375e-01,5.75377e-01,9.99999e-01,5.75377e-01,9.99999e-01
6.685968902e-01,5.81693e-01,9.99999e-01,5.81693e-01,9.99999e-01
6.719398746e-01,5.87952e-01,9.99999e-01,5.87952e-01,9.99999e-01
6.752995740e-01,5.94153e-01,9.99999e-01,5.94153e-01,9.99999e-01
6.786760719e-01,6.00294e-01,9.99999e-01,6.00294e-01,9.99999e-01
6.820694522e-01,6.06376e-01,9.99999e-01,6.06376e-01,9.99999e-01
6.854797995e-01,6.12397e-01,9.99999e-01,6.12397e-01,9.99999e-01
6.889071985e-01,6.18358e-01,9.99999e-01,6.18358e-01,9.99999e-01
6.923517345e-01,6.24257e-01,9.99999e-01,6.24257e-01,9.99999e-01
6.958134932e-01,6.30094e-01,9.99999e-01,6.30094e-01,9.99999e-01
6.992925606e-01,6.35869e-01,9.99999e-01,6.35869e-01,9.99999e-01
7.027890234e-01,6.41581e-01,9.99999e-01,6.41581e-01,9.99999e-01
7.063029686e-01,6.47230e-01,9.99999e-01,6.47230e-01,9.99999e-01
7.098344834e-01,6.52816e-01,9.99999e-01,6.52816e-01,9.99999e-01
7.133836558e-01,6.58339e-01,9.99999e-01,6.58339e-01,9.99999e-01
7.169505741e-01,6.63797e-01,9.99999e-01,6.63797e-01,9.99999e-01
7.205353270e-01,6.69192e-01,9.99999e-01,6.69192e-01,9.99999e-01
7.241380036e-01,6.74522e-01,9.99999e-01,6.74522e-01,9.99999e-01
7.277586936e-01,6.79789e-01,9.99999e-01,6.79789e-01,9.99999e-01
7.313974871e-01,6.84991e-01,9.99999e-01,6.84991e-01,9.99999e-01
7.350544745e-01,6.90130e-01,9.99999e-01,6.90130e-01,9.99999e-01
7.387297469e-01,6.95204e-01,9.99999e-01,6.95204e-01,9.99999e-01
7.424233956e-01,7.00214e-01,9.99999e-01,7.00214e-01,9.99999e-01
7.461355126e-01,7.05161e-01,9.99999e-01,7.05161e-01,9.99999e-01
7.498661902e-01,7.10043e-01,9.99999e-01,7.10043e-01,9.99999e-01
7.536155211e-01,7.14862e-01,9.99999e-01,7.14862e-01,9.99999e-01
7.573835987e-01,7.19617e-01,9.99999e-01,7.19617e-01,9.99999e-01
7.611705167e-01,7.24310e-01,9.99999e-01,7.24310e-01,9.99999e-01
7.649763693e-01,7.28939e-01,9.99999e-01,7.28939e-01,9.99999e-01
7.688012511e-01,7.33505e-01,9.99999e-01,7.33505e-01,9.99999e-01
7.726452574e-01,7.38009e-01,9.99999e-01,7.38009e-01,9.99999e-01
7.765084837e-01,7.42451e-01,9.99999e-01,7.42451e-01,9.99999e-01
7.803910261e-01,7.36102e-01,9.85632e-01,7.46831e-01,9.99999e-01
7.842929812e-01,7.05234e-01,9.38872e-01,7.51150e-01,9.99999e-01
7.882144461e-01,7.06044e-01,9.34652e-01,7.55408e-01,9.99999e-01
7.921555184e-01,7.30778e-01,9.62049e-01,7.59605e-01,9.99999e-01
7.961162960e-01,7.44202e-01,9.74416e-01,7.63741e-01,9.99999e-01
8.000968774e-01,7.57126e-01,9.86073e-01,7.67818e-01,9.99999e-01
8.040973618e-01,7.66241e-01,9.92751e-01,7.71836e-01,9.99999e-01
8.081178486e-01,7.73215e-01,9.96674e-01,7.75794e-01,9.99999e-01
8.121584379e-01,7.78889e-01,9.98967e-01,7.79694e-01,9.99999e-01
8.162192301e-01,7.83358e-01,9.99771e-01,7.83536e-01,9.99999e-01
8.203003262e-01,7.87318e-01,9.99995e-01,7.87321e-01,9.99999e-01
8.244018279e-01,7.91048e-01,9.99999e-01,7.91048e-01,9.99999e-01
8.285238370e-01,7.94719e-01,9.99999e-01,7.94719e-01,9.99999e-01
8.326664562e-01,7.98334e-01,9.99999e-01,7.98334e-01,9.99999e-01
8.368297885e-01,8.01893e-01,9.99999e-01,8.01893e-01,9.99999e-01
8.410139374e-01,8.05398e-01,9.99999e-01,8.05398e-01,9.99999e-01
8.452190071e-01,8.08848e-01,9.99999e-01,8.08848e-01,9.99999e-01
8.494451021e-01,8.12245e-01,9.99999e-01,8.12245e-01,9.99999e-01
8.536923276e-01,8.15588e-01,9.99999e-01,8.15588e-01,9.99999e-01
8.579607893e-01,8.18879e-01,9.99999e-01,8.18879e-01,9.99999e-01
8.622505932e-01,8.22117e-01,9.99999e-01,8.22117e-01,9.99999e-01
8.665618462e-01,7.92749e-01,9.60553e-01,8.25304e-01,9.99999e-01
8.708946554e-01,7.04007e-01,8.49797e-01,8.28440e-01,9.99999e-01
8.752491287e-01,7.30633e-01,8.78664e-01,8.31525e-01,9.99999e-01
8.796253743e-01,7.77981e-01,9.32203e-01,8.34561e-01,9.99999e-01
8.840235012e-01,8.07791e-01,9.64471e-01,8.37548e-01,9.99999e-01
8.884436187e-01,8.28590e-01,9.85846e-01,8.40486e-01,9.99999e-01
8.928858368e-01,8.38532e-01,9.94256e-01,8.43376e-01,9.99999e-01
8.973502660e-01,8.45032e-01,9.98597e-01,8.46218e-01,9.99999e-01
9.018370173e-01,8.48882e-01,9.99844e-01,8.49014e-01,9.99999e-01
9.063462024e-01,8.48426e-01,9.96081e-01,8.51763e-01,9.99999e-01
9.108779334e-01,8.46739e-01,9.90955e-01,8.54467e-01,9.99999e-01
9.154323231e-01,8.55292e-01,9.97860e-01,8.57125e-01,9.99999e-01
9.200094847e-01,8.32666e-01,9.68509e-01,8.59739e-01,9.99999e-01
9.246095321e-01,8.24748e-01,9.56440e-01,8.62310e-01,9.99999e-01
9.292325798e-01,8.35169e-01,9.65694e-01,8.64837e-01,9.99999e-01
9.338787427e-01,8.38496e-01,9.66765e-01,8.67321e-01,9.99999e-01
9.385481364e-01,8.48491e-01,9.75542e-01,8.69763e-01,9.99999e-01
9.432408771e-01,8.59044e-01,9.84957e-01,8.72163e-01,9.99999e-01
9.479570815e-01,8.67762e-01,9.92268e-01,8.74523e-01,9.99999e-01
9.526968669e-01,8.73563e-01,9.96260e-01,8.76842e-01,9.99999e-01
9.574603512e-01,8.77714e-01,9.98399e-01,8.79121e-01,9.99999e-01
9.622476530e-01,8.80921e-01,9.99500e-01,8.81361e-01,9.99999e-01
9.670588912e-01,8.83430e-01,9.99849e-01,8.83562e-01,9.99999e-01
9.718941857e-01,8.85716e-01,9.99988e-01,8.85726e-01,9.99999e-01
9.767536566e-01,8.87851e-01,9.99999e-01,8.87851e-01,9.99999e-01
9.816374249e-01,8.89940e-01,9.99999e-01,8.89940e-01,9.99999e-01
9.865456120e-01,8.91992e-01,9.99999e-01,8.91992e-01,9.99999e-01
9.914783401e-01,8.94008e-01,9.99999e-01,8.94008e-01,9.99999e-01
9.964357318e-01,8.95988e-01,9.99999e-01,8.95988e-01,9.99999e-01
1.001417910e+00,8.97934e-01,9.99999e-01,8.97934e-01,9.99999e-01
1.006425000e+00,8.99846e-01,9.99999e-01,8.99846e-01,9.99999e-01
1.011457125e+00,9.01723e-01,9.99999e-01,9.01723e-01,9.99999e-01
1.016514411e+00,9.03568e-01,9.99999e-01,9.03568e-01,9.99999e-01
1.021596983e+00,9.05362e-01,9.99979e-01,9.05379e-01,9.99999e-01
1.026704968e+00,9.05780e-01,9.98480e-01,9.07159e-01,9.99999e-01
1.031838492e+00,8.88411e-01,9.77449e-01,9.08906e-01,9.99999e-01
1.036997685e+00,2.98741e-01,3.28062e-01,9.10623e-01,9.99999e-01
1.042182673e+00,3.65116e-01,4.00210e-01,9.12308e-01,9.99999e-01
1.047393587e+00,3.31899e-01,3.63142e-01,9.13964e-01,9.99999e-01
1.052630555e+00,6.50425e-02,7.10389e-02,9.15589e-01,9.99999e-01
1.057893707e+00,1.15359e-01,1.25775e-01,9.17186e-01,9.99999e-01
1.063183176e+00,2.05864e-01,2.24069e-01,9.18753e-01,9.99999e-01
1.068499092e+00,3.42130e-01,3.71762e-01,9.20292e-01,9.99999e-01
1.073841587e+00,4.93423e-01,5.35280e-01,9.21803e-01,9.99999e-01
1.079210795e+00,6.22933e-01,6.74690e-01,9.23287e-01,9.99999e-01
1.084606849e+00,7.46110e-01,8.06828e-01,9.24744e-01,9.99999e-01
1.090029883e+00,8.28881e-01,8.94951e-01,9.26174e-01,9.99999e-01
1.095480033e+00,8.78234e-01,9.46803e-01,9.27578e-01,9.99999e-01
1.100957433e+00,9.04857e-01,9.74056e-01,9.28956e-01,9.99999e-01
1.106462220e+00,9.20252e-01,9.89188e-01,9.30310e-01,9.99999e-01
1.111994531e+00,9.27894e-01,9.95980e-01,9.31638e-01,9.99999e-01
1.117554504e+00,9.32023e-01,9.99014e-01,9.32942e-01,9.99999e-01
1.123142276e+00,9.34161e-01,9.99934e-01,9.34222e-01,9.99999e-01
1.128757988e+00,9.35478e-01,9.99999e-01,9.35478e-01,9.99999e-01
1.134401778e+00,9.36712e-01,9.99999e-01,9.36712e-01,9.99999e-01
1.140073787e+00,9.37922e-01,9.99999e-01,9.37922e-01,9.99999e-01
1.145774156e+00,9.39110e-01,9.99999e-01,9.39110e-01,9.99999e-01
1.151503026e+00,9.40276e-01,9.99999e-01,9.40276e-01,9.99999e-01
1.157260541e+00,9.41421e-01,9.99999e-01,9.41421e-01,9.99999e-01
1.163046844e+00,9.42544e-01,9.99999e-01,9.42544e-01,9.99999e-01
1.168862078e+00,9.43646e-01,9.99999e-01,9.43646e-01,9.99999e-01
1.174706389e+00,9.44728e-01,9.99999e-01,9.44728e-01,9.99999e-01
1.180579921e+00,9.45789e-01,9.99999e-01,9.45789e-01,9.99999e-01
1.186482820e+00,9.46829e-01,9.99997e-01,9.46831e-01,9.99999e-01
1.192415234e+00,9.42683e-01,9.94545e-01,9.47853e-01,9.99999e-01
1.198377311e+00,5.65238e-01,5.95704e-01,9.48857e-01,9.99999e-01
1.204369197e+00,6.52630e-06,6.87093e-06,9.49841e-01,9.99999e-01
1.210391043e+00,5.27293e-18,5.54573e-18,9.50807e-01,9.99999e-01
1.216442998e+00,7.87377e-16,8.27289e-16,9.51755e-01,9.99999e-01
1.222525213e+00,1.37577e-15,1.44410e-15,9.52685e-01,9.99999e-01
1.228637839e+00,5.90450e-12,6.19181e-12,9.53597e-01,9.99999e-01
1.234781029e+00,1.79744e-08,1.88313e-08,9.54493e-01,9.99999e-01
1.240954934e+00,8.99726e-06,9.41754e-06,9.55371e-01,9.99999e-01
1.247159708e+00,1.47899e-03,1.54668e-03,9.56233e-01,9.99999e-01
1.253395507e+00,2.79594e-02,2.92132e-02,9.57079e-01,9.99999e-01
1.259662485e+00,1.29791e-01,1.35494e-01,9.57909e-01,9.99999e-01
1.265960797e+00,3.00783e-01,3.13732e-01,9.58723e-01,9.99999e-01
1.272290601e+00,5.75700e-01,5.99986e-01,9.59521e-01,9.99999e-01
1.278652054e+00,5.37751e-01,5.59979e-01,9.60305e-01,9.99999e-01
1.285045314e+00,5.74109e-02,5.97362e-02,9.61073e-01,9.99999e-01
1.291470541e+00,8.70377e-03,9.04919e-03,9.61827e-01,9.99999e-01
1.297927893e+00,6.44687e-02,6.69758e-02,9.62567e-01,9.99999e-01
1.304417533e+00,4.09099e-01,4.24687e-01,9.63293e-01,9.99999e-01
1.310939621e+00,1.23565e-01,1.28179e-01,9.64004e-01,9.99999e-01
1.317494319e+00,1.34109e-06,1.39016e-06,9.64703e-01,9.99999e-01
1.324081790e+00,5.55424e-05,5.75338e-05,9.65388e-01,9.99999e-01
1.330702199e+00,5.95283e-03,6.16197e-03,9.66060e-01,9.99999e-01
1.337355710e+00,3.99013e-03,4.12749e-03,9.66719e-01,9.99999e-01
1.344042489e+00,1.56637e-03,1.61921e-03,9.67365e-01,9.99999e-01
1.350762701e+00,4.77784e-03,4.93578e-03,9.67999e-01,9.99999e-01
1.357516515e+00,2.87365e-02,2.96674e-02,9.68621e-01,9.99999e-01
1.364304097e+00,1.10850e-01,1.14368e-01,9.69232e-01,9.99999e-01
1.371125618e+00,3.06631e-01,3.16170e-01,9.69830e-01,9.99999e-01
1.377981246e+00,3.89611e-01,4.01488e-01,9.70417e-01,9.99999e-01
1.384871152e+00,5.70571e-01,5.87615e-01,9.70993e-01,9.99999e-01
1.391795508e+00,5.94711e-01,6.12120e-01,9.71557e-01,9.99999e-01
1.398754485e+00,7.19147e-01,7.39778e-01,9.72111e-01,9.99999e-01
1.405748258e+00,7.78435e-01,8.00319e-01,9.72655e-01,9.99999e-01
1.412776999e+00,8.45725e-01,8.69025e-01,9.73187e-01,9.99999e-01
1.419840884e+00,7.92264e-01,8.13654e-01,9.73710e-01,9.99999e-01
1.426940089e+00,1.13175e-01,1.16169e-01,9.74223e-01,9.99999e-01
1.434074789e+00,8.99871e-249,9.23204e-249,9.74725e-01,9.99999e-01
1.441245163e+00,0.00000e+00,0.00000e+00,9.75218e-01,9.99999e-01
1.448451389e+00,1.46286e-301,1.49929e-301,9.75702e-01,9.99999e-01
1.455693646e+00,3.26998e-135,3.34979e-135,9.76176e-01,9.99999e-01
1.462972114e+00,3.36408e-66,3.44454e-66,9.76641e-01,9.99999e-01
1.470286975e+00,1.46782e-28,1.50223e-28,9.77097e-01,9.99999e-01
1.477638409e+00,1.32739e-18,1.35788e-18,9.77544e-01,9.99999e-01
1.485026601e+00,5.31102e-11,5.43058e-11,9.77983e-01,9.99999e-01
1.492451734e+00,2.33067e-09,2.38209e-09,9.78413e-01,9.99999e-01
1.499913993e+00,5.07584e-05,5.18559e-05,9.78835e-01,9.99999e-01
1.507413563e+00,6.00643e-04,6.13371e-04,9.79248e-01,9.99999e-01
1.514950631e+00,2.79083e-05,2.84878e-05,9.79654e-01,9.99999e-01
1.522525384e+00,8.86694e-14,9.04741e-14,9.80052e-01,9.99999e-01
1.530138011e+00,3.46514e-30,3.53426e-30,9.80442e-01,9.99999e-01
1.537788701e+00,8.78979e-23,8.96163e-23,9.80825e-01,9.99999e-01
1.545477645e+00,2.68373e-06,2.73515e-06,9.81200e-01,9.99999e-01
1.553205033e+00,4.75930e-04,4.84867e-04,9.81568e-01,9.99999e-01
1.560971058e+00,1.24974e-04,1.27274e-04,9.81928e-01,9.99999e-01
1.568775913e+00,4.30527e-74,4.38292e-74,9.82282e-01,9.99999e-01
1.576619793e+00,1.01176e-171,1.02964e-171,9.82629e-01,9.99999e-01
1.584502892e+00,2.68117e-94,2.72762e-94,9.82969e-01,9.99999e-01
1.592425406e+00,5.07605e-66,5.16224e-66,9.83303e-01,9.99999e-01
1.600387533e+00,1.03522e-105,1.05245e-105,9.83630e-01,9.99999e-01
1.608389471e+00,1.11034e-176,1.12845e-176,9.83951e-01,9.99999e-01
1.616431418e+00,8.70239e-178,8.84150e-178,9.84265e-01,9.99999e-01
1.624513575e+00,1.13675e-83,1.15456e-83,9.84573e-01,9.99999e-01
1.632636143e+00,1.56375e-62,1.58776e-62,9.84876e-01,9.99999e-01
1.640799324e+00,1.34234e-26,1.36254e-26,9.85172e-01,9.99999e-01
1.649003321e+00,1.72995e-26,1.75547e-26,9.85463e-01,9.99999e-01
1.657248337e+00,8.81346e-21,8.94087e-21,9.85748e-01,9.99999e-01
1.665534579e+00,6.35089e-21,6.44087e-21,9.86028e-01,9.99999e-01
1.673862252e+00,7.02093e-14,7.11843e-14,9.86302e-01,9.99999e-01
1.682231563e+00,4.67239e-10,4.73598e-10,9.86570e-01,9.99999e-01
1.690642721e+00,2.68652e-06,2.72236e-06,9.86834e-01,9.99999e-01
1.699095934e+00,3.94482e-04,3.99640e-04,9.87092e-01,9.99999e-01
1.707591414e+00,1.50610e-02,1.52540e-02,9.87346e-01,9.99999e-01
1.716129371e+00,1.03081e-01,1.04375e-01,9.87594e-01,9.99999e-01
1.724710018e+00,2.98395e-01,3.02069e-01,9.87838e-01,9.99999e-01
1.733333568e+00,4.60214e-01,4.65767e-01,9.88076e-01,9.99999e-01
1.742000236e+00,6.11679e-01,6.18914e-01,9.88310e-01,9.99999e-01
1.750710237e+00,5.40133e-02,5.46394e-02,9.88540e-01,9.99999e-01
1.759463788e+00,3.56872e-13,3.60927e-13,9.88765e-01,9.99999e-01
1.768261107e+00,4.19456e-14,4.24127e-14,9.88986e-01,9.99999e-01
1.777102413e+00,5.03204e-13,5.08697e-13,9.89202e-01,9.99999e-01
1.785987925e+00,8.00797e-13,8.09364e-13,9.89414e-01,9.99999e-01
1.794917864e+00,6.37523e-12,6.44208e-12,9.89622e-01,9.99999e-01
1.803892454e+00,4.68180e-12,4.72992e-12,9.89826e-01,9.99999e-01
1.812911916e+00,2.50828e-11,2.53355e-11,9.90026e-01,9.99999e-01
1.821976476e+00,1.40979e-11,1.42371e-11,9.90222e-01,9.99999e-01
1.831086358e+00,1.40217e-09,1.41574e-09,9.90414e-01,9.99999e-01
1.840241790e+00,4.43810e-08,4.48020e-08,9.90603e-01,9.99999e-01
1.849442999e+00,9.28347e-06,9.36978e-06,9.90787e-01,9.99999e-01
1.858690214e+00,3.78039e-05,3.81484e-05,9.90969e-01,9.99999e-01
1.867983665e+00,6.50037e-06,6.55843e-06,9.91146e-01,9.99999e-01
1.877323583e+00,4.54602e-24,4.58582e-24,9.91320e-01,9.99999e-01
