#,Wave/freq,Total,CO2,Rayleigh,CIA
4.000000000e-01,2.04236e-20,9.99999e-01,2.04236e-20,9.99999e-01
4.020000000e-01,5.00553e-20,9.99999e-01,5.00553e-20,9.99999e-01
4.040100000e-01,1.20416e-19,9.99999e-01,1.20416e-19,9.99999e-01
4.060300500e-01,2.84700e-19,9.99999e-01,2.84700e-19,9.99999e-01
4.080602003e-01,6.61772e-19,9.99999e-01,6.61772e-19,9.99999e-01
4.101005013e-01,1.51285e-18,9.99999e-01,1.51285e-18,9.99999e-01
4.121510038e-01,3.40242e-18,9.99999e-01,3.40242e-18,9.99999e-01
4.142117588e-01,7.53058e-18,9.99999e-01,7.53058e-18,9.99999e-01
4.162828176e-01,1.64079e-17,9.99999e-01,1.64079e-17,9.99999e-01
4.183642317e-01,3.52045e-17,9.99999e-01,3.52045e-17,9.99999e-01
4.204560528e-01,7.44035e-17,9.99999e-01,7.44035e-17,9.99999e-01
4.225583331e-01,1.54942e-16,9.99999e-01,1.54942e-16,9.99999e-01
4.246711247e-01,3.18019e-16,9.99999e-01,3.18019e-16,9.99999e-01
4.267944804e-01,6.43528e-16,9.99999e-01,6.43528e-16,9.99999e-01
4.289284528e-01,1.28421e-15,9.99999e-01,1.28421e-15,9.99999e-01
4.310730950e-01,2.52800e-15,9.99999e-01,2.52800e-15,9.99999e-01
4.332284605e-01,4.91031e-15,9.99999e-01,4.91031e-15,9.99999e-01
4.353946028e-01,9.41336e-15,9.99999e-01,9.41336e-15,9.99999e-01
4.375715758e-01,1.78155e-14,9.99999e-01,1.78155e-14,9.99999e-01
4.397594337e-01,3.32950e-14,9.99999e-01,3.32950e-14,9.99999e-01
4.419582309e-01,6.14604e-14,9.99999e-01,6.14604e-14,9.99999e-01
4.441680220e-01,1.12086e-13,9.99999e-01,1.12086e-13,9.99999e-01
4.463888621e-01,2.02002e-13,9.99999e-01,2.02002e-13,9.99999e-01
4.486208064e-01,3.59838e-13,9.99999e-01,3.59838e-13,9.99999e-01
4.508639105e-01,6.33731e-13,9.99999e-01,6.33731e-13,9.99999e-01
4.531182300e-01,1.10369e-12,9.99999e-01,1.10369e-12,9.99999e-01
4.553838212e-01,1.90121e-12,9.99999e-01,1.90121e-12,9.99999e-01
4.576607403e-01,3.24003e-12,9.99999e-01,3.24003e-12,9.99999e-01
4.599490440e-01,5.46379e-12,9.99999e-01,5.46379e-12,9.99999e-01
4.622487892e-01,9.11920e-12,9.99999e-01,9.11920e-12,9.99999e-01
4.645600332e-01,1.50669e-11,9.99999e-01,1.50669e-11,9.99999e-01
4.668828333e-01,2.46482e-11,9.99999e-01,2.46482e-11,9.99999e-01
4.692172475e-01,3.99323e-11,9.99999e-01,3.99323e-11,9.99999e-01
4.715633337e-01,6.40802e-11,9.99999e-01,6.40802e-11,9.99999e-01
4.739211504e-01,1.01875e-10,9.99999e-01,1.01875e-10,9.99999e-01
4.762907561e-01,1.60484e-10,9.99999e-01,1.60484e-10,9.99999e-01
4.786722099e-01,2.50552e-10,9.99999e-01,2.50552e-10,9.99999e-01
4.810655710e-01,3.87743e-10,9.99999e-01,3.87743e-10,9.99999e-01
4.834708988e-01,5.94900e-10,9.99999e-01,5.94900e-10,9.99999e-01
4.858882533e-01,9.05047e-10,9.99999e-01,9.05047e-10,9.99999e-01
4.883176946e-01,1.36552e-09,9.99999e-01,1.36552e-09,9.99999e-01
4.907592831e-01,2.04362e-09,9.99999e-01,2.04362e-09,9.99999e-01
4.932130795e-01,3.03417e-09,9.99999e-01,3.03417e-09,9.99999e-01
4.956791449e-01,4.46983e-09,9.99999e-01,4.46983e-09,9.99999e-01
4.981575406e-01,6.53459e-09,9.99999e-01,6.53459e-09,9.99999e-01
5.006483283e-01,9.48175e-09,9.99999e-01,9.48175e-09,9.99999e-01
5.031515699e-01,1.36573e-08,9.99999e-01,1.36573e-08,9.99999e-01
5.056673278e-01,1.95304e-08,9.99999e-01,1.95304e-08,9.99999e-01
5.081956644e-01,2.77325e-08,9.99999e-01,2.77325e-08,9.99999e-01
5.107366428e-01,3.91073e-08,9.99999e-01,3.91073e-08,9.99999e-01
5.132903260e-01,5.47746e-08,9.99999e-01,5.47746e-08,9.99999e-01
5.158567776e-01,7.62097e-08,9.99999e-01,7.62097e-08,9.99999e-01
5.184360615e-01,1.05344e-07,9.99999e-01,1.05344e-07,9.99999e-01
5.210282418e-01,1.44687e-07,9.99999e-01,1.44687e-07,9.99999e-01
5.236333830e-01,1.97482e-07,9.99999e-01,1.97482e-07,9.99999e-01
5.262515499e-01,2.67891e-07,9.99999e-01,2.67891e-07,9.99999e-01
5.288828077e-01,3.61220e-07,9.99999e-01,3.61220e-07,9.99999e-01
5.315272217e-01,4.84196e-07,9.99999e-01,4.84196e-07,9.99999e-01
5.341848578e-01,6.45294e-07,9.99999e-01,6.45294e-07,9.99999e-01
5.368557821e-01,8.55127e-07,9.99999e-01,8.55127e-07,9.99999e-01
5.395400610e-01,1.12691e-06,9.99999e-01,1.12691e-06,9.99999e-01
5.422377613e-01,1.47699e-06,9.99999e-01,1.47699e-06,9.99999e-01
5.449489501e-01,1.92552e-06,9.99999e-01,1.92552e-06,9.99999e-01
5.476736949e-01,2.49713e-06,9.99999e-01,2.49713e-06,9.99999e-01
5.504120634e-01,3.22185e-06,9.99999e-01,3.22185e-06,9.99999e-01
5.531641237e-01,4.13604e-06,9.99999e-01,4.13604e-06,9.99999e-01
5.559299443e-01,5.28348e-06,9.99999e-01,5.28348e-06,9.99999e-01
5.587095940e-01,6.71669e-06,9.99999e-01,6.71669e-06,9.99999e-01
5.615031420e-01,8.49830e-06,9.99999e-01,8.49830e-06,9.99999e-01
5.643106577e-01,1.07026e-05,9.99999e-01,1.07026e-05,9.99999e-01
5.671322110e-01,1.34175e-05,9.99999e-01,1.34175e-05,9.99999e-01
5.699678720e-01,1.67460e-05,9.99999e-01,1.67460e-05,9.99999e-01
5.728177114e-01,2.08090e-05,9.99999e-01,2.08090e-05,9.99999e-01
5.756818000e-01,2.57470e-05,9.99999e-01,2.57470e-05,9.99999e-01
5.785602090e-01,3.17231e-05,9.99999e-01,3.17231e-05,9.99999e-01
5.814530100e-01,3.89256e-05,9.99999e-01,3.89256e-05,9.99999e-01
5.843602750e-01,4.75706e-05,9.99999e-01,4.75706e-05,9.99999e-01
5.872820764e-01,5.79058e-05,9.99999e-01,5.79058e-05,9.99999e-01
5.902184868e-01,7.02132e-05,9.99999e-01,7.02132e-05,9.99999e-01
5.931695792e-01,8.48130e-05,9.99999e-01,8.48130e-05,9.99999e-01
5.961354271e-01,1.02067e-04,9.99999e-01,1.02067e-04,9.99999e-01
5.991161043e-01,1.22383e-04,9.99999e-01,1.22383e-04,9.99999e-01
6.021116848e-01,1.46217e-04,9.99999e-01,1.46217e-04,9.99999e-01
6.051222432e-01,1.74080e-04,9.99999e-01,1.74080e-04,9.99999e-01
6.081478544e-01,2.06539e-04,9.99999e-01,2.06539e-04,9.99999e-01
6.111885937e-01,2.44225e-04,9.99999e-01,2.44225e-04,9.99999e-01
6.142445367e-01,2.87833e-04,9.99999e-01,2.87833e-04,9.99999e-01
6.173157594e-01,3.38128e-04,9.99999e-01,3.38128e-04,9.99999e-01
6.204023382e-01,3.95950e-04,9.99999e-01,3.95950e-04,9.99999e-01
6.235043498e-01,4.62216e-04,9.99999e-01,4.62216e-04,9.99999e-01
6.266218716e-01,5.37926e-04,9.99999e-01,5.37926e-04,9.99999e-01
6.297549810e-01,6.24164e-04,9.99999e-01,6.24164e-04,9.99999e-01
6.329037559e-01,7.22104e-04,9.99999e-01,7.22104e-04,9.99999e-01
6.360682746e-01,8.33010e-04,9.99999e-01,8.33010e-04,9.99999e-01
6.392486160e-01,9.58242e-04,9.99999e-01,9.58242e-04,9.99999e-01
6.424448591e-01,1.09925e-03,9.99999e-01,1.09925e-03,9.99999e-01
6.456570834e-01,1.25760e-03,9.99999e-01,1.25760e-03,9.99999e-01
6.488853688e-01,1.43494e-03,9.99999e-01,1.43494e-03,9.99999e-01
6.521297956e-01,1.63303e-03,9.99999e-01,1.63303e-03,9.99999e-01
6.553904446e-01,1.85372e-03,9.99999e-01,1.85372e-03,9.99999e-01
6.586673968e-01,2.09898e-03,9.99999e-01,2.09898e-03,9.99999e-01
6.619607338e-01,2.37085e-03,9.99999e-01,2.37085e-03,9.99999e-01
6.652705375e-01,2.67151e-03,9.99999e-01,2.67151e-03,9.99999e-01
6.685968902e-01,3.00320e-03,9.99999e-01,3.00320e-03,9.99999e-01
6.719398746e-01,3.36828e-03,9.99999e-01,3.36828e-03,9.99999e-01
6.752995740e-01,3.76920e-03,9.99999e-01,3.76920e-03,9.99999e-01
6.786760719e-01,4.20846e-03,9.99999e-01,4.20846e-03,9.99999e-01
6.820694522e-01,4.68871e-03,9.99999e-01,4.68871e-03,9.99999e-01
6.854797995e-01,5.21261e-03,9.99999e-01,5.21261e-03,9.99999e-01
6.889071985e-01,5.78295e-03,9.99999e-01,5.78295e-03,9.99999e-01
6.923517345e-01,6.40254e-03,9.99999e-01,6.40254e-03,9.99999e-01
6.958134932e-01,7.07428e-03,9.99999e-01,7.07428e-03,9.99999e-01
6.992925606e-01,7.80111e-03,9.99999e-01,7.80111e-03,9.99999e-01
7.027890234e-01,8.58602e-03,9.99999e-01,8.58602e-03,9.99999e-01
7.063029686e-01,9.43201e-03,9.99999e-01,9.43201e-03,9.99999e-01
7.098344834e-01,1.03422e-02,9.99999e-01,1.03422e-02,9.99999e-01
7.133836558e-01,1.13195e-02,9.99999e-01,1.13195e-02,9.99999e-01
7.169505741e-01,1.23671e-02,9.99999e-01,1.23671e-02,9.99999e-01
7.205353270e-01,1.34881e-02,9.99999e-01,1.34881e-02,9.99999e-01
7.241380036e-01,1.46855e-02,9.99999e-01,1.46855e-02,9.99999e-01
7.277586936e-01,1.59624e-02,9.99999e-01,1.59624e-02,9.99999e-01
7.313974871e-01,1.73217e-02,9.99999e-01,1.73217e-02,9.99999e-01
7.350544745e-01,1.87665e-02,9.99999e-01,1.87665e-02,9.99999e-01
7.387297469e-01,2.02996e-02,9.99999e-01,2.02996e-02,9.99999e-01
7.424233956e-01,2.19240e-02,9.99999e-01,2.19240e-02,9.99999e-01
7.461355126e-01,2.36423e-02,9.99999e-01,2.36423e-02,9.99999e-01
7.498661902e-01,2.54574e-02,9.99999e-01,2.54574e-02,9.99999e-01
7.536155211e-01,2.73718e-02,9.99999e-01,2.73718e-02,9.99999e-01
7.573835987e-01,2.93880e-02,9.99999e-01,2.93880e-02,9.99999e-01
7.611705167e-01,3.15085e-02,9.99999e-01,3.15085e-02,9.99999e-01
7.649763693e-01,3.37355e-02,9.99999e-01,3.37355e-02,9.99999e-01
7.688012511e-01,3.60713e-02,9.99999e-01,3.60713e-02,9.99999e-01
7.726452574e-01,3.85178e-02,9.99999e-01,3.85178e-02,9.99999e-01
7.765084837e-01,4.10769e-02,9.99999e-01,4.10769e-02,9.99999e-01
7.803910261e-01,3.88066e-02,8.86997e-01,4.37505e-02,9.99999e-01
7.842929812e-01,2.53692e-02,5.45104e-01,4.65400e-02,9.99999e-01
7.882144461e-01,2.61205e-02,5.28251e-01,4.94471e-02,9.99999e-01
7.921555184e-01,3.50937e-02,6.68796e-01,5.24728e-02,9.99999e-01
7.961162960e-01,4.23324e-02,7.61121e-01,5.56184e-02,9.99999e-01
8.000968774e-01,5.07604e-02,8.62027e-01,5.88849e-02,9.99999e-01
8.040973618e-01,5.76613e-02,9.25945e-01,6.22729e-02,9.99999e-01
8.081178486e-01,6.34908e-02,9.65151e-01,6.57832e-02,9.99999e-01
8.121584379e-01,6.86644e-02,9.89171e-01,6.94161e-02,9.99999e-01
8.162192301e-01,7.29961e-02,9.97597e-01,7.31719e-02,9.99999e-01
8.203003262e-01,7.70480e-02,9.99965e-01,7.70506e-02,9.99999e-01
8.244018279e-01,8.10522e-02,9.99999e-01,8.10522e-02,9.99999e-01
8.285238370e-01,8.51765e-02,9.99999e-01,8.51765e-02,9.99999e-01
8.326664562e-01,8.94228e-02,9.99999e-01,8.94228e-02,9.99999e-01
8.368297885e-01,9.37907e-02,9.99999e-01,9.37907e-02,9.99999e-01
8.410139374e-01,9.82794e-02,9.99999e-01,9.82794e-02,9.99999e-01
8.452190071e-01,1.02888e-01,9.99999e-01,1.02888e-01,9.99999e-01
8.494451021e-01,1.07615e-01,9.99999e-01,1.07615e-01,9.99999e-01
8.536923276e-01,1.12459e-01,9.99999e-01,1.12459e-01,9.99999e-01
8.579607893e-01,1.17419e-01,9.99999e-01,1.17419e-01,9.99999e-01
8.622505932e-01,1.22494e-01,9.99999e-01,1.22494e-01,9.99999e-01
8.665618462e-01,1.08107e-01,8.46692e-01,1.27681e-01,9.99999e-01
8.708946554e-01,3.03901e-02,2.28533e-01,1.32979e-01,9.99999e-01
8.752491287e-01,3.96452e-02,2.86483e-01,1.38385e-01,9.99999e-01
8.796253743e-01,7.09287e-02,4.92908e-01,1.43898e-01,9.99999e-01
8.840235012e-01,1.02550e-01,6.85880e-01,1.49516e-01,9.99999e-01
8.884436187e-01,1.33625e-01,8.60795e-01,1.55235e-01,9.99999e-01
8.928858368e-01,1.51516e-01,9.40783e-01,1.61053e-01,9.99999e-01
8.973502660e-01,1.64518e-01,9.85326e-01,1.66968e-01,9.99999e-01
9.018370173e-01,1.72696e-01,9.98374e-01,1.72977e-01,9.99999e-01
9.063462024e-01,1.71812e-01,9.59428e-01,1.79077e-01,9.99999e-01
9.108779334e-01,1.68283e-01,9.08335e-01,1.85265e-01,9.99999e-01
9.154323231e-01,1.87286e-01,9.77798e-01,1.91539e-01,9.99999e-01
9.200094847e-01,1.51026e-01,7.63163e-01,1.97895e-01,9.99999e-01
9.246095321e-01,1.28150e-01,6.27175e-01,2.04329e-01,9.99999e-01
9.292325798e-01,1.47392e-01,6.99069e-01,2.10840e-01,9.99999e-01
9.338787427e-01,1.53159e-01,7.04424e-01,2.17424e-01,9.99999e-01
9.385481364e-01,1.72662e-01,7.70547e-01,2.24077e-01,9.99999e-01
9.432408771e-01,1.96534e-01,8.51547e-01,2.30796e-01,9.99999e-01
9.479570815e-01,2.18721e-01,9.20628e-01,2.37578e-01,9.99999e-01
9.526968669e-01,2.34891e-01,9.61015e-01,2.44419e-01,9.99999e-01
9.574603512e-01,2.47075e-01,9.83122e-01,2.51317e-01,9.99999e-01
9.622476530e-01,2.56900e-01,9.94706e-01,2.58267e-01,9.99999e-01
9.670588912e-01,2.64845e-01,9.98413e-01,2.65266e-01,9.99999e-01
9.718941857e-01,2.72281e-01,9.99889e-01,2.72311e-01,9.99999e-01
9.767536566e-01,2.79399e-01,9.99999e-01,2.79399e-01,9.99999e-01
9.816374249e-01,2.86525e-01,9.99999e-01,2.86525e-01,9.99999e-01
9.865456120e-01,2.93687e-01,9.99999e-01,2.93687e-01,9.99999e-01
9.914783401e-01,3.00882e-01,9.99999e-01,3.00882e-01,9.99999e-01
9.964357318e-01,3.08105e-01,9.99999e-01,3.08105e-01,9.99999e-01
1.001417910e+00,3.15354e-01,9.99999e-01,3.15354e-01,9.99999e-01
1.006425000e+00,3.22625e-01,9.99999e-01,3.22625e-01,9.99999e-01
1.011457125e+00,3.29915e-01,9.99999e-01,3.29915e-01,9.99999e-01
1.016514411e+00,3.37221e-01,9.99999e-01,3.37221e-01,9.99999e-01
1.021596983e+00,3.44456e-01,9.99755e-01,3.44540e-01,9.99999e-01
1.026704968e+00,3.46101e-01,9.83606e-01,3.51869e-01,9.99999e-01
1.031838492e+00,3.16005e-01,8.79737e-01,3.59204e-01,9.99999e-01
1.036997685e+00,1.22966e-02,3.35477e-02,3.66542e-01,9.99999e-01
1.042182673e+00,2.68628e-04,7.18485e-04,3.73881e-01,9.99999e-01
1.047393587e+00,7.82436e-04,2.05246e-03,3.81218e-01,9.99999e-01
1.052630555e+00,5.56716e-09,1.43281e-08,3.88549e-01,9.99999e-01
1.057893707e+00,2.10709e-08,5.32265e-08,3.95872e-01,9.99999e-01
1.063183176e+00,2.03334e-06,5.04319e-06,4.03185e-01,9.99999e-01
1.068499092e+00,3.43673e-05,8.37236e-05,4.10485e-01,9.99999e-01
1.073841587e+00,9.15188e-04,2.19066e-03,4.17768e-01,9.99999e-01
1.079210795e+00,9.35946e-03,2.20205e-02,4.25033e-01,9.99999e-01
1.084606849e+00,4.81312e-02,1.11343e-01,4.32277e-01,9.99999e-01
1.090029883e+00,1.38453e-01,3.15025e-01,4.39498e-01,9.99999e-01
1.095480033e+00,2.52004e-01,5.64153e-01,4.46693e-01,9.99999e-01
1.100957433e+00,3.43654e-01,7.57178e-01,4.53861e-01,9.99999e-01
1.106462220e+00,4.10818e-01,8.91148e-01,4.60998e-01,9.99999e-01
1.111994531e+00,4.48489e-01,9.58097e-01,4.68103e-01,9.99999e-01
1.117554504e+00,4.70251e-01,9.89636e-01,4.75175e-01,9.99999e-01
1.123142276e+00,4.81882e-01,9.99319e-01,4.82210e-01,9.99999e-01
1.128757988e+00,4.89207e-01,9.99999e-01,4.89208e-01,9.99999e-01
1.134401778e+00,4.96165e-01,9.99999e-01,4.96165e-01,9.99999e-01
1.140073787e+00,5.03082e-01,9.99999e-01,5.03082e-01,9.99999e-01
1.145774156e+00,5.09955e-01,9.99999e-01,5.09955e-01,9.99999e-01
1.151503026e+00,5.16784e-01,9.99999e-01,5.16784e-01,9.99999e-01
1.157260541e+00,5.23566e-01,9.99999e-01,5.23566e-01,9.99999e-01
1.163046844e+00,5.30301e-01,9.99999e-01,5.30301e-01,9.99999e-01
1.168862078e+00,5.36987e-01,9.99999e-01,5.36987e-01,9.99999e-01
1.174706389e+00,5.43623e-01,9.99999e-01,5.43623e-01,9.99999e-01
1.180579921e+00,5.50207e-01,9.99999e-01,5.50207e-01,9.99999e-01
1.186482820e+00,5.56720e-01,9.99964e-01,5.56739e-01,9.99999e-01
1.192415234e+00,5.32492e-01,9.45446e-01,5.63217e-01,9.99999e-01
1.198377311e+00,2.80717e-01,4.92797e-01,5.69640e-01,9.99999e-01
1.204369197e+00,1.46324e-41,2.54031e-41,5.76007e-01,9.99999e-01
1.210391043e+00,3.79228e-171,6.51238e-171,5.82318e-01,9.99999e-01
1.216442998e+00,5.63741e-148,9.57812e-148,5.88571e-01,9.99999e-01
1.222525213e+00,9.69104e-146,1.62939e-145,5.94766e-01,9.99999e-01
1.228637839e+00,3.12884e-112,5.20691e-112,6.00901e-01,9.99999e-01
1.234781029e+00,1.87224e-69,3.08453e-69,6.06977e-01,9.99999e-01
1.240954934e+00,7.99167e-46,1.30371e-45,6.12992e-01,9.99999e-01
1.247159708e+00,1.47145e-21,2.37734e-21,6.18947e-01,9.99999e-01
1.253395507e+00,1.08690e-14,1.73948e-14,6.24840e-01,9.99999e-01
1.259662485e+00,1.48577e-08,2.35586e-08,6.30671e-01,9.99999e-01
1.265960797e+00,5.03503e-05,7.91124e-05,6.36440e-01,9.99999e-01
1.272290601e+00,6.40739e-03,9.97809e-03,6.42145e-01,9.99999e-01
1.278652054e+00,6.42076e-03,9.91181e-03,6.47788e-01,9.99999e-01
1.285045314e+00,1.31406e-06,2.01121e-06,6.53368e-01,9.99999e-01
1.291470541e+00,1.26448e-19,1.91912e-19,6.58884e-01,9.99999e-01
1.297927893e+00,1.59087e-06,2.39467e-06,6.64336e-01,9.99999e-01
1.304417533e+00,1.33131e-04,1.98785e-04,6.69724e-01,9.99999e-01
1.310939621e+00,2.85458e-05,4.22870e-05,6.75049e-01,9.99999e-01
1.317494319e+00,1.40244e-58,2.06148e-58,6.80309e-01,9.99999e-01
1.324081790e+00,1.78717e-37,2.60709e-37,6.85505e-01,9.99999e-01
1.330702199e+00,2.68019e-22,3.88074e-22,6.90637e-01,9.99999e-01
1.337355710e+00,3.63025e-20,5.21809e-20,6.95705e-01,9.99999e-01
1.344042489e+00,2.24851e-20,3.20891e-20,7.00709e-01,9.99999e-01
1.350762701e+00,1.24770e-22,1.76816e-22,7.05649e-01,9.99999e-01
1.357516515e+00,1.99299e-13,2.80496e-13,7.10525e-01,9.99999e-01
1.364304097e+00,5.56517e-10,7.77978e-10,7.15337e-01,9.99999e-01
1.371125618e+00,1.71546e-05,2.38229e-05,7.20086e-01,9.99999e-01
1.377981246e+00,6.71724e-05,9.26806e-05,7.24772e-01,9.99999e-01
1.384871152e+00,3.12565e-03,4.28526e-03,7.29395e-01,9.99999e-01
1.391795508e+00,5.03578e-03,6.86115e-03,7.33956e-01,9.99999e-01
1.398754485e+00,3.02315e-02,4.09389e-02,7.38454e-01,9.99999e-01
1.405748258e+00,7.37906e-02,9.93291e-02,7.42889e-01,9.99999e-01
1.412776999e+00,1.70688e-01,2.28418e-01,7.47263e-01,9.99999e-01
1.419840884e+00,1.69249e-01,2.25192e-01,7.51576e-01,9.99999e-01
1.426940089e+00,4.84041e-03,6.40411e-03,7.55828e-01,9.99999e-01
1.434074789e+00,0.00000e+00,0.00000e+00,7.60018e-01,9.99999e-01
1.441245163e+00,0.00000e+00,0.00000e+00,7.64149e-01,9.99999e-01
1.448451389e+00,0.00000e+00,0.00000e+00,7.68220e-01,9.99999e-01
1.455693646e+00,0.00000e+00,0.00000e+00,7.72232e-01,9.99999e-01
1.462972114e+00,0.00000e+00,0.00000e+00,7.76184e-01,9.99999e-01
1.470286975e+00,2.54922e-284,3.26790e-284,7.80079e-01,9.99999e-01
1.477638409e+00,5.54639e-178,7.07524e-178,7.83915e-01,9.99999e-01
1.485026601e+00,2.84715e-98,3.61454e-98,7.87694e-01,9.99999e-01
1.492451734e+00,1.46833e-83,1.85532e-83,7.91415e-01,9.99999e-01
1.499913993e+00,3.54874e-35,4.46337e-35,7.95081e-01,9.99999e-01
1.507413563e+00,6.88408e-34,8.61920e-34,7.98690e-01,9.99999e-01
1.514950631e+00,1.26751e-35,1.57996e-35,8.02244e-01,9.99999e-01
1.522525384e+00,5.79520e-126,7.19236e-126,8.05743e-01,9.99999e-01
1.530138011e+00,1.44284e-303,1.78307e-303,8.09188e-01,9.99999e-01
1.537788701e+00,4.83268e-224,5.94733e-224,8.12579e-01,9.99999e-01
1.545477645e+00,9.28790e-46,1.13834e-45,8.15917e-01,9.99999e-01
1.553205033e+00,1.54731e-33,1.88880e-33,8.19203e-01,9.99999e-01
1.560971058e+00,1.38458e-33,1.68351e-33,8.22436e-01,9.99999e-01
1.568775913e+00,0.00000e+00,0.00000e+00,8.25618e-01,9.99999e-01
1.576619793e+00,0.00000e+00,0.00000e+00,8.28749e-01,9.99999e-01
1.584502892e+00,0.00000e+00,0.00000e+00,8.31829e-01,9.99999e-01
1.592425406e+00,0.00000e+00,0.00000e+00,8.34860e-01,9.99999e-01
1.600387533e+00,0.00000e+00,0.00000e+00,8.37842e-01,9.99999e-01
1.608389471e+00,0.00000e+00,0.00000e+00,8.40775e-01,9.99999e-01
1.616431418e+00,0.00000e+00,0.00000e+00,8.43660e-01,9.99999e-01
1.624513575e+00,0.00000e+00,0.00000e+00,8.46498e-01,9.99999e-01
1.632636143e+00,0.00000e+00,0.00000e+00,8.49289e-01,9.99999e-01
1.640799324e+00,2.87338e-263,3.37238e-263,8.52034e-01,9.99999e-01
1.649003321e+00,2.88004e-263,3.36952e-263,8.54733e-01,9.99999e-01
1.657248337e+00,5.33241e-203,6.21936e-203,8.57387e-01,9.99999e-01
1.665534579e+00,2.27227e-204,2.64219e-204,8.59997e-01,9.99999e-01
1.673862252e+00,1.36813e-129,1.58612e-129,8.62563e-01,9.99999e-01
1.682231563e+00,4.05565e-89,4.68814e-89,8.65085e-01,9.99999e-01
1.690642721e+00,1.26463e-48,1.45768e-48,8.67565e-01,9.99999e-01
1.699095934e+00,1.32768e-30,1.52607e-30,8.70003e-01,9.99999e-01
1.707591414e+00,5.69342e-15,6.52615e-15,8.72400e-01,9.99999e-01
1.716129371e+00,3.80090e-09,4.34510e-09,8.74755e-01,9.99999e-01
1.724710018e+00,1.21701e-05,1.38759e-05,8.77070e-01,9.99999e-01
1.733333568e+00,4.21953e-04,4.79848e-04,8.79346e-01,9.99999e-01
1.742000236e+00,1.02260e-02,1.15996e-02,8.81582e-01,9.99999e-01
1.750710237e+00,6.30137e-06,7.13002e-06,8.83779e-01,9.99999e-01
1.759463788e+00,1.14216e-123,1.28920e-123,8.85939e-01,9.99999e-01
1.768261107e+00,1.70913e-129,1.92456e-129,8.88060e-01,9.99999e-01
1.777102413e+00,2.64873e-126,2.97561e-126,8.90145e-01,9.99999e-01
1.785987925e+00,5.61471e-118,6.29315e-118,8.92194e-01,9.99999e-01
1.794917864e+00,1.38829e-112,1.55254e-112,8.94206e-01,9.99999e-01
1.803892454e+00,4.14042e-108,4.62006e-108,8.96183e-01,9.99999e-01
1.812911916e+00,7.81589e-104,8.70243e-104,8.98126e-01,9.99999e-01
1.821976476e+00,6.42089e-104,7.13405e-104,9.00034e-01,9.99999e-01
1.831086358e+00,4.86994e-83,5.39959e-83,9.01908e-01,9.99999e-01
1.840241790e+00,1.51451e-70,1.67580e-70,9.03749e-01,9.99999e-01
1.849442999e+00,8.24263e-49,9.10226e-49,9.05558e-01,9.99999e-01
1.858690214e+00,5.01402e-46,5.52610e-46,9.07334e-01,9.99999e-01
1.867983665e+00,1.54445e-46,1.69892e-46,9.09078e-01,9.99999e-01
1.877323583e+00,3.28800e-238,3.61004e-238,9.10792e-01,9.99999e-01
