#,Wave/freq,Total,CO2,Rayleigh,CIA
4.000000000e-01,1.08374e-04,9.99999e-01,1.08374e-04,9.99999e-01
4.020000000e-01,1.29816e-04,9.99999e-01,1.29816e-04,9.99999e-01
4.040100000e-01,1.54917e-04,9.99999e-01,1.54917e-04,9.99999e-01
4.060300500e-01,1.84227e-04,9.99999e-01,1.84227e-04,9.99999e-01
4.080602003e-01,2.18334e-04,9.99999e-01,2.18334e-04,9.99999e-01
4.101005013e-01,2.57889e-04,9.99999e-01,2.57889e-04,9.99999e-01
4.121510038e-01,3.03610e-04,9.99999e-01,3.03610e-04,9.99999e-01
4.142117588e-01,3.56287e-04,9.99999e-01,3.56287e-04,9.99999e-01
4.162828176e-01,4.16783e-04,9.99999e-01,4.16783e-04,9.99999e-01
4.183642317e-01,4.86043e-04,9.99999e-01,4.86043e-04,9.99999e-01
4.204560528e-01,5.65095e-04,9.99999e-01,5.65095e-04,9.99999e-01
4.225583331e-01,6.55051e-04,9.99999e-01,6.55051e-04,9.99999e-01
4.246711247e-01,7.57114e-04,9.99999e-01,7.57114e-04,9.99999e-01
4.267944804e-01,8.72581e-04,9.99999e-01,8.72581e-04,9.99999e-01
4.289284528e-01,1.00284e-03,9.99999e-01,1.00284e-03,9.99999e-01
4.310730950e-01,1.14939e-03,9.99999e-01,1.14939e-03,9.99999e-01
4.332284605e-01,1.31380e-03,9.99999e-01,1.31380e-03,9.99999e-01
4.353946028e-01,1.49777e-03,9.99999e-01,1.49777e-03,9.99999e-01
4.375715758e-01,1.70309e-03,9.99999e-01,1.70309e-03,9.99999e-01
4.397594337e-01,1.93164e-03,9.99999e-01,1.93164e-03,9.99999e-01
4.419582309e-01,2.18543e-03,9.99999e-01,2.18543e-03,9.99999e-01
4.441680220e-01,2.46653e-03,9.99999e-01,2.46653e-03,9.99999e-01
4.463888621e-01,2.77715e-03,9.99999e-01,2.77715e-03,9.99999e-01
4.486208064e-01,3.11957e-03,9.99999e-01,3.11957e-03,9.99999e-01
4.508639105e-01,3.49617e-03,9.99999e-01,3.49617e-03,9.99999e-01
4.531182300e-01,3.90943e-03,9.99999e-01,3.90943e-03,9.99999e-01
4.553838212e-01,4.36189e-03,9.99999e-01,4.36189e-03,9.99999e-01
4.576607403e-01,4.85621e-03,9.99999e-01,4.85621e-03,9.99999e-01
4.599490440e-01,5.39509e-03,9.99999e-01,5.39509e-03,9.99999e-01
4.622487892e-01,5.98132e-03,9.99999e-01,5.98132e-03,9.99999e-01
4.645600332e-01,6.61776e-03,9.99999e-01,6.61776e-03,9.99999e-01
4.668828333e-01,7.30730e-03,9.99999e-01,7.30730e-03,9.99999e-01
4.692172475e-01,8.05292e-03,9.99999e-01,8.05292e-03,9.99999e-01
4.715633337e-01,8.85760e-03,9.99999e-01,8.85760e-03,9.99999e-01
4.739211504e-01,9.72437e-03,9.99999e-01,9.72437e-03,9.99999e-01
4.762907561e-01,1.06563e-02,9.99999e-01,1.06563e-02,9.99999e-01
4.786722099e-01,1.16564e-02,9.99999e-01,1.16564e-02,9.99999e-01
4.810655710e-01,1.27279e-02,9.99999e-01,1.27279e-02,9.99999e-01
4.834708988e-01,1.38737e-02,9.99999e-01,1.38737e-02,9.99999e-01
4.858882533e-01,1.50969e-02,9.99999e-01,1.50969e-02,9.99999e-01
4.883176946e-01,1.64006e-02,9.99999e-01,1.64006e-02,9.99999e-01
4.907592831e-01,1.77877e-02,9.99999e-01,1.77877e-02,9.99999e-01
4.932130795e-01,1.92613e-02,9.99999e-01,1.92613e-02,9.99999e-01
4.956791449e-01,2.08241e-02,9.99999e-01,2.08241e-02,9.99999e-01
4.981575406e-01,2.24791e-02,9.99999e-01,2.24791e-02,9.99999e-01
5.006483283e-01,2.42290e-02,9.99999e-01,2.42290e-02,9.99999e-01
5.031515699e-01,2.60765e-02,9.99999e-01,2.60765e-02,9.99999e-01
5.056673278e-01,2.80241e-02,9.99999e-01,2.80241e-02,9.99999e-01
5.081956644e-01,3.00744e-02,9.99999e-01,3.00744e-02,9.99999e-01
5.107366428e-01,3.22297e-02,9.99999e-01,3.22297e-02,9.99999e-01
5.132903260e-01,3.44923e-02,9.99999e-01,3.44923e-02,9.99999e-01
5.158567776e-01,3.68643e-02,9.99999e-01,3.68643e-02,9.99999e-01
5.184360615e-01,3.93476e-02,9.99999e-01,3.93476e-02,9.99999e-01
5.210282418e-01,4.19443e-02,9.99999e-01,4.19443e-02,9.99999e-01
5.236333830e-01,4.46558e-02,9.99999e-01,4.46558e-02,9.99999e-01
5.262515499e-01,4.74839e-02,9.99999e-01,4.74839e-02,9.99999e-01
5.288828077e-01,5.04299e-02,9.99999e-01,5.04299e-02,9.99999e-01
5.315272217e-01,5.34950e-02,9.99999e-01,5.34950e-02,9.99999e-01
5.341848578e-01,5.66803e-02,9.99999e-01,5.66803e-02,9.99999e-01
5.368557821e-01,5.99867e-02,9.99999e-01,5.99867e-02,9.99999e-01
5.395400610e-01,6.34149e-02,9.99999e-01,6.34149e-02,9.99999e-01
5.422377613e-01,6.69655e-02,9.99999e-01,6.69655e-02,9.99999e-01
5.449489501e-01,7.06388e-02,9.99999e-01,7.06388e-02,9.99999e-01
5.476736949e-01,7.44350e-02,9.99999e-01,7.44350e-02,9.99999e-01
5.504120634e-01,7.83543e-02,9.99999e-01,7.83543e-02,9.99999e-01
5.531641237e-01,8.23963e-02,9.99999e-01,8.23963e-02,9.99999e-01
5.559299443e-01,8.65608e-02,9.99999e-01,8.65608e-02,9.99999e-01
5.587095940e-01,9.08472e-02,9.99999e-01,9.08472e-02,9.99999e-01
5.615031420e-01,9.52549e-02,9.99999e-01,9.52549e-02,9.99999e-01
5.643106577e-01,9.97831e-02,9.99999e-01,9.97831e-02,9.99999e-01
5.671322110e-01,1.04431e-01,9.99999e-01,1.04431e-01,9.99999e-01
5.699678720e-01,1.09196e-01,9.99999e-01,1.09196e-01,9.99999e-01
5.728177114e-01,1.14079e-01,9.99999e-01,1.14079e-01,9.99999e-01
5.756818000e-01,1.19077e-01,9.99999e-01,1.19077e-01,9.99999e-01
5.785602090e-01,1.24189e-01,9.99999e-01,1.24189e-01,9.99999e-01
5.814530100e-01,1.29413e-01,9.99999e-01,1.29413e-01,9.99999e-01
5.843602750e-01,1.34747e-01,9.99999e-01,1.34747e-01,9.99999e-01
5.872820764e-01,1.40189e-01,9.99999e-01,1.40189e-01,9.99999e-01
5.902184868e-01,1.45736e-01,9.99999e-01,1.45736e-01,9.99999e-01
5.931695792e-01,1.51387e-01,9.99999e-01,1.51387e-01,9.99999e-01
5.961354271e-01,1.57139e-01,9.99999e-01,1.57139e-01,9.99999e-01
5.991161043e-01,1.62989e-01,9.99999e-01,1.62989e-01,9.99999e-01
6.021116848e-01,1.68936e-01,9.99999e-01,1.68936e-01,9.99999e-01
6.051222432e-01,1.74975e-01,9.99999e-01,1.74975e-01,9.99999e-01
6.081478544e-01,1.81104e-01,9.99999e-01,1.81104e-01,9.99999e-01
6.111885937e-01,1.87321e-01,9.99999e-01,1.87321e-01,9.99999e-01
6.142445367e-01,1.93622e-01,9.99999e-01,1.93622e-01,9.99999e-01
6.173157594e-01,2.00004e-01,9.99999e-01,2.00004e-01,9.99999e-01
6.204023382e-01,2.06464e-01,9.99999e-01,2.06464e-01,9.99999e-01
6.235043498e-01,2.13000e-01,9.99999e-01,2.13000e-01,9.99999e-01
6.266218716e-01,2.19606e-01,9.99999e-01,2.19606e-01,9.99999e-01
6.297549810e-01,2.26281e-01,9.99999e-01,2.26281e-01,9.99999e-01
6.329037559e-01,2.33022e-01,9.99999e-01,2.33022e-01,9.99999e-01
6.360682746e-01,2.39823e-01,9.99999e-01,2.39823e-01,9.99999e-01
6.392486160e-01,2.46684e-01,9.99999e-01,2.46684e-01,9.99999e-01
6.424448591e-01,2.53599e-01,9.99999e-01,2.53599e-01,9.99999e-01
6.456570834e-01,2.60565e-01,9.99999e-01,2.60565e-01,9.99999e-01
6.488853688e-01,2.67580e-01,9.99999e-01,2.67580e-01,9.99999e-01
6.521297956e-01,2.74639e-01,9.99999e-01,2.74639e-01,9.99999e-01
6.553904446e-01,2.81740e-01,9.99999e-01,2.81740e-01,9.99999e-01
6.586673968e-01,2.88879e-01,9.99999e-01,2.88879e-01,9.99999e-01
6.619607338e-01,2.96052e-01,9.99999e-01,2.96052e-01,9.99999e-01
6.652705375e-01,3.03256e-01,9.99999e-01,3.03256e-01,9.99999e-01
6.685968902e-01,3.10488e-01,9.99999e-01,3.10488e-01,9.99999e-01
6.719398746e-01,3.17745e-01,9.99999e-01,3.17745e-01,9.99999e-01
6.752995740e-01,3.25023e-01,9.99999e-01,3.25023e-01,9.99999e-01
6.786760719e-01,3.32319e-01,9.99999e-01,3.32319e-01,9.99999e-01
6.820694522e-01,3.39629e-01,9.99999e-01,3.39629e-01,9.99999e-01
6.854797995e-01,3.46952e-01,9.99999e-01,3.46952e-01,9.99999e-01
6.889071985e-01,3.54282e-01,9.99999e-01,3.54282e-01,9.99999e-01
6.923517345e-01,3.61619e-01,9.99999e-01,3.61619e-01,9.99999e-01
6.958134932e-01,3.68958e-01,9.99999e-01,3.68958e-01,9.99999e-01
6.992925606e-01,3.76296e-01,9.99999e-01,3.76296e-01,9.99999e-01
7.027890234e-01,3.83632e-01,9.99999e-01,3.83632e-01,9.99999e-01
7.063029686e-01,3.90961e-01,9.99999e-01,3.90961e-01,9.99999e-01
7.098344834e-01,3.98281e-01,9.99999e-01,3.98281e-01,9.99999e-01
7.133836558e-01,4.05589e-01,9.99999e-01,4.05589e-01,9.99999e-01
7.169505741e-01,4.12884e-01,9.99999e-01,4.12884e-01,9.99999e-01
7.205353270e-01,4.20162e-01,9.99999e-01,4.20162e-01,9.99999e-01
7.241380036e-01,4.27420e-01,9.99999e-01,4.27420e-01,9.99999e-01
7.277586936e-01,4.34657e-01,9.99999e-01,4.34657e-01,9.99999e-01
7.313974871e-01,4.41869e-01,9.99999e-01,4.41869e-01,9.99999e-01
7.350544745e-01,4.49056e-01,9.99999e-01,4.49056e-01,9.99999e-01
7.387297469e-01,4.56213e-01,9.99999e-01,4.56213e-01,9.99999e-01
7.424233956e-01,4.63341e-01,9.99999e-01,4.63341e-01,9.99999e-01
7.461355126e-01,4.70435e-01,9.99999e-01,4.70435e-01,9.99999e-01
7.498661902e-01,4.77495e-01,9.99999e-01,4.77495e-01,9.99999e-01
7.536155211e-01,4.84518e-01,9.99999e-01,4.84518e-01,9.99999e-01
7.573835987e-01,4.91502e-01,9.99999e-01,4.91502e-01,9.99999e-01
7.611705167e-01,4.98447e-01,9.99999e-01,4.98447e-01,9.99999e-01
7.649763693e-01,5.05349e-01,9.99999e-01,5.05349e-01,9.99999e-01
7.688012511e-01,5.12208e-01,9.99999e-01,5.12208e-01,9.99999e-01
7.726452574e-01,5.19022e-01,9.99999e-01,5.19022e-01,9.99999e-01
7.765084837e-01,5.25789e-01,9.99999e-01,5.25789e-01,9.99999e-01
7.803910261e-01,5.16463e-01,9.69868e-01,5.32508e-01,9.99999e-01
7.842929812e-01,4.71734e-01,8.74914e-01,5.39177e-01,9.99999e-01
7.882144461e-01,4.72939e-01,8.66511e-01,5.45796e-01,9.99999e-01
7.921555184e-01,5.08236e-01,9.20111e-01,5.52363e-01,9.99999e-01
7.961162960e-01,5.28613e-01,9.45847e-01,5.58877e-01,9.99999e-01
8.000968774e-01,5.48534e-01,9.70277e-01,5.65337e-01,9.99999e-01
8.040973618e-01,5.62880e-01,9.84499e-01,5.71742e-01,9.99999e-01
8.081178486e-01,5.73960e-01,9.92854e-01,5.78091e-01,9.99999e-01
8.121584379e-01,5.83091e-01,9.97789e-01,5.84383e-01,9.99999e-01
8.162192301e-01,5.90328e-01,9.99511e-01,5.90616e-01,9.99999e-01
8.203003262e-01,5.96787e-01,9.99992e-01,5.96792e-01,9.99999e-01
8.244018279e-01,6.02908e-01,9.99999e-01,6.02908e-01,9.99999e-01
8.285238370e-01,6.08964e-01,9.99999e-01,6.08964e-01,9.99999e-01
8.326664562e-01,6.14959e-01,9.99999e-01,6.14959e-01,9.99999e-01
8.368297885e-01,6.20893e-01,9.99999e-01,6.20893e-01,9.99999e-01
8.410139374e-01,6.26766e-01,9.99999e-01,6.26766e-01,9.99999e-01
8.452190071e-01,6.32577e-01,9.99999e-01,6.32577e-01,9.99999e-01
8.494451021e-01,6.38325e-01,9.99999e-01,6.38325e-01,9.99999e-01
8.536923276e-01,6.44010e-01,9.99999e-01,6.44010e-01,9.99999e-01
8.579607893e-01,6.49632e-01,9.99999e-01,6.49632e-01,9.99999e-01
8.622505932e-01,6.55191e-01,9.99999e-01,6.55191e-01,9.99999e-01
8.665618462e-01,6.15030e-01,9.30895e-01,6.60686e-01,9.99999e-01
8.708946554e-01,4.73819e-01,7.11314e-01,6.66117e-01,9.99999e-01
8.752491287e-01,5.10736e-01,7.60607e-01,6.71484e-01,9.99999e-01
8.796253743e-01,5.82544e-01,8.60748e-01,6.76787e-01,9.99999e-01
8.840235012e-01,6.31063e-01,9.25275e-01,6.82026e-01,9.99999e-01
8.884436187e-01,6.66504e-01,9.69881e-01,6.87201e-01,9.99999e-01
8.928858368e-01,6.83792e-01,9.87692e-01,6.92312e-01,9.99999e-01
8.973502660e-01,6.95267e-01,9.96999e-01,6.97359e-01,9.99999e-01
9.018370173e-01,7.02109e-01,9.99668e-01,7.02342e-01,9.99999e-01
9.063462024e-01,7.01254e-01,9.91505e-01,7.07261e-01,9.99999e-01
9.108779334e-01,6.98335e-01,9.80647e-01,7.12116e-01,9.99999e-01
9.154323231e-01,7.13630e-01,9.95427e-01,7.16908e-01,9.99999e-01
9.200094847e-01,6.74676e-01,9.34925e-01,7.21636e-01,9.99999e-01
9.246095321e-01,6.60013e-01,9.08731e-01,7.26301e-01,9.99999e-01
9.292325798e-01,6.78002e-01,9.27621e-01,7.30903e-01,9.99999e-01
9.338787427e-01,6.83989e-01,9.30035e-01,7.35443e-01,9.99999e-01
9.385481364e-01,7.01537e-01,9.48124e-01,7.39920e-01,9.99999e-01
9.432408771e-01,7.20468e-01,9.67934e-01,7.44336e-01,9.99999e-01
9.479570815e-01,7.36276e-01,9.83419e-01,7.48690e-01,9.99999e-01
9.526968669e-01,7.46938e-01,9.91973e-01,7.52982e-01,9.99999e-01
9.574603512e-01,7.54610e-01,9.96560e-01,7.57214e-01,9.99999e-01
9.622476530e-01,7.60568e-01,9.98926e-01,7.61385e-01,9.99999e-01
9.670588912e-01,7.65250e-01,9.99678e-01,7.65496e-01,9.99999e-01
9.718941857e-01,7.69530e-01,9.99976e-01,7.69547e-01,9.99999e-01
9.767536566e-01,7.73539e-01,9.99999e-01,7.73539e-01,9.99999e-01
9.816374249e-01,7.77473e-01,9.99999e-01,7.77473e-01,9.99999e-01
9.865456120e-01,7.81348e-01,9.99999e-01,7.81348e-01,9.99999e-01
9.914783401e-01,7.85165e-01,9.99999e-01,7.85165e-01,9.99999e-01
9.964357318e-01,7.88925e-01,9.99999e-01,7.88925e-01,9.99999e-01
1.001417910e+00,7.92628e-01,9.99999e-01,7.92628e-01,9.99999e-01
1.006425000e+00,7.96275e-01,9.99999e-01,7.96275e-01,9.99999e-01
1.011457125e+00,7.99866e-01,9.99999e-01,7.99866e-01,9.99999e-01
1.016514411e+00,8.03402e-01,9.99999e-01,8.03402e-01,9.99999e-01
1.021596983e+00,8.06847e-01,9.99954e-01,8.06883e-01,9.99999e-01
1.026704968e+00,8.07624e-01,9.96684e-01,8.10311e-01,9.99999e-01
1.031838492e+00,7.80466e-01,9.59175e-01,8.13684e-01,9.99999e-01
1.036997685e+00,1.39884e-01,1.71216e-01,8.17005e-01,9.99999e-01
1.042182673e+00,1.24143e-01,1.51344e-01,8.20273e-01,9.99999e-01
1.047393587e+00,1.38880e-01,1.68649e-01,8.23489e-01,9.99999e-01
1.052630555e+00,5.58417e-03,6.75515e-03,8.26654e-01,9.99999e-01
1.057893707e+00,1.34293e-02,1.61844e-02,8.29768e-01,9.99999e-01
1.063183176e+00,4.01452e-02,4.82032e-02,8.32832e-01,9.99999e-01
1.068499092e+00,1.03142e-01,1.23398e-01,8.35847e-01,9.99999e-01
1.073841587e+00,2.23761e-01,2.66759e-01,8.38813e-01,9.99999e-01
1.079210795e+00,3.64708e-01,4.33283e-01,8.41730e-01,9.99999e-01
1.084606849e+00,5.33448e-01,6.31598e-01,8.44599e-01,9.99999e-01
1.090029883e+00,6.67659e-01,7.87870e-01,8.47422e-01,9.99999e-01
1.095480033e+00,7.55992e-01,8.89195e-01,8.50198e-01,9.99999e-01
1.100957433e+00,8.06026e-01,9.45011e-01,8.52927e-01,9.99999e-01
1.106462220e+00,8.35838e-01,9.76888e-01,8.55612e-01,9.99999e-01
1.111994531e+00,8.50846e-01,9.91372e-01,8.58251e-01,9.99999e-01
1.117554504e+00,8.59028e-01,9.97887e-01,8.60846e-01,9.99999e-01
1.123142276e+00,8.63278e-01,9.99860e-01,8.63398e-01,9.99999e-01
1.128757988e+00,8.65906e-01,9.99999e-01,8.65906e-01,9.99999e-01
1.134401778e+00,8.68372e-01,9.99999e-01,8.68372e-01,9.99999e-01
1.140073787e+00,8.70797e-01,9.99999e-01,8.70797e-01,9.99999e-01
1.145774156e+00,8.73179e-01,9.99999e-01,8.73179e-01,9.99999e-01
1.151503026e+00,8.75522e-01,9.99999e-01,8.75522e-01,9.99999e-01
1.157260541e+00,8.77824e-01,9.99999e-01,8.77824e-01,9.99999e-01
1.163046844e+00,8.80086e-01,9.99999e-01,8.80086e-01,9.99999e-01
1.168862078e+00,8.82309e-01,9.99999e-01,8.82309e-01,9.99999e-01
1.174706389e+00,8.84494e-01,9.99999e-01,8.84494e-01,9.99999e-01
1.180579921e+00,8.86641e-01,9.99999e-01,8.86641e-01,9.99999e-01
1.186482820e+00,8.88745e-01,9.99993e-01,8.88751e-01,9.99999e-01
1.192415234e+00,8.80298e-01,9.88184e-01,8.90823e-01,9.99999e-01
1.198377311e+00,5.04252e-01,5.64760e-01,8.92860e-01,9.99999e-01
1.204369197e+00,3.62831e-10,4.05460e-10,8.94861e-01,9.99999e-01
1.210391043e+00,2.90610e-36,3.24042e-36,8.96827e-01,9.99999e-01
1.216442998e+00,1.34751e-31,1.49930e-31,8.98758e-01,9.99999e-01
1.222525213e+00,3.80731e-31,4.22727e-31,9.00655e-01,9.99999e-01
1.228637839e+00,4.09293e-24,4.53501e-24,9.02518e-01,9.99999e-01
1.234781029e+00,8.77323e-16,9.70116e-16,9.04348e-01,9.99999e-01
1.240954934e+00,1.11637e-10,1.23200e-10,9.06146e-01,9.99999e-01
1.247159708e+00,4.50304e-06,4.95978e-06,9.07912e-01,9.99999e-01
1.253395507e+00,6.88065e-04,7.56409e-04,9.09646e-01,9.99999e-01
1.259662485e+00,1.48490e-02,1.62934e-02,9.11349e-01,9.99999e-01
1.265960797e+00,8.40360e-02,9.20416e-02,9.13021e-01,9.99999e-01
1.272290601e+00,3.35660e-01,3.66976e-01,9.14664e-01,9.99999e-01
1.278652054e+00,2.88040e-01,3.14359e-01,9.16277e-01,9.99999e-01
1.285045314e+00,7.09488e-03,7.72979e-03,9.17861e-01,9.99999e-01
1.291470541e+00,5.98674e-05,6.51146e-05,9.19416e-01,9.99999e-01
1.297927893e+00,7.09187e-03,7.70065e-03,9.20943e-01,9.99999e-01
1.304417533e+00,1.49030e-01,1.61560e-01,9.22442e-01,9.99999e-01
1.310939621e+00,3.68032e-02,3.98340e-02,9.23915e-01,9.99999e-01
1.317494319e+00,6.10544e-13,6.59791e-13,9.25360e-01,9.99999e-01
1.324081790e+00,4.66815e-09,5.03696e-09,9.26779e-01,9.99999e-01
1.330702199e+00,2.35647e-05,2.53883e-05,9.28172e-01,9.99999e-01
1.337355710e+00,2.64490e-05,2.84539e-05,9.29539e-01,9.99999e-01
1.344042489e+00,7.83124e-06,8.41270e-06,9.30882e-01,9.99999e-01
1.350762701e+00,1.52223e-05,1.63295e-05,9.32200e-01,9.99999e-01
1.357516515e+00,7.68382e-04,8.23124e-04,9.33493e-01,9.99999e-01
1.364304097e+00,9.52318e-03,1.01878e-02,9.34763e-01,9.99999e-01
1.371125618e+00,8.51255e-02,9.09450e-02,9.36010e-01,9.99999e-01
1.377981246e+00,1.32380e-01,1.41246e-01,9.37233e-01,9.99999e-01
1.384871152e+00,3.00435e-01,3.20145e-01,9.38434e-01,9.99999e-01
1.391795508e+00,3.28052e-01,3.49136e-01,9.39612e-01,9.99999e-01
1.398754485e+00,4.91626e-01,5.22578e-01,9.40769e-01,9.99999e-01
1.405748258e+00,5.83990e-01,6.20010e-01,9.41904e-01,9.99999e-01
1.412776999e+00,6.97319e-01,7.39454e-01,9.43019e-01,9.99999e-01
1.419840884e+00,6.29947e-01,6.67237e-01,9.44112e-01,9.99999e-01
1.426940089e+00,6.30223e-02,6.66772e-02,9.45185e-01,9.99999e-01
1.434074789e+00,0.00000e+00,0.00000e+00,9.46238e-01,9.99999e-01
1.441245163e+00,0.00000e+00,0.00000e+00,9.47272e-01,9.99999e-01
1.448451389e+00,0.00000e+00,0.00000e+00,9.48286e-01,9.99999e-01
1.455693646e+00,2.65380e-289,2.79559e-289,9.49281e-01,9.99999e-01
1.462972114e+00,2.59559e-140,2.73146e-140,9.50257e-01,9.99999e-01
1.470286975e+00,4.64788e-59,4.88625e-59,9.51215e-01,9.99999e-01
1.477638409e+00,1.21917e-37,1.28043e-37,9.52156e-01,9.99999e-01
1.485026601e+00,1.59355e-21,1.67201e-21,9.53078e-01,9.99999e-01
1.492451734e+00,2.43085e-18,2.54811e-18,9.53983e-01,9.99999e-01
1.499913993e+00,9.37237e-09,9.81532e-09,9.54871e-01,9.99999e-01
1.507413563e+00,1.41525e-07,1.48078e-07,9.55743e-01,9.99999e-01
1.514950631e+00,5.72111e-09,5.98069e-09,9.56598e-01,9.99999e-01
1.522525384e+00,3.64809e-27,3.81027e-27,9.57436e-01,9.99999e-01
1.530138011e+00,6.68994e-63,6.98134e-63,9.58259e-01,9.99999e-01
1.537788701e+00,6.79837e-47,7.08852e-47,9.59067e-01,9.99999e-01
1.545477645e+00,5.18752e-11,5.40446e-11,9.59859e-01,9.99999e-01
1.553205033e+00,1.13347e-07,1.17991e-07,9.60636e-01,9.99999e-01
1.560971058e+00,3.18222e-08,3.30999e-08,9.61398e-01,9.99999e-01
1.568775913e+00,2.36979e-157,2.46302e-157,9.62146e-01,9.99999e-01
1.576619793e+00,0.00000e+00,0.00000e+00,9.62880e-01,9.99999e-01
1.584502892e+00,5.65181e-201,5.86531e-201,9.63599e-01,9.99999e-01
1.592425406e+00,2.48252e-140,2.57441e-140,9.64305e-01,9.99999e-01
1.600387533e+00,1.29381e-225,1.34074e-225,9.64998e-01,9.99999e-01
1.608389471e+00,0.00000e+00,0.00000e+00,9.65677e-01,9.99999e-01
1.616431418e+00,0.00000e+00,0.00000e+00,9.66344e-01,9.99999e-01
1.624513575e+00,4.96493e-178,5.13438e-178,9.66997e-01,9.99999e-01
1.632636143e+00,1.74516e-132,1.80352e-132,9.67638e-01,9.99999e-01
1.640799324e+00,8.10449e-55,8.37008e-55,9.68267e-01,9.99999e-01
1.649003321e+00,8.31014e-55,8.57701e-55,9.68884e-01,9.99999e-01
1.657248337e+00,1.22195e-42,1.26041e-42,9.69489e-01,9.99999e-01
1.665534579e+00,6.40256e-43,6.60000e-43,9.70083e-01,9.99999e-01
1.673862252e+00,8.25779e-28,8.50734e-28,9.70665e-01,9.99999e-01
1.682231563e+00,1.16147e-19,1.19587e-19,9.71236e-01,9.99999e-01
1.690642721e+00,1.53852e-11,1.58317e-11,9.71796e-01,9.99999e-01
1.699095934e+00,1.62942e-07,1.67576e-07,9.72345e-01,9.99999e-01
1.707591414e+00,2.41323e-04,2.48049e-04,9.72884e-01,9.99999e-01
1.716129371e+00,9.55875e-03,9.81983e-03,9.73413e-01,9.99999e-01
1.724710018e+00,7.80568e-02,8.01460e-02,9.73931e-01,9.99999e-01
1.733333568e+00,1.90157e-01,1.95145e-01,9.74439e-01,9.99999e-01
1.742000236e+00,3.63144e-01,3.72478e-01,9.74938e-01,9.99999e-01
1.750710237e+00,1.19386e-02,1.22393e-02,9.75427e-01,9.99999e-01
1.759463788e+00,1.56199e-26,1.60055e-26,9.75906e-01,9.99999e-01
1.768261107e+00,7.08738e-28,7.25885e-28,9.76376e-01,9.99999e-01
1.777102413e+00,9.59560e-27,9.82312e-27,9.76837e-01,9.99999e-01
1.785987925e+00,1.73118e-25,1.77141e-25,9.77290e-01,9.99999e-01
1.794917864e+00,2.94222e-24,3.00922e-24,9.77733e-01,9.99999e-01
1.803892454e+00,1.43928e-23,1.47140e-23,9.78168e-01,9.99999e-01
1.812911916e+00,1.55039e-22,1.58431e-22,9.78595e-01,9.99999e-01
1.821976476e+00,1.06212e-22,1.08489e-22,9.79013e-01,9.99999e-01
1.831086358e+00,1.69366e-18,1.72924e-18,9.79423e-01,9.99999e-01
1.840241790e+00,1.01327e-15,1.03413e-15,9.79826e-01,9.99999e-01
1.849442999e+00,4.90192e-11,5.00083e-11,9.80220e-01,9.99999e-01
1.858690214e+00,3.55738e-10,3.62773e-10,9.80607e-01,9.99999e-01
1.867983665e+00,5.69897e-11,5.80942e-11,9.80986e-01,9.99999e-01
1.877323583e+00,9.65935e-50,9.84283e-50,9.81358e-01,9.99999e-01
