#,Wave/freq,Total,CO2,Rayleigh,CIA
4.000000000e-01,1.30027e-19,9.99999e-01,1.30027e-19,9.99999e-01
4.020000000e-01,3.07227e-19,9.99999e-01,3.07227e-19,9.99999e-01
4.040100000e-01,7.13064e-19,9.99999e-01,7.13064e-19,9.99999e-01
4.060300500e-01,1.62770e-18,9.99999e-01,1.62770e-18,9.99999e-01
4.080602003e-01,3.65544e-18,9.99999e-01,3.65544e-18,9.99999e-01
4.101005013e-01,8.07913e-18,9.99999e-01,8.07913e-18,9.99999e-01
4.121510038e-01,1.75787e-17,9.99999e-01,1.75787e-17,9.99999e-01
4.142117588e-01,3.76651e-17,9.99999e-01,3.76651e-17,9.99999e-01
4.162828176e-01,7.94979e-17,9.99999e-01,7.94979e-17,9.99999e-01
4.183642317e-01,1.65334e-16,9.99999e-01,1.65334e-16,9.99999e-01
4.204560528e-01,3.38914e-16,9.99999e-01,3.38914e-16,9.99999e-01
4.225583331e-01,6.84950e-16,9.99999e-01,6.84950e-16,9.99999e-01
4.246711247e-01,1.36519e-15,9.99999e-01,1.36519e-15,9.99999e-01
4.267944804e-01,2.68416e-15,9.99999e-01,2.68416e-15,9.99999e-01
4.289284528e-01,5.20746e-15,9.99999e-01,5.20746e-15,9.99999e-01
4.310730950e-01,9.97144e-15,9.99999e-01,9.97144e-15,9.99999e-01
4.332284605e-01,1.88503e-14,9.99999e-01,1.88503e-14,9.99999e-01
4.353946028e-01,3.51896e-14,9.99999e-01,3.51896e-14,9.99999e-01
4.375715758e-01,6.48867e-14,9.99999e-01,6.48867e-14,9.99999e-01
4.397594337e-01,1.18208e-13,9.99999e-01,1.18208e-13,9.99999e-01
4.419582309e-01,2.12812e-13,9.99999e-01,2.12812e-13,9.99999e-01
4.441680220e-01,3.78703e-13,9.99999e-01,3.78703e-13,9.99999e-01
4.463888621e-01,6.66282e-13,9.99999e-01,6.66282e-13,9.99999e-01
4.486208064e-01,1.15923e-12,9.99999e-01,1.15923e-12,9.99999e-01
4.508639105e-01,1.99496e-12,9.99999e-01,1.99496e-12,9.99999e-01
4.531182300e-01,3.39655e-12,9.99999e-01,3.39655e-12,9.99999e-01
4.553838212e-01,5.72241e-12,9.99999e-01,5.72241e-12,9.99999e-01
4.576607403e-01,9.54211e-12,9.99999e-01,9.54211e-12,9.99999e-01
4.599490440e-01,1.57516e-11,9.99999e-01,1.57516e-11,9.99999e-01
4.622487892e-01,2.57456e-11,9.99999e-01,2.57456e-11,9.99999e-01
4.645600332e-01,4.16743e-11,9.99999e-01,4.16743e-11,9.99999e-01
4.668828333e-01,6.68193e-11,9.99999e-01,6.68193e-11,9.99999e-01
4.692172475e-01,1.06141e-10,9.99999e-01,1.06141e-10,9.99999e-01
4.715633337e-01,1.67070e-10,9.99999e-01,1.67070e-10,9.99999e-01
4.739211504e-01,2.60628e-10,9.99999e-01,2.60628e-10,9.99999e-01
4.762907561e-01,4.03021e-10,9.99999e-01,4.03021e-10,9.99999e-01
4.786722099e-01,6.17868e-10,9.99999e-01,6.17868e-10,9.99999e-01
4.810655710e-01,9.39288e-10,9.99999e-01,9.39288e-10,9.99999e-01
4.834708988e-01,1.41615e-09,9.99999e-01,1.41615e-09,9.99999e-01
4.858882533e-01,2.11785e-09,9.99999e-01,2.11785e-09,9.99999e-01
4.883176946e-01,3.14218e-09,9.99999e-01,3.14218e-09,9.99999e-01
4.907592831e-01,4.62574e-09,9.99999e-01,4.62574e-09,9.99999e-01
4.932130795e-01,6.75795e-09,9.99999e-01,6.75795e-09,9.99999e-01
4.956791449e-01,9.79933e-09,9.99999e-01,9.79933e-09,9.99999e-01
4.981575406e-01,1.41055e-08,9.99999e-01,1.41055e-08,9.99999e-01
5.006483283e-01,2.01585e-08,9.99999e-01,2.01585e-08,9.99999e-01
5.031515699e-01,2.86065e-08,9.99999e-01,2.86065e-08,9.99999e-01
5.056673278e-01,4.03152e-08,9.99999e-01,4.03152e-08,9.99999e-01
5.081956644e-01,5.64324e-08,9.99999e-01,5.64324e-08,9.99999e-01
5.107366428e-01,7.84701e-08,9.99999e-01,7.84701e-08,9.99999e-01
5.132903260e-01,1.08405e-07,9.99999e-01,1.08405e-07,9.99999e-01
5.158567776e-01,1.48808e-07,9.99999e-01,1.48808e-07,9.99999e-01
5.184360615e-01,2.02994e-07,9.99999e-01,2.02994e-07,9.99999e-01
5.210282418e-01,2.75218e-07,9.99999e-01,2.75218e-07,9.99999e-01
5.236333830e-01,3.70903e-07,9.99999e-01,3.70903e-07,9.99999e-01
5.262515499e-01,4.96916e-07,9.99999e-01,4.96916e-07,9.99999e-01
5.288828077e-01,6.61907e-07,9.99999e-01,6.61907e-07,9.99999e-01
5.315272217e-01,8.76702e-07,9.99999e-01,8.76702e-07,9.99999e-01
5.341848578e-01,1.15477e-06,9.99999e-01,1.15477e-06,9.99999e-01
5.368557821e-01,1.51278e-06,9.99999e-01,1.51278e-06,9.99999e-01
5.395400610e-01,1.97124e-06,9.99999e-01,1.97124e-06,9.99999e-01
5.422377613e-01,2.55525e-06,9.99999e-01,2.55525e-06,9.99999e-01
5.449489501e-01,3.29534e-06,9.99999e-01,3.29534e-06,9.99999e-01
5.476736949e-01,4.22849e-06,9.99999e-01,4.22849e-06,9.99999e-01
5.504120634e-01,5.39922e-06,9.99999e-01,5.39922e-06,9.99999e-01
5.531641237e-01,6.86089e-06,9.99999e-01,6.86089e-06,9.99999e-01
5.559299443e-01,8.67710e-06,9.99999e-01,8.67710e-06,9.99999e-01
5.587095940e-01,1.09233e-05,9.99999e-01,1.09233e-05,9.99999e-01
5.615031420e-01,1.36886e-05,9.99999e-01,1.36886e-05,9.99999e-01
5.643106577e-01,1.70777e-05,9.99999e-01,1.70777e-05,9.99999e-01
5.671322110e-01,2.12129e-05,9.99999e-01,2.12129e-05,9.99999e-01
5.699678720e-01,2.62368e-05,9.99999e-01,2.62368e-05,9.99999e-01
5.728177114e-01,3.23146e-05,9.99999e-01,3.23146e-05,9.99999e-01
5.756818000e-01,3.96368e-05,9.99999e-01,3.96368e-05,9.99999e-01
5.785602090e-01,4.84225e-05,9.99999e-01,4.84225e-05,9.99999e-01
5.814530100e-01,5.89221e-05,9.99999e-01,5.89221e-05,9.99999e-01
5.843602750e-01,7.14210e-05,9.99999e-01,7.14210e-05,9.99999e-01
5.872820764e-01,8.62429e-05,9.99999e-01,8.62429e-05,9.99999e-01
5.902184868e-01,1.03753e-04,9.99999e-01,1.03753e-04,9.99999e-01
5.931695792e-01,1.24365e-04,9.99999e-01,1.24365e-04,9.99999e-01
5.961354271e-01,1.48537e-04,9.99999e-01,1.48537e-04,9.99999e-01
5.991161043e-01,1.76788e-04,9.99999e-01,1.76788e-04,9.99999e-01
6.021116848e-01,2.09688e-04,9.99999e-01,2.09688e-04,9.99999e-01
6.051222432e-01,2.47874e-04,9.99999e-01,2.47874e-04,9.99999e-01
6.081478544e-01,2.92048e-04,9.99999e-01,2.92048e-04,9.99999e-01
6.111885937e-01,3.42982e-04,9.99999e-01,3.42982e-04,9.99999e-01
6.142445367e-01,4.01520e-04,9.99999e-01,4.01520e-04,9.99999e-01
6.173157594e-01,4.68590e-04,9.99999e-01,4.68590e-04,9.99999e-01
6.204023382e-01,5.45196e-04,9.99999e-01,5.45196e-04,9.99999e-01
6.235043498e-01,6.32432e-04,9.99999e-01,6.32432e-04,9.99999e-01
6.266218716e-01,7.31479e-04,9.99999e-01,7.31479e-04,9.99999e-01
6.297549810e-01,8.43610e-04,9.99999e-01,8.43610e-04,9.99999e-01
6.329037559e-01,9.70193e-04,9.99999e-01,9.70193e-04,9.99999e-01
6.360682746e-01,1.11269e-03,9.99999e-01,1.11269e-03,9.99999e-01
6.392486160e-01,1.27267e-03,9.99999e-01,1.27267e-03,9.99999e-01
6.424448591e-01,1.45180e-03,9.99999e-01,1.45180e-03,9.99999e-01
6.456570834e-01,1.65183e-03,9.99999e-01,1.65183e-03,9.99999e-01
6.488853688e-01,1.87464e-03,9.99999e-01,1.87464e-03,9.99999e-01
6.521297956e-01,2.12219e-03,9.99999e-01,2.12219e-03,9.99999e-01
6.553904446e-01,2.39655e-03,9.99999e-01,2.39655e-03,9.99999e-01
6.586673968e-01,2.69989e-03,9.99999e-01,2.69989e-03,9.99999e-01
6.619607338e-01,3.03447e-03,9.99999e-01,3.03447e-03,9.99999e-01
6.652705375e-01,3.40266e-03,9.99999e-01,3.40266e-03,9.99999e-01
6.685968902e-01,3.80690e-03,9.99999e-01,3.80690e-03,9.99999e-01
6.719398746e-01,4.24972e-03,9.99999e-01,4.24972e-03,9.99999e-01
6.752995740e-01,4.73376e-03,9.99999e-01,4.73376e-03,9.99999e-01
6.786760719e-01,5.26171e-03,9.99999e-01,5.26171e-03,9.99999e-01
6.820694522e-01,5.83634e-03,9.99999e-01,5.83634e-03,9.99999e-01
6.854797995e-01,6.46048e-03,9.99999e-01,6.46048e-03,9.99999e-01
6.889071985e-01,7.13702e-03,9.99999e-01,7.13702e-03,9.99999e-01
6.923517345e-01,7.86893e-03,9.99999e-01,7.86893e-03,9.99999e-01
6.958134932e-01,8.65917e-03,9.99999e-01,8.65917e-03,9.99999e-01
6.992925606e-01,9.51078e-03,9.99999e-01,9.51078e-03,9.99999e-01
7.027890234e-01,1.04268e-02,9.99999e-01,1.04268e-02,9.99999e-01
7.063029686e-01,1.14103e-02,9.99999e-01,1.14103e-02,9.99999e-01
7.098344834e-01,1.24644e-02,9.99999e-01,1.24644e-02,9.99999e-01
7.133836558e-01,1.35921e-02,9.99999e-01,1.35921e-02,9.99999e-01
7.169505741e-01,1.47965e-02,9.99999e-01,1.47965e-02,9.99999e-01
7.205353270e-01,1.60806e-02,9.99999e-01,1.60806e-02,9.99999e-01
7.241380036e-01,1.74475e-02,9.99999e-01,1.74475e-02,9.99999e-01
7.277586936e-01,1.89000e-02,9.99999e-01,1.89000e-02,9.99999e-01
7.313974871e-01,2.04412e-02,9.99999e-01,2.04412e-02,9.99999e-01
7.350544745e-01,2.20739e-02,9.99999e-01,2.20739e-02,9.99999e-01
7.387297469e-01,2.38008e-02,9.99999e-01,2.38008e-02,9.99999e-01
7.424233956e-01,2.56246e-02,9.99999e-01,2.56246e-02,9.99999e-01
7.461355126e-01,2.75480e-02,9.99999e-01,2.75480e-02,9.99999e-01
7.498661902e-01,2.95735e-02,9.99999e-01,2.95735e-02,9.99999e-01
7.536155211e-01,3.17034e-02,9.99999e-01,3.17034e-02,9.99999e-01
7.573835987e-01,3.39401e-02,9.99999e-01,3.39401e-02,9.99999e-01
7.611705167e-01,3.62856e-02,9.99999e-01,3.62856e-02,9.99999e-01
7.649763693e-01,3.87421e-02,9.99999e-01,3.87421e-02,9.99999e-01
7.688012511e-01,4.13114e-02,9.99999e-01,4.13114e-02,9.99999e-01
7.726452574e-01,4.39953e-02,9.99999e-01,4.39953e-02,9.99999e-01
7.765084837e-01,4.67953e-02,9.99999e-01,4.67953e-02,9.99999e-01
7.803910261e-01,4.43547e-02,8.92215e-01,4.97129e-02,9.99999e-01
7.842929812e-01,2.93732e-02,5.56845e-01,5.27494e-02,9.99999e-01
7.882144461e-01,3.02413e-02,5.40933e-01,5.59058e-02,9.99999e-01
7.921555184e-01,4.02294e-02,6.79744e-01,5.91831e-02,9.99999e-01
7.961162960e-01,4.81279e-02,7.69037e-01,6.25820e-02,9.99999e-01
8.000968774e-01,5.73119e-02,8.67005e-01,6.61032e-02,9.99999e-01
8.040973618e-01,6.47656e-02,9.28577e-01,6.97471e-02,9.99999e-01
8.081178486e-01,7.10503e-02,9.66487e-01,7.35139e-02,9.99999e-01
8.121584379e-01,7.65941e-02,9.89540e-01,7.74036e-02,9.99999e-01
8.162192301e-01,8.12274e-02,9.97680e-01,8.14162e-02,9.99999e-01
8.203003262e-01,8.55485e-02,9.99965e-01,8.55514e-02,9.99999e-01
8.244018279e-01,8.98087e-02,9.99999e-01,8.98087e-02,9.99999e-01
8.285238370e-01,9.41874e-02,9.99999e-01,9.41874e-02,9.99999e-01
8.326664562e-01,9.86868e-02,9.99999e-01,9.86868e-02,9.99999e-01
8.368297885e-01,1.03306e-01,9.99999e-01,1.03306e-01,9.99999e-01
8.410139374e-01,1.08043e-01,9.99999e-01,1.08043e-01,9.99999e-01
8.452190071e-01,1.12898e-01,9.99999e-01,1.12898e-01,9.99999e-01
8.494451021e-01,1.17869e-01,9.99999e-01,1.17869e-01,9.99999e-01
8.536923276e-01,1.22954e-01,9.99999e-01,1.22954e-01,9.99999e-01
8.579607893e-01,1.28151e-01,9.99999e-01,1.28151e-01,9.99999e-01
8.622505932e-01,1.33458e-01,9.99999e-01,1.33458e-01,9.99999e-01
8.665618462e-01,1.18279e-01,8.51694e-01,1.38874e-01,9.99999e-01
8.708946554e-01,3.48052e-02,2.41039e-01,1.44397e-01,9.99999e-01
8.752491287e-01,4.49972e-02,2.99935e-01,1.50023e-01,9.99999e-01
8.796253743e-01,7.87698e-02,5.05741e-01,1.55751e-01,9.99999e-01
8.840235012e-01,1.12398e-01,6.95622e-01,1.61578e-01,9.99999e-01
8.884436187e-01,1.44970e-01,8.65480e-01,1.67502e-01,9.99999e-01
8.928858368e-01,1.63614e-01,9.42918e-01,1.73519e-01,9.99999e-01
8.973502660e-01,1.77082e-01,9.85830e-01,1.79627e-01,9.99999e-01
9.018370173e-01,1.85531e-01,9.98428e-01,1.85823e-01,9.99999e-01
9.063462024e-01,1.84681e-01,9.61357e-01,1.92104e-01,9.99999e-01
9.108779334e-01,1.80938e-01,9.11679e-01,1.98467e-01,9.99999e-01
9.154323231e-01,2.00509e-01,9.78529e-01,2.04909e-01,9.99999e-01
9.200094847e-01,1.63019e-01,7.71045e-01,2.11426e-01,9.99999e-01
9.246095321e-01,1.39213e-01,6.38543e-01,2.18016e-01,9.99999e-01
9.292325798e-01,1.59437e-01,7.09630e-01,2.24675e-01,9.99999e-01
9.338787427e-01,1.65215e-01,7.13976e-01,2.31400e-01,9.99999e-01
9.385481364e-01,1.85410e-01,7.78420e-01,2.38188e-01,9.99999e-01
9.432408771e-01,2.09940e-01,8.56776e-01,2.45034e-01,9.99999e-01
9.479570815e-01,2.32694e-01,9.23623e-01,2.51936e-01,9.99999e-01
9.526968669e-01,2.49176e-01,9.62475e-01,2.58891e-01,9.99999e-01
9.574603512e-01,2.61576e-01,9.83756e-01,2.65894e-01,9.99999e-01
9.622476530e-01,2.71553e-01,9.94904e-01,2.72943e-01,9.99999e-01
9.670588912e-01,2.79607e-01,9.98470e-01,2.80035e-01,9.99999e-01
9.718941857e-01,2.87134e-01,9.99891e-01,2.87164e-01,9.99999e-01
9.767536566e-01,2.94330e-01,9.99999e-01,2.94330e-01,9.99999e-01
9.816374249e-01,3.01527e-01,9.99999e-01,3.01527e-01,9.99999e-01
9.865456120e-01,3.08752e-01,9.99999e-01,3.08752e-01,9.99999e-01
9.914783401e-01,3.16003e-01,9.99999e-01,3.16003e-01,9.99999e-01
9.964357318e-01,3.23276e-01,9.99999e-01,3.23276e-01,9.99999e-01
1.001417910e+00,3.30568e-01,9.99999e-01,3.30568e-01,9.99999e-01
1.006425000e+00,3.37876e-01,9.99999e-01,3.37876e-01,9.99999e-01
1.011457125e+00,3.45196e-01,9.99999e-01,3.45196e-01,9.99999e-01
1.016514411e+00,3.52525e-01,9.99999e-01,3.52525e-01,9.99999e-01
1.021596983e+00,3.59782e-01,9.99783e-01,3.59860e-01,9.99999e-01
1.026704968e+00,3.61488e-01,9.84446e-01,3.67199e-01,9.99999e-01
1.031838492e+00,3.31523e-01,8.85152e-01,3.74538e-01,9.99999e-01
1.036997685e+00,1.36756e-02,3.58118e-02,3.81874e-01,9.99999e-01
1.042182673e+00,3.43947e-04,8.83718e-04,3.89205e-01,9.99999e-01
1.047393587e+00,1.00800e-03,2.54207e-03,3.96527e-01,9.99999e-01
1.052630555e+00,1.06668e-08,2.64136e-08,4.03839e-01,9.99999e-01
1.057893707e+00,4.00634e-08,9.74454e-08,4.11137e-01,9.99999e-01
1.063183176e+00,3.18591e-06,7.61416e-06,4.18419e-01,9.99999e-01
1.068499092e+00,5.03063e-05,1.18178e-04,4.25682e-01,9.99999e-01
1.073841587e+00,1.19616e-03,2.76298e-03,4.32924e-01,9.99999e-01
1.079210795e+00,1.11589e-02,2.53529e-02,4.40143e-01,9.99999e-01
1.084606849e+00,5.41193e-02,1.20981e-01,4.47336e-01,9.99999e-01
1.090029883e+00,1.49707e-01,3.29387e-01,4.54500e-01,9.99999e-01
1.095480033e+00,2.66205e-01,5.76657e-01,4.61635e-01,9.99999e-01
1.100957433e+00,3.58767e-01,7.65390e-01,4.68738e-01,9.99999e-01
1.106462220e+00,4.25885e-01,8.95080e-01,4.75806e-01,9.99999e-01
1.111994531e+00,4.63365e-01,9.59670e-01,4.82838e-01,9.99999e-01
1.117554504e+00,4.84937e-01,9.90006e-01,4.89832e-01,9.99999e-01
1.123142276e+00,4.96459e-01,9.99341e-01,4.96786e-01,9.99999e-01
1.128757988e+00,5.03698e-01,9.99999e-01,5.03698e-01,9.99999e-01
1.134401778e+00,5.10568e-01,9.99999e-01,5.10568e-01,9.99999e-01
1.140073787e+00,5.17393e-01,9.99999e-01,5.17393e-01,9.99999e-01
1.145774156e+00,5.24171e-01,9.99999e-01,5.24171e-01,9.99999e-01
1.151503026e+00,5.30902e-01,9.99999e-01,5.30902e-01,9.99999e-01
1.157260541e+00,5.37583e-01,9.99999e-01,5.37583e-01,9.99999e-01
1.163046844e+00,5.44214e-01,9.99999e-01,5.44214e-01,9.99999e-01
1.168862078e+00,5.50794e-01,9.99999e-01,5.50794e-01,9.99999e-01
1.174706389e+00,5.57321e-01,9.99999e-01,5.57321e-01,9.99999e-01
1.180579921e+00,5.63794e-01,9.99999e-01,5.63794e-01,9.99999e-01
1.186482820e+00,5.70195e-01,9.99970e-01,5.70212e-01,9.99999e-01
1.192415234e+00,5.46672e-01,9.48138e-01,5.76574e-01,9.99999e-01
1.198377311e+00,2.89889e-01,4.97338e-01,5.82880e-01,9.99999e-01
1.204369197e+00,6.02390e-40,1.02251e-39,5.89127e-01,9.99999e-01
1.210391043e+00,3.21969e-164,5.40836e-164,5.95317e-01,9.99999e-01
1.216442998e+00,5.37767e-142,8.94122e-142,6.01447e-01,9.99999e-01
1.222525213e+00,7.47192e-140,1.22991e-139,6.07518e-01,9.99999e-01
1.228637839e+00,1.01926e-107,1.66131e-107,6.13528e-01,9.99999e-01
1.234781029e+00,1.07196e-66,1.73043e-66,6.19477e-01,9.99999e-01
1.240954934e+00,4.94215e-44,7.90283e-44,6.25364e-01,9.99999e-01
1.247159708e+00,9.13457e-21,1.44720e-20,6.31190e-01,9.99999e-01
1.253395507e+00,3.73153e-14,5.85840e-14,6.36953e-01,9.99999e-01
1.259662485e+00,2.84973e-08,4.43432e-08,6.42653e-01,9.99999e-01
1.265960797e+00,6.92050e-05,1.06750e-04,6.48290e-01,9.99999e-01
1.272290601e+00,7.74336e-03,1.18424e-02,6.53864e-01,9.99999e-01
1.278652054e+00,7.74178e-03,1.17411e-02,6.59374e-01,9.99999e-01
1.285045314e+00,1.99039e-06,2.99387e-06,6.64821e-01,9.99999e-01
1.291470541e+00,6.81134e-19,1.01631e-18,6.70203e-01,9.99999e-01
1.297927893e+00,8.46860e-08,1.25364e-07,6.75522e-01,9.99999e-01
1.304417533e+00,1.87597e-04,2.75563e-04,6.80776e-01,9.99999e-01
1.310939621e+00,5.32026e-05,7.75585e-05,6.85967e-01,9.99999e-01
1.317494319e+00,2.49960e-55,3.61688e-55,6.91093e-01,9.99999e-01
1.324081790e+00,4.99024e-36,7.16829e-36,6.96155e-01,9.99999e-01
1.330702199e+00,1.93645e-21,2.76181e-21,7.01153e-01,9.99999e-01
1.337355710e+00,2.03319e-19,2.87951e-19,7.06087e-01,9.99999e-01
1.344042489e+00,1.24572e-19,1.75218e-19,7.10958e-01,9.99999e-01
1.350762701e+00,8.99769e-22,1.25707e-21,7.15765e-01,9.99999e-01
1.357516515e+00,5.80436e-13,8.05591e-13,7.20508e-01,9.99999e-01
1.364304097e+00,1.24886e-09,1.72212e-09,7.25189e-01,9.99999e-01
1.371125618e+00,2.59011e-05,3.54903e-05,7.29806e-01,9.99999e-01
1.377981246e+00,9.68857e-05,1.31932e-04,7.34361e-01,9.99999e-01
1.384871152e+00,3.92213e-03,5.30840e-03,7.38853e-01,9.99999e-01
1.391795508e+00,6.13456e-03,8.25332e-03,7.43283e-01,9.99999e-01
1.398754485e+00,3.47775e-02,4.65156e-02,7.47652e-01,9.99999e-01
1.405748258e+00,8.16057e-02,1.08524e-01,7.51959e-01,9.99999e-01
1.412776999e+00,1.82838e-01,2.41783e-01,7.56205e-01,9.99999e-01
1.419840884e+00,1.81255e-01,2.38371e-01,7.60390e-01,9.99999e-01
1.426940089e+00,5.31909e-03,6.95746e-03,7.64516e-01,9.99999e-01
1.434074789e+00,0.00000e+00,0.00000e+00,7.68581e-01,9.99999e-01
1.441245163e+00,0.00000e+00,0.00000e+00,7.72588e-01,9.99999e-01
1.448451389e+00,0.00000e+00,0.00000e+00,7.76535e-01,9.99999e-01
1.455693646e+00,0.00000e+00,0.00000e+00,7.80424e-01,9.99999e-01
1.462972114e+00,0.00000e+00,0.00000e+00,7.84255e-01,9.99999e-01
1.470286975e+00,9.84246e-273,1.24900e-272,7.88029e-01,9.99999e-01
1.477638409e+00,9.11460e-171,1.15120e-170,7.91746e-01,9.99999e-01
1.485026601e+00,2.49077e-94,3.13144e-94,7.95406e-01,9.99999e-01
1.492451734e+00,3.19809e-80,4.00255e-80,7.99010e-01,9.99999e-01
1.499913993e+00,7.98535e-34,9.94985e-34,8.02560e-01,9.99999e-01
1.507413563e+00,1.52744e-32,1.89496e-32,8.06054e-01,9.99999e-01
1.514950631e+00,2.97667e-34,3.67719e-34,8.09494e-01,9.99999e-01
1.522525384e+00,6.93230e-121,8.52806e-121,8.12880e-01,9.99999e-01
1.530138011e+00,3.24206e-291,3.97207e-291,8.16214e-01,9.99999e-01
1.537788701e+00,5.99993e-215,7.32150e-215,8.19494e-01,9.99999e-01
1.545477645e+00,5.66502e-44,6.88568e-44,8.22723e-01,9.99999e-01
1.553205033e+00,3.14218e-32,3.80454e-32,8.25900e-01,9.99999e-01
1.560971058e+00,2.71146e-32,3.27065e-32,8.29026e-01,9.99999e-01
1.568775913e+00,0.00000e+00,0.00000e+00,8.32103e-01,9.99999e-01
1.576619793e+00,0.00000e+00,0.00000e+00,8.35129e-01,9.99999e-01
1.584502892e+00,0.00000e+00,0.00000e+00,8.38106e-01,9.99999e-01
1.592425406e+00,0.00000e+00,0.00000e+00,8.41035e-01,9.99999e-01
1.600387533e+00,0.00000e+00,0.00000e+00,8.43916e-01,9.99999e-01
1.608389471e+00,0.00000e+00,0.00000e+00,8.46750e-01,9.99999e-01
1.616431418e+00,0.00000e+00,0.00000e+00,8.49536e-01,9.99999e-01
1.624513575e+00,0.00000e+00,0.00000e+00,8.52277e-01,9.99999e-01
1.632636143e+00,0.00000e+00,0.00000e+00,8.54972e-01,9.99999e-01
1.640799324e+00,1.49744e-252,1.74604e-252,8.57622e-01,9.99999e-01
1.649003321e+00,1.50077e-252,1.74462e-252,8.60228e-01,9.99999e-01
1.657248337e+00,9.17886e-195,1.06386e-194,8.62790e-01,9.99999e-01
1.665534579e+00,4.44313e-196,5.13473e-196,8.65309e-01,9.99999e-01
1.673862252e+00,2.30218e-124,2.65294e-124,8.67785e-01,9.99999e-01
1.682231563e+00,1.49557e-85,1.71861e-85,8.70219e-01,9.99999e-01
1.690642721e+00,1.01568e-46,1.16395e-46,8.72612e-01,9.99999e-01
1.699095934e+00,1.95868e-29,2.23858e-29,8.74964e-01,9.99999e-01
1.707591414e+00,1.89724e-14,2.16265e-14,8.77275e-01,9.99999e-01
1.716129371e+00,7.68323e-09,8.73543e-09,8.79547e-01,9.99999e-01
1.724710018e+00,1.80989e-05,2.05254e-05,8.81780e-01,9.99999e-01
1.733333568e+00,5.66642e-04,6.41016e-04,8.83974e-01,9.99999e-01
1.742000236e+00,1.22421e-02,1.38152e-02,8.86130e-01,9.99999e-01
1.750710237e+00,8.98388e-06,1.01141e-05,8.88248e-01,9.99999e-01
1.759463788e+00,1.10989e-118,1.24661e-118,8.90330e-01,9.99999e-01
1.768261107e+00,2.86776e-124,3.21362e-124,8.92375e-01,9.99999e-01
1.777102413e+00,3.34904e-121,3.74452e-121,8.94385e-01,9.99999e-01
1.785987925e+00,3.18926e-113,3.55801e-113,8.96359e-01,9.99999e-01
1.794917864e+00,4.72644e-108,5.26154e-108,8.98298e-01,9.99999e-01
1.803892454e+00,9.26400e-104,1.02910e-103,9.00203e-01,9.99999e-01
1.812911916e+00,1.16728e-99,1.29399e-99,9.02074e-01,9.99999e-01
1.821976476e+00,9.66963e-100,1.06975e-99,9.03912e-01,9.99999e-01
1.831086358e+00,1.01803e-79,1.12401e-79,9.05718e-01,9.99999e-01
1.840241790e+00,9.73358e-68,1.07258e-67,9.07491e-01,9.99999e-01
1.849442999e+00,6.99521e-47,7.69352e-47,9.09233e-01,9.99999e-01
1.858690214e+00,3.29840e-44,3.62085e-44,9.10943e-01,9.99999e-01
1.867983665e+00,1.02286e-44,1.12079e-44,9.12623e-01,9.99999e-01
1.877323583e+00,1.54753e-228,1.69263e-228,9.14273e-01,9.99999e-01
