#,Wave/freq,Total,CO2,Rayleigh,CIA
4.000000000e-01,3.86505e-17,9.99999e-01,3.86505e-17,9.99999e-01
4.020000000e-01,8.15989e-17,9.99999e-01,8.15989e-17,9.99999e-01
4.040100000e-01,1.69617e-16,9.99999e-01,1.69617e-16,9.99999e-01
4.060300500e-01,3.47517e-16,9.99999e-01,3.47517e-16,9.99999e-01
4.080602003e-01,7.01988e-16,9.99999e-01,7.01988e-16,9.99999e-01
4.101005013e-01,1.39847e-15,9.99999e-01,1.39847e-15,9.99999e-01
4.121510038e-01,2.74829e-15,9.99999e-01,2.74829e-15,9.99999e-01
4.142117588e-01,5.32938e-15,9.99999e-01,5.32938e-15,9.99999e-01
4.162828176e-01,1.02002e-14,9.99999e-01,1.02002e-14,9.99999e-01
4.183642317e-01,1.92741e-14,9.99999e-01,1.92741e-14,9.99999e-01
4.204560528e-01,3.59651e-14,9.99999e-01,3.59651e-14,9.99999e-01
4.225583331e-01,6.62881e-14,9.99999e-01,6.62881e-14,9.99999e-01
4.246711247e-01,1.20710e-13,9.99999e-01,1.20710e-13,9.99999e-01
4.267944804e-01,2.17226e-13,9.99999e-01,2.17226e-13,9.99999e-01
4.289284528e-01,3.86402e-13,9.99999e-01,3.86402e-13,9.99999e-01
4.310730950e-01,6.79558e-13,9.99999e-01,6.79558e-13,9.99999e-01
4.332284605e-01,1.18187e-12,9.99999e-01,1.18187e-12,9.99999e-01
4.353946028e-01,2.03314e-12,9.99999e-01,2.03314e-12,9.99999e-01
4.375715758e-01,3.46026e-12,9.99999e-01,3.46026e-12,9.99999e-01
4.397594337e-01,5.82760e-12,9.99999e-01,5.82760e-12,9.99999e-01
4.419582309e-01,9.71403e-12,9.99999e-01,9.71403e-12,9.99999e-01
4.441680220e-01,1.60297e-11,9.99999e-01,1.60297e-11,9.99999e-01
4.463888621e-01,2.61912e-11,9.99999e-01,2.61912e-11,9.99999e-01
4.486208064e-01,4.23811e-11,9.99999e-01,4.23811e-11,9.99999e-01
4.508639105e-01,6.79300e-11,9.99999e-01,6.79300e-11,9.99999e-01
4.531182300e-01,1.07871e-10,9.99999e-01,1.07871e-10,9.99999e-01
4.553838212e-01,1.69738e-10,9.99999e-01,1.69738e-10,9.99999e-01
4.576607403e-01,2.64707e-10,9.99999e-01,2.64707e-10,9.99999e-01
4.599490440e-01,4.09203e-10,9.99999e-01,4.09203e-10,9.99999e-01
4.622487892e-01,6.27157e-10,9.99999e-01,6.27157e-10,9.99999e-01
4.645600332e-01,9.53127e-10,9.99999e-01,9.53127e-10,9.99999e-01
4.668828333e-01,1.43660e-09,9.99999e-01,1.43660e-09,9.99999e-01
4.692172475e-01,2.14783e-09,9.99999e-01,2.14783e-09,9.99999e-01
4.715633337e-01,3.18577e-09,9.99999e-01,3.18577e-09,9.99999e-01
4.739211504e-01,4.68864e-09,9.99999e-01,4.68864e-09,9.99999e-01
4.762907561e-01,6.84800e-09,9.99999e-01,6.84800e-09,9.99999e-01
4.786722099e-01,9.92732e-09,9.99999e-01,9.92732e-09,9.99999e-01
4.810655710e-01,1.42861e-08,9.99999e-01,1.42861e-08,9.99999e-01
4.834708988e-01,2.04115e-08,9.99999e-01,2.04115e-08,9.99999e-01
4.858882533e-01,2.89583e-08,9.99999e-01,2.89583e-08,9.99999e-01
4.883176946e-01,4.08011e-08,9.99999e-01,4.08011e-08,9.99999e-01
4.907592831e-01,5.70991e-08,9.99999e-01,5.70991e-08,9.99999e-01
4.932130795e-01,7.93787e-08,9.99999e-01,7.93787e-08,9.99999e-01
4.956791449e-01,1.09636e-07,9.99999e-01,1.09636e-07,9.99999e-01
4.981575406e-01,1.50463e-07,9.99999e-01,1.50463e-07,9.99999e-01
5.006483283e-01,2.05207e-07,9.99999e-01,2.05207e-07,9.99999e-01
5.031515699e-01,2.78159e-07,9.99999e-01,2.78159e-07,9.99999e-01
5.056673278e-01,3.74788e-07,9.99999e-01,3.74788e-07,9.99999e-01
5.081956644e-01,5.02018e-07,9.99999e-01,5.02018e-07,9.99999e-01
5.107366428e-01,6.68568e-07,9.99999e-01,6.68568e-07,9.99999e-01
5.132903260e-01,8.85348e-07,9.99999e-01,8.85348e-07,9.99999e-01
5.158567776e-01,1.16593e-06,9.99999e-01,1.16593e-06,9.99999e-01
5.184360615e-01,1.52711e-06,9.99999e-01,1.52711e-06,9.99999e-01
5.210282418e-01,1.98955e-06,9.99999e-01,1.98955e-06,9.99999e-01
5.236333830e-01,2.57851e-06,9.99999e-01,2.57851e-06,9.99999e-01
5.262515499e-01,3.32474e-06,9.99999e-01,3.32474e-06,9.99999e-01
5.288828077e-01,4.26546e-06,9.99999e-01,4.26546e-06,9.99999e-01
5.315272217e-01,5.44550e-06,9.99999e-01,5.44550e-06,9.99999e-01
5.341848578e-01,6.91853e-06,9.99999e-01,6.91853e-06,9.99999e-01
5.368557821e-01,8.74856e-06,9.99999e-01,8.74856e-06,9.99999e-01
5.395400610e-01,1.10115e-05,9.99999e-01,1.10115e-05,9.99999e-01
5.422377613e-01,1.37969e-05,9.99999e-01,1.37969e-05,9.99999e-01
5.449489501e-01,1.72101e-05,9.99999e-01,1.72101e-05,9.99999e-01
5.476736949e-01,2.13741e-05,9.99999e-01,2.13741e-05,9.99999e-01
5.504120634e-01,2.64323e-05,9.99999e-01,2.64323e-05,9.99999e-01
5.531641237e-01,3.25506e-05,9.99999e-01,3.25506e-05,9.99999e-01
5.559299443e-01,3.99206e-05,9.99999e-01,3.99206e-05,9.99999e-01
5.587095940e-01,4.87623e-05,9.99999e-01,4.87623e-05,9.99999e-01
5.615031420e-01,5.93273e-05,9.99999e-01,5.93273e-05,9.99999e-01
5.643106577e-01,7.19024e-05,9.99999e-01,7.19024e-05,9.99999e-01
5.671322110e-01,8.68127e-05,9.99999e-01,8.68127e-05,9.99999e-01
5.699678720e-01,1.04425e-04,9.99999e-01,1.04425e-04,9.99999e-01
5.728177114e-01,1.25154e-04,9.99999e-01,1.25154e-04,9.99999e-01
5.756818000e-01,1.49462e-04,9.99999e-01,1.49462e-04,9.99999e-01
5.785602090e-01,1.77866e-04,9.99999e-01,1.77866e-04,9.99999e-01
5.814530100e-01,2.10942e-04,9.99999e-01,2.10942e-04,9.99999e-01
5.843602750e-01,2.49327e-04,9.99999e-01,2.49327e-04,9.99999e-01
5.872820764e-01,2.93726e-04,9.99999e-01,2.93726e-04,9.99999e-01
5.902184868e-01,3.44912e-04,9.99999e-01,3.44912e-04,9.99999e-01
5.931695792e-01,4.03736e-04,9.99999e-01,4.03736e-04,9.99999e-01
5.961354271e-01,4.71124e-04,9.99999e-01,4.71124e-04,9.99999e-01
5.991161043e-01,5.48087e-04,9.99999e-01,5.48087e-04,9.99999e-01
6.021116848e-01,6.35719e-04,9.99999e-01,6.35719e-04,9.99999e-01
6.051222432e-01,7.35205e-04,9.99999e-01,7.35205e-04,9.99999e-01
6.081478544e-01,8.47822e-04,9.99999e-01,8.47822e-04,9.99999e-01
6.111885937e-01,9.74941e-04,9.99999e-01,9.74941e-04,9.99999e-01
6.142445367e-01,1.11803e-03,9.99999e-01,1.11803e-03,9.99999e-01
6.173157594e-01,1.27866e-03,9.99999e-01,1.27866e-03,9.99999e-01
6.204023382e-01,1.45849e-03,9.99999e-01,1.45849e-03,9.99999e-01
6.235043498e-01,1.65929e-03,9.99999e-01,1.65929e-03,9.99999e-01
6.266218716e-01,1.88294e-03,9.99999e-01,1.88294e-03,9.99999e-01
6.297549810e-01,2.13140e-03,9.99999e-01,2.13140e-03,9.99999e-01
6.329037559e-01,2.40675e-03,9.99999e-01,2.40675e-03,9.99999e-01
6.360682746e-01,2.71115e-03,9.99999e-01,2.71115e-03,9.99999e-01
6.392486160e-01,3.04688e-03,9.99999e-01,3.04688e-03,9.99999e-01
6.424448591e-01,3.41629e-03,9.99999e-01,3.41629e-03,9.99999e-01
6.456570834e-01,3.82185e-03,9.99999e-01,3.82185e-03,9.99999e-01
6.488853688e-01,4.26609e-03,9.99999e-01,4.26609e-03,9.99999e-01
6.521297956e-01,4.75163e-03,9.99999e-01,4.75163e-03,9.99999e-01
6.553904446e-01,5.28117e-03,9.99999e-01,5.28117e-03,9.99999e-01
6.586673968e-01,5.85750e-03,9.99999e-01,5.85750e-03,9.99999e-01
6.619607338e-01,6.48344e-03,9.99999e-01,6.48344e-03,9.99999e-01
6.652705375e-01,7.16189e-03,9.99999e-01,7.16189e-03,9.99999e-01
6.685968902e-01,7.89580e-03,9.99999e-01,7.89580e-03,9.99999e-01
6.719398746e-01,8.68816e-03,9.99999e-01,8.68816e-03,9.99999e-01
6.752995740e-01,9.54199e-03,9.99999e-01,9.54199e-03,9.99999e-01
6.786760719e-01,1.04603e-02,9.99999e-01,1.04603e-02,9.99999e-01
6.820694522e-01,1.14463e-02,9.99999e-01,1.14463e-02,9.99999e-01
6.854797995e-01,1.25029e-02,9.99999e-01,1.25029e-02,9.99999e-01
6.889071985e-01,1.36333e-02,9.99999e-01,1.36333e-02,9.99999e-01
6.923517345e-01,1.48404e-02,9.99999e-01,1.48404e-02,9.99999e-01
6.958134932e-01,1.61274e-02,9.99999e-01,1.61274e-02,9.99999e-01
6.992925606e-01,1.74972e-02,9.99999e-01,1.74972e-02,9.99999e-01
7.027890234e-01,1.89529e-02,9.99999e-01,1.89529e-02,9.99999e-01
7.063029686e-01,2.04972e-02,9.99999e-01,2.04972e-02,9.99999e-01
7.098344834e-01,2.21332e-02,9.99999e-01,2.21332e-02,9.99999e-01
7.133836558e-01,2.38634e-02,9.99999e-01,2.38634e-02,9.99999e-01
7.169505741e-01,2.56908e-02,9.99999e-01,2.56908e-02,9.99999e-01
7.205353270e-01,2.76177e-02,9.99999e-01,2.76177e-02,9.99999e-01
7.241380036e-01,2.96468e-02,9.99999e-01,2.96468e-02,9.99999e-01
7.277586936e-01,3.17805e-02,9.99999e-01,3.17805e-02,9.99999e-01
7.313974871e-01,3.40210e-02,9.99999e-01,3.40210e-02,9.99999e-01
7.350544745e-01,3.63704e-02,9.99999e-01,3.63704e-02,9.99999e-01
7.387297469e-01,3.88309e-02,9.99999e-01,3.88309e-02,9.99999e-01
7.424233956e-01,4.14042e-02,9.99999e-01,4.14042e-02,9.99999e-01
7.461355126e-01,4.40921e-02,9.99999e-01,4.40921e-02,9.99999e-01
7.498661902e-01,4.68963e-02,9.99999e-01,4.68963e-02,9.99999e-01
7.536155211e-01,4.98180e-02,9.99999e-01,4.98180e-02,9.99999e-01
7.573835987e-01,5.28587e-02,9.99999e-01,5.28587e-02,9.99999e-01
7.611705167e-01,5.60193e-02,9.99999e-01,5.60193e-02,9.99999e-01
7.649763693e-01,5.93009e-02,9.99999e-01,5.93009e-02,9.99999e-01
7.688012511e-01,6.27042e-02,9.99999e-01,6.27042e-02,9.99999e-01
7.726452574e-01,6.62297e-02,9.99999e-01,6.62297e-02,9.99999e-01
7.765084837e-01,6.98779e-02,9.99999e-01,6.98779e-02,9.99999e-01
7.803910261e-01,6.65516e-02,9.03631e-01,7.36490e-02,9.99999e-01
7.842929812e-01,4.63126e-02,5.97250e-01,7.75431e-02,9.99999e-01
7.882144461e-01,4.74513e-02,5.81795e-01,8.15601e-02,9.99999e-01
7.921555184e-01,6.11989e-02,7.14110e-01,8.56996e-02,9.99999e-01
7.961162960e-01,7.15522e-02,7.95367e-01,8.99611e-02,9.99999e-01
8.000968774e-01,8.33159e-02,8.83105e-01,9.43441e-02,9.99999e-01
8.040973618e-01,9.26635e-02,9.37436e-01,9.88477e-02,9.99999e-01
8.081178486e-01,1.00446e-01,9.70768e-01,1.03471e-01,9.99999e-01
8.121584379e-01,1.07224e-01,9.90864e-01,1.08213e-01,9.99999e-01
8.162192301e-01,1.12843e-01,9.97975e-01,1.13072e-01,9.99999e-01
8.203003262e-01,1.18043e-01,9.99968e-01,1.18046e-01,9.99999e-01
8.244018279e-01,1.23135e-01,9.99999e-01,1.23135e-01,9.99999e-01
8.285238370e-01,1.28336e-01,9.99999e-01,1.28336e-01,9.99999e-01
8.326664562e-01,1.33648e-01,9.99999e-01,1.33648e-01,9.99999e-01
8.368297885e-01,1.39067e-01,9.99999e-01,1.39067e-01,9.99999e-01
8.410139374e-01,1.44594e-01,9.99999e-01,1.44594e-01,9.99999e-01
8.452190071e-01,1.50224e-01,9.99999e-01,1.50224e-01,9.99999e-01
8.494451021e-01,1.55955e-01,9.99999e-01,1.55955e-01,9.99999e-01
8.536923276e-01,1.61786e-01,9.99999e-01,1.61786e-01,9.99999e-01
8.579607893e-01,1.67712e-01,9.99999e-01,1.67712e-01,9.99999e-01
8.622505932e-01,1.73733e-01,9.99999e-01,1.73733e-01,9.99999e-01
8.665618462e-01,1.54881e-01,8.61197e-01,1.79844e-01,9.99999e-01
8.708946554e-01,5.28960e-02,2.84321e-01,1.86043e-01,9.99999e-01
8.752491287e-01,6.68055e-02,3.47353e-01,1.92327e-01,9.99999e-01
8.796253743e-01,1.09309e-01,5.50141e-01,1.98693e-01,9.99999e-01
8.840235012e-01,1.49426e-01,7.28419e-01,2.05138e-01,9.99999e-01
8.884436187e-01,1.86589e-01,8.81560e-01,2.11658e-01,9.99999e-01
8.928858368e-01,2.07355e-01,9.50080e-01,2.18250e-01,9.99999e-01
8.973502660e-01,2.22127e-01,9.87619e-01,2.24912e-01,9.99999e-01
9.018370173e-01,2.31321e-01,9.98627e-01,2.31639e-01,9.99999e-01
9.063462024e-01,2.30407e-01,9.66357e-01,2.38428e-01,9.99999e-01
9.108779334e-01,2.26293e-01,9.22600e-01,2.45277e-01,9.99999e-01
9.154323231e-01,2.47444e-01,9.81215e-01,2.52181e-01,9.99999e-01
9.200094847e-01,2.05415e-01,7.92685e-01,2.59137e-01,9.99999e-01
9.246095321e-01,1.79977e-01,6.76243e-01,2.66142e-01,9.99999e-01
9.292325798e-01,2.02510e-01,7.41269e-01,2.73193e-01,9.99999e-01
9.338787427e-01,2.08862e-01,7.45176e-01,2.80286e-01,9.99999e-01
9.385481364e-01,2.31048e-01,8.03877e-01,2.87417e-01,9.99999e-01
9.432408771e-01,2.57469e-01,8.74010e-01,2.94583e-01,9.99999e-01
9.479570815e-01,2.81621e-01,9.33195e-01,3.01781e-01,9.99999e-01
9.526968669e-01,2.98884e-01,9.67237e-01,3.09008e-01,9.99999e-01
9.574603512e-01,3.11781e-01,9.85838e-01,3.16260e-01,9.99999e-01
9.622476530e-01,3.22097e-01,9.95559e-01,3.23533e-01,9.99999e-01
9.670588912e-01,3.30385e-01,9.98666e-01,3.30826e-01,9.99999e-01
9.718941857e-01,3.38102e-01,9.99905e-01,3.38134e-01,9.99999e-01
9.767536566e-01,3.45454e-01,9.99999e-01,3.45454e-01,9.99999e-01
9.816374249e-01,3.52783e-01,9.99999e-01,3.52783e-01,9.99999e-01
9.865456120e-01,3.60119e-01,9.99999e-01,3.60119e-01,9.99999e-01
9.914783401e-01,3.67458e-01,9.99999e-01,3.67458e-01,9.99999e-01
9.964357318e-01,3.74796e-01,9.99999e-01,3.74796e-01,9.99999e-01
1.001417910e+00,3.82133e-01,9.99999e-01,3.82133e-01,9.99999e-01
1.006425000e+00,3.89463e-01,9.99999e-01,3.89463e-01,9.99999e-01
1.011457125e+00,3.96785e-01,9.99999e-01,3.96785e-01,9.99999e-01
1.016514411e+00,4.04097e-01,9.99999e-01,4.04097e-01,9.99999e-01
1.021596983e+00,4.11320e-01,9.99819e-01,4.11394e-01,9.99999e-01
1.026704968e+00,4.13042e-01,9.86545e-01,4.18675e-01,9.99999e-01
1.031838492e+00,3.81827e-01,8.96438e-01,4.25938e-01,9.99999e-01
1.036997685e+00,1.86059e-02,4.29518e-02,4.33179e-01,9.99999e-01
1.042182673e+00,7.65070e-04,1.73723e-03,4.40397e-01,9.99999e-01
1.047393587e+00,2.16632e-03,4.83998e-03,4.47589e-01,9.99999e-01
1.052630555e+00,7.89770e-08,1.73670e-07,4.54753e-01,9.99999e-01
1.057893707e+00,2.96331e-07,6.41566e-07,4.61886e-01,9.99999e-01
1.063183176e+00,1.30697e-05,2.78679e-05,4.68987e-01,9.99999e-01
1.068499092e+00,1.64971e-04,3.46537e-04,4.76054e-01,9.99999e-01
1.073841587e+00,2.76463e-03,5.72286e-03,4.83085e-01,9.99999e-01
1.079210795e+00,1.93698e-02,3.95239e-02,4.90078e-01,9.99999e-01
1.084606849e+00,7.83881e-02,1.57713e-01,4.97031e-01,9.99999e-01
1.090029883e+00,1.91165e-01,3.79339e-01,5.03942e-01,9.99999e-01
1.095480033e+00,3.16013e-01,6.18650e-01,5.10809e-01,9.99999e-01
1.100957433e+00,4.10079e-01,7.92219e-01,5.17633e-01,9.99999e-01
1.106462220e+00,4.76143e-01,9.07959e-01,5.24409e-01,9.99999e-01
1.111994531e+00,5.12436e-01,9.64787e-01,5.31138e-01,9.99999e-01
1.117554504e+00,5.33128e-01,9.91279e-01,5.37818e-01,9.99999e-01
1.123142276e+00,5.44134e-01,9.99424e-01,5.44447e-01,9.99999e-01
1.128757988e+00,5.51025e-01,9.99999e-01,5.51025e-01,9.99999e-01
1.134401778e+00,5.57550e-01,9.99999e-01,5.57550e-01,9.99999e-01
1.140073787e+00,5.64021e-01,9.99999e-01,5.64021e-01,9.99999e-01
1.145774156e+00,5.70437e-01,9.99999e-01,5.70437e-01,9.99999e-01
1.151503026e+00,5.76798e-01,9.99999e-01,5.76798e-01,9.99999e-01
1.157260541e+00,5.83101e-01,9.99999e-01,5.83101e-01,9.99999e-01
1.163046844e+00,5.89347e-01,9.99999e-01,5.89347e-01,9.99999e-01
1.168862078e+00,5.95534e-01,9.99999e-01,5.95534e-01,9.99999e-01
1.174706389e+00,6.01662e-01,9.99999e-01,6.01662e-01,9.99999e-01
1.180579921e+00,6.07731e-01,9.99999e-01,6.07731e-01,9.99999e-01
1.186482820e+00,6.13724e-01,9.99976e-01,6.13739e-01,9.99999e-01
1.192415234e+00,5.91618e-01,9.54705e-01,6.19685e-01,9.99999e-01
1.198377311e+00,3.17795e-01,5.08007e-01,6.25571e-01,9.99999e-01
1.204369197e+00,5.20723e-35,8.24718e-35,6.31394e-01,9.99999e-01
1.210391043e+00,5.26230e-143,8.25906e-143,6.37155e-01,9.99999e-01
1.216442998e+00,1.07908e-123,1.67858e-123,6.42853e-01,9.99999e-01
1.222525213e+00,7.86062e-122,1.21214e-121,6.48488e-01,9.99999e-01
1.228637839e+00,6.70484e-94,1.02511e-93,6.54060e-01,9.99999e-01
1.234781029e+00,2.95567e-58,4.48122e-58,6.59568e-01,9.99999e-01
1.240954934e+00,1.52702e-38,2.29622e-38,6.65012e-01,9.99999e-01
1.247159708e+00,2.42983e-18,3.62449e-18,6.70392e-01,9.99999e-01
1.253395507e+00,1.70104e-12,2.51741e-12,6.75708e-01,9.99999e-01
1.259662485e+00,2.18360e-07,3.20665e-07,6.80961e-01,9.99999e-01
1.265960797e+00,1.97003e-04,2.87114e-04,6.86149e-01,9.99999e-01
1.272290601e+00,1.40863e-02,2.03773e-02,6.91273e-01,9.99999e-01
1.278652054e+00,1.35792e-02,1.95010e-02,6.96333e-01,9.99999e-01
1.285045314e+00,7.89093e-06,1.12514e-05,7.01328e-01,9.99999e-01
1.291470541e+00,1.21115e-16,1.71488e-16,7.06260e-01,9.99999e-01
1.297927893e+00,4.90358e-07,6.89548e-07,7.11129e-01,9.99999e-01
1.304417533e+00,5.44155e-04,7.60062e-04,7.15933e-01,9.99999e-01
1.310939621e+00,1.49029e-04,2.06790e-04,7.20675e-01,9.99999e-01
1.317494319e+00,2.27223e-48,3.13259e-48,7.25353e-01,9.99999e-01
1.324081790e+00,1.33784e-31,1.83274e-31,7.29968e-01,9.99999e-01
1.330702199e+00,8.30639e-19,1.13086e-18,7.34520e-01,9.99999e-01
1.337355710e+00,4.07357e-17,5.51219e-17,7.39010e-01,9.99999e-01
1.344042489e+00,2.35473e-17,3.16735e-17,7.43438e-01,9.99999e-01
1.350762701e+00,3.97254e-19,5.31226e-19,7.47805e-01,9.99999e-01
1.357516515e+00,1.57980e-11,2.10049e-11,7.52110e-01,9.99999e-01
1.364304097e+00,1.54780e-08,2.04639e-08,7.56354e-01,9.99999e-01
1.371125618e+00,9.39991e-05,1.23596e-04,7.60537e-01,9.99999e-01
1.377981246e+00,3.06237e-04,4.00487e-04,7.64660e-01,9.99999e-01
1.384871152e+00,7.91746e-03,1.02995e-02,7.68724e-01,9.99999e-01
1.391795508e+00,1.15273e-02,1.49177e-02,7.72728e-01,9.99999e-01
1.398754485e+00,5.37589e-02,6.92168e-02,7.76673e-01,9.99999e-01
1.405748258e+00,1.12273e-01,1.43837e-01,7.80560e-01,9.99999e-01
1.412776999e+00,2.27478e-01,2.90006e-01,7.84389e-01,9.99999e-01
1.419840884e+00,2.20714e-01,2.80037e-01,7.88161e-01,9.99999e-01
1.426940089e+00,7.12762e-03,9.00093e-03,7.91876e-01,9.99999e-01
1.434074789e+00,0.00000e+00,0.00000e+00,7.95534e-01,9.99999e-01
1.441245163e+00,0.00000e+00,0.00000e+00,7.99137e-01,9.99999e-01
1.448451389e+00,0.00000e+00,0.00000e+00,8.02684e-01,9.99999e-01
1.455693646e+00,0.00000e+00,0.00000e+00,8.06176e-01,9.99999e-01
1.462972114e+00,0.00000e+00,0.00000e+00,8.09614e-01,9.99999e-01
1.470286975e+00,2.59729e-237,3.19470e-237,8.12999e-01,9.99999e-01
1.477638409e+00,1.06876e-148,1.30922e-148,8.16330e-01,9.99999e-01
1.485026601e+00,2.85456e-82,3.48282e-82,8.19609e-01,9.99999e-01
1.492451734e+00,5.31926e-70,6.46454e-70,8.22836e-01,9.99999e-01
1.499913993e+00,1.09014e-29,1.31976e-29,8.26011e-01,9.99999e-01
1.507413563e+00,2.00172e-28,2.41422e-28,8.29136e-01,9.99999e-01
1.514950631e+00,4.62162e-30,5.55342e-30,8.32210e-01,9.99999e-01
1.522525384e+00,2.38848e-105,2.85965e-105,8.35235e-01,9.99999e-01
1.530138011e+00,2.29078e-253,2.73294e-253,8.38210e-01,9.99999e-01
1.537788701e+00,4.33587e-187,5.15476e-187,8.41138e-01,9.99999e-01
1.545477645e+00,1.65099e-38,1.95611e-38,8.44017e-01,9.99999e-01
1.553205033e+00,3.28283e-28,3.87652e-28,8.46849e-01,9.99999e-01
1.560971058e+00,2.43362e-28,2.86431e-28,8.49634e-01,9.99999e-01
1.568775913e+00,0.00000e+00,0.00000e+00,8.52373e-01,9.99999e-01
1.576619793e+00,0.00000e+00,0.00000e+00,8.55066e-01,9.99999e-01
1.584502892e+00,0.00000e+00,0.00000e+00,8.57715e-01,9.99999e-01
1.592425406e+00,0.00000e+00,0.00000e+00,8.60319e-01,9.99999e-01
1.600387533e+00,0.00000e+00,0.00000e+00,8.62880e-01,9.99999e-01
1.608389471e+00,0.00000e+00,0.00000e+00,8.65397e-01,9.99999e-01
1.616431418e+00,0.00000e+00,0.00000e+00,8.67872e-01,9.99999e-01
1.624513575e+00,0.00000e+00,0.00000e+00,8.70304e-01,9.99999e-01
1.632636143e+00,0.00000e+00,0.00000e+00,8.72696e-01,9.99999e-01
1.640799324e+00,9.02030e-220,1.03084e-219,8.75046e-01,9.99999e-01
1.649003321e+00,9.03772e-220,1.03011e-219,8.77356e-01,9.99999e-01
1.657248337e+00,1.50184e-169,1.70736e-169,8.79627e-01,9.99999e-01
1.665534579e+00,1.08146e-170,1.22634e-170,8.81858e-01,9.99999e-01
1.673862252e+00,2.26569e-108,2.56284e-108,8.84051e-01,9.99999e-01
1.682231563e+00,1.21397e-74,1.36985e-74,8.86205e-01,9.99999e-01
1.690642721e+00,6.76793e-41,7.61877e-41,8.88322e-01,9.99999e-01
1.699095934e+00,7.46407e-26,8.38280e-26,8.90403e-01,9.99999e-01
1.707591414e+00,7.59514e-13,8.51046e-13,8.92447e-01,9.99999e-01
1.716129371e+00,6.92431e-08,7.74137e-08,8.94455e-01,9.99999e-01
1.724710018e+00,6.51189e-05,7.26426e-05,8.96428e-01,9.99999e-01
1.733333568e+00,1.42329e-03,1.58430e-03,8.98366e-01,9.99999e-01
1.742000236e+00,2.12105e-02,2.35601e-02,9.00270e-01,9.99999e-01
1.750710237e+00,2.66546e-05,2.95460e-05,9.02140e-01,9.99999e-01
1.759463788e+00,1.96590e-103,2.17473e-103,9.03977e-01,9.99999e-01
1.768261107e+00,2.73715e-108,3.02186e-108,9.05781e-01,9.99999e-01
1.777102413e+00,1.33021e-105,1.46571e-105,9.07553e-01,9.99999e-01
1.785987925e+00,1.08678e-98,1.19519e-98,9.09294e-01,9.99999e-01
1.794917864e+00,3.39132e-94,3.72262e-94,9.11003e-01,9.99999e-01
1.803892454e+00,1.81877e-90,1.99277e-90,9.12682e-01,9.99999e-01
1.812911916e+00,6.66984e-87,7.29477e-87,9.14331e-01,9.99999e-01
1.821976476e+00,5.65031e-87,6.16880e-87,9.15950e-01,9.99999e-01
1.831086358e+00,1.42020e-69,1.54784e-69,9.17539e-01,9.99999e-01
1.840241790e+00,3.71666e-59,4.04380e-59,9.19100e-01,9.99999e-01
1.849442999e+00,5.53267e-41,6.00963e-41,9.20633e-01,9.99999e-01
1.858690214e+00,1.23176e-38,1.33577e-38,9.22138e-01,9.99999e-01
1.867983665e+00,3.73952e-39,4.04878e-39,9.23616e-01,9.99999e-01
1.877323583e+00,6.74507e-199,7.29143e-199,9.25067e-01,9.99999e-01
