#,Wave/freq,Total,CO2,Rayleigh,CIA
4.000000000e-01,3.98816e-06,9.99999e-01,3.98816e-06,9.99999e-01
4.020000000e-01,5.09952e-06,9.99999e-01,5.09952e-06,9.99999e-01
4.040100000e-01,6.48737e-06,9.99999e-01,6.48737e-06,9.99999e-01
4.060300500e-01,8.21379e-06,9.99999e-01,8.21379e-06,9.99999e-01
4.080602003e-01,1.03513e-05,9.99999e-01,1.03513e-05,9.99999e-01
4.101005013e-01,1.29855e-05,9.99999e-01,1.29855e-05,9.99999e-01
4.121510038e-01,1.62174e-05,9.99999e-01,1.62174e-05,9.99999e-01
4.142117588e-01,2.01649e-05,9.99999e-01,2.01649e-05,9.99999e-01
4.162828176e-01,2.49656e-05,9.99999e-01,2.49656e-05,9.99999e-01
4.183642317e-01,3.07791e-05,9.99999e-01,3.07791e-05,9.99999e-01
4.204560528e-01,3.77897e-05,9.99999e-01,3.77897e-05,9.99999e-01
4.225583331e-01,4.62095e-05,9.99999e-01,4.62095e-05,9.99999e-01
4.246711247e-01,5.62813e-05,9.99999e-01,5.62813e-05,9.99999e-01
4.267944804e-01,6.82818e-05,9.99999e-01,6.82818e-05,9.99999e-01
4.289284528e-01,8.25254e-05,9.99999e-01,8.25254e-05,9.99999e-01
4.310730950e-01,9.93677e-05,9.99999e-01,9.93677e-05,9.99999e-01
4.332284605e-01,1.19209e-04,9.99999e-01,1.19209e-04,9.99999e-01
4.353946028e-01,1.42499e-04,9.99999e-01,1.42499e-04,9.99999e-01
4.375715758e-01,1.69740e-04,9.99999e-01,1.69740e-04,9.99999e-01
4.397594337e-01,2.01491e-04,9.99999e-01,2.01491e-04,9.99999e-01
4.419582309e-01,2.38372e-04,9.99999e-01,2.38372e-04,9.99999e-01
4.441680220e-01,2.81069e-04,9.99999e-01,2.81069e-04,9.99999e-01
4.463888621e-01,3.30338e-04,9.99999e-01,3.30338e-04,9.99999e-01
4.486208064e-01,3.87005e-04,9.99999e-01,3.87005e-04,9.99999e-01
4.508639105e-01,4.51979e-04,9.99999e-01,4.51979e-04,9.99999e-01
4.531182300e-01,5.26245e-04,9.99999e-01,5.26245e-04,9.99999e-01
4.553838212e-01,6.10875e-04,9.99999e-01,6.10875e-04,9.99999e-01
4.576607403e-01,7.07030e-04,9.99999e-01,7.07030e-04,9.99999e-01
4.599490440e-01,8.15961e-04,9.99999e-01,8.15961e-04,9.99999e-01
4.622487892e-01,9.39013e-04,9.99999e-01,9.39013e-04,9.99999e-01
4.645600332e-01,1.07763e-03,9.99999e-01,1.07763e-03,9.99999e-01
4.668828333e-01,1.23335e-03,9.99999e-01,1.23335e-03,9.99999e-01
4.692172475e-01,1.40781e-03,9.99999e-01,1.40781e-03,9.99999e-01
4.715633337e-01,1.60275e-03,9.99999e-01,1.60275e-03,9.99999e-01
4.739211504e-01,1.82002e-03,9.99999e-01,1.82002e-03,9.99999e-01
4.762907561e-01,2.06157e-03,9.99999e-01,2.06157e-03,9.99999e-01
4.786722099e-01,2.32942e-03,9.99999e-01,2.32942e-03,9.99999e-01
4.810655710e-01,2.62574e-03,9.99999e-01,2.62574e-03,9.99999e-01
4.834708988e-01,2.95276e-03,9.99999e-01,2.95276e-03,9.99999e-01
4.858882533e-01,3.31282e-03,9.99999e-01,3.31282e-03,9.99999e-01
4.883176946e-01,3.70834e-03,9.99999e-01,3.70834e-03,9.99999e-01
4.907592831e-01,4.14185e-03,9.99999e-01,4.14185e-03,9.99999e-01
4.932130795e-01,4.61595e-03,9.99999e-01,4.61595e-03,9.99999e-01
4.956791449e-01,5.13331e-03,9.99999e-01,5.13331e-03,9.99999e-01
4.981575406e-01,5.69669e-03,9.99999e-01,5.69669e-03,9.99999e-01
5.006483283e-01,6.30892e-03,9.99999e-01,6.30892e-03,9.99999e-01
5.031515699e-01,6.97286e-03,9.99999e-01,6.97286e-03,9.99999e-01
5.056673278e-01,7.69146e-03,9.99999e-01,7.69146e-03,9.99999e-01
5.081956644e-01,8.46770e-03,9.99999e-01,8.46770e-03,9.99999e-01
5.107366428e-01,9.30459e-03,9.99999e-01,9.30459e-03,9.99999e-01
5.132903260e-01,1.02052e-02,9.99999e-01,1.02052e-02,9.99999e-01
5.158567776e-01,1.11725e-02,9.99999e-01,1.11725e-02,9.99999e-01
5.184360615e-01,1.22097e-02,9.99999e-01,1.22097e-02,9.99999e-01
5.210282418e-01,1.33198e-02,9.99999e-01,1.33198e-02,9.99999e-01
5.236333830e-01,1.45059e-02,9.99999e-01,1.45059e-02,9.99999e-01
5.262515499e-01,1.57709e-02,9.99999e-01,1.57709e-02,9.99999e-01
5.288828077e-01,1.71180e-02,9.99999e-01,1.71180e-02,9.99999e-01
5.315272217e-01,1.85502e-02,9.99999e-01,1.85502e-02,9.99999e-01
5.341848578e-01,2.00702e-02,9.99999e-01,2.00702e-02,9.99999e-01
5.368557821e-01,2.16811e-02,9.99999e-01,2.16811e-02,9.99999e-01
5.395400610e-01,2.33855e-02,9.99999e-01,2.33855e-02,9.99999e-01
5.422377613e-01,2.51863e-02,9.99999e-01,2.51863e-02,9.99999e-01
5.449489501e-01,2.70861e-02,9.99999e-01,2.70861e-02,9.99999e-01
5.476736949e-01,2.90873e-02,9.99999e-01,2.90873e-02,9.99999e-01
5.504120634e-01,3.11924e-02,9.99999e-01,3.11924e-02,9.99999e-01
5.531641237e-01,3.34037e-02,9.99999e-01,3.34037e-02,9.99999e-01
5.559299443e-01,3.57235e-02,9.99999e-01,3.57235e-02,9.99999e-01
5.587095940e-01,3.81537e-02,9.99999e-01,3.81537e-02,9.99999e-01
5.615031420e-01,4.06963e-02,9.99999e-01,4.06963e-02,9.99999e-01
5.643106577e-01,4.33530e-02,9.99999e-01,4.33530e-02,9.99999e-01
5.671322110e-01,4.61255e-02,9.99999e-01,4.61255e-02,9.99999e-01
5.699678720e-01,4.90153e-02,9.99999e-01,4.90153e-02,9.99999e-01
5.728177114e-01,5.20237e-02,9.99999e-01,5.20237e-02,9.99999e-01
5.756818000e-01,5.51517e-02,9.99999e-01,5.51517e-02,9.99999e-01
5.785602090e-01,5.84005e-02,9.99999e-01,5.84005e-02,9.99999e-01
5.814530100e-01,6.17708e-02,9.99999e-01,6.17708e-02,9.99999e-01
5.843602750e-01,6.52631e-02,9.99999e-01,6.52631e-02,9.99999e-01
5.872820764e-01,6.88781e-02,9.99999e-01,6.88781e-02,9.99999e-01
5.902184868e-01,7.26159e-02,9.99999e-01,7.26159e-02,9.99999e-01
5.931695792e-01,7.64767e-02,9.99999e-01,7.64767e-02,9.99999e-01
5.961354271e-01,8.04604e-02,9.99999e-01,8.04604e-02,9.99999e-01
5.991161043e-01,8.45668e-02,9.99999e-01,8.45668e-02,9.99999e-01
6.021116848e-01,8.87954e-02,9.99999e-01,8.87954e-02,9.99999e-01
6.051222432e-01,9.31456e-02,9.99999e-01,9.31456e-02,9.99999e-01
6.081478544e-01,9.76166e-02,9.99999e-01,9.76166e-02,9.99999e-01
6.111885937e-01,1.02208e-01,9.99999e-01,1.02208e-01,9.99999e-01
6.142445367e-01,1.06917e-01,9.99999e-01,1.06917e-01,9.99999e-01
6.173157594e-01,1.11745e-01,9.99999e-01,1.11745e-01,9.99999e-01
6.204023382e-01,1.16688e-01,9.99999e-01,1.16688e-01,9.99999e-01
6.235043498e-01,1.21746e-01,9.99999e-01,1.21746e-01,9.99999e-01
6.266218716e-01,1.26917e-01,9.99999e-01,1.26917e-01,9.99999e-01
6.297549810e-01,1.32199e-01,9.99999e-01,1.32199e-01,9.99999e-01
6.329037559e-01,1.37590e-01,9.99999e-01,1.37590e-01,9.99999e-01
6.360682746e-01,1.43087e-01,9.99999e-01,1.43087e-01,9.99999e-01
6.392486160e-01,1.48689e-01,9.99999e-01,1.48689e-01,9.99999e-01
6.424448591e-01,1.54394e-01,9.99999e-01,1.54394e-01,9.99999e-01
6.456570834e-01,1.60197e-01,9.99999e-01,1.60197e-01,9.99999e-01
6.488853688e-01,1.66098e-01,9.99999e-01,1.66098e-01,9.99999e-01
6.521297956e-01,1.72094e-01,9.99999e-01,1.72094e-01,9.99999e-01
6.553904446e-01,1.78181e-01,9.99999e-01,1.78181e-01,9.99999e-01
6.586673968e-01,1.84356e-01,9.99999e-01,1.84356e-01,9.99999e-01
6.619607338e-01,1.90618e-01,9.99999e-01,1.90618e-01,9.99999e-01
6.652705375e-01,1.96962e-01,9.99999e-01,1.96962e-01,9.99999e-01
6.685968902e-01,2.03385e-01,9.99999e-01,2.03385e-01,9.99999e-01
6.719398746e-01,2.09885e-01,9.99999e-01,2.09885e-01,9.99999e-01
6.752995740e-01,2.16458e-01,9.99999e-01,2.16458e-01,9.99999e-01
6.786760719e-01,2.23102e-01,9.99999e-01,2.23102e-01,9.99999e-01
6.820694522e-01,2.29811e-01,9.99999e-01,2.29811e-01,9.99999e-01
6.854797995e-01,2.36584e-01,9.99999e-01,2.36584e-01,9.99999e-01
6.889071985e-01,2.43417e-01,9.99999e-01,2.43417e-01,9.99999e-01
6.923517345e-01,2.50306e-01,9.99999e-01,2.50306e-01,9.99999e-01
6.958134932e-01,2.57249e-01,9.99999e-01,2.57249e-01,9.99999e-01
6.992925606e-01,2.64241e-01,9.99999e-01,2.64241e-01,9.99999e-01
7.027890234e-01,2.71280e-01,9.99999e-01,2.71280e-01,9.99999e-01
7.063029686e-01,2.78361e-01,9.99999e-01,2.78361e-01,9.99999e-01
7.098344834e-01,2.85482e-01,9.99999e-01,2.85482e-01,9.99999e-01
7.133836558e-01,2.92640e-01,9.99999e-01,2.92640e-01,9.99999e-01
7.169505741e-01,2.99829e-01,9.99999e-01,2.99829e-01,9.99999e-01
7.205353270e-01,3.07049e-01,9.99999e-01,3.07049e-01,9.99999e-01
7.241380036e-01,3.14294e-01,9.99999e-01,3.14294e-01,9.99999e-01
7.277586936e-01,3.21562e-01,9.99999e-01,3.21562e-01,9.99999e-01
7.313974871e-01,3.28850e-01,9.99999e-01,3.28850e-01,9.99999e-01
7.350544745e-01,3.36154e-01,9.99999e-01,3.36154e-01,9.99999e-01
7.387297469e-01,3.43471e-01,9.99999e-01,3.43471e-01,9.99999e-01
7.424233956e-01,3.50798e-01,9.99999e-01,3.50798e-01,9.99999e-01
7.461355126e-01,3.58133e-01,9.99999e-01,3.58133e-01,9.99999e-01
7.498661902e-01,3.65471e-01,9.99999e-01,3.65471e-01,9.99999e-01
7.536155211e-01,3.72810e-01,9.99999e-01,3.72810e-01,9.99999e-01
7.573835987e-01,3.80147e-01,9.99999e-01,3.80147e-01,9.99999e-01
7.611705167e-01,3.87479e-01,9.99999e-01,3.87479e-01,9.99999e-01
7.649763693e-01,3.94804e-01,9.99999e-01,3.94804e-01,9.99999e-01
7.688012511e-01,4.02118e-01,9.99999e-01,4.02118e-01,9.99999e-01
7.726452574e-01,4.09420e-01,9.99999e-01,4.09420e-01,9.99999e-01
7.765084837e-01,4.16706e-01,9.99999e-01,4.16706e-01,9.99999e-01
7.803910261e-01,4.06938e-01,9.59818e-01,4.23974e-01,9.99999e-01
7.842929812e-01,3.60231e-01,8.35373e-01,4.31221e-01,9.99999e-01
7.882144461e-01,3.61544e-01,8.24603e-01,4.38445e-01,9.99999e-01
7.921555184e-01,3.97977e-01,8.93036e-01,4.45644e-01,9.99999e-01
7.961162960e-01,4.19848e-01,9.27192e-01,4.52816e-01,9.99999e-01
8.000968774e-01,4.41477e-01,9.59819e-01,4.59958e-01,9.99999e-01
8.040973618e-01,4.57266e-01,9.79012e-01,4.67068e-01,9.99999e-01
8.081178486e-01,4.69544e-01,9.90295e-01,4.74145e-01,9.99999e-01
8.121584379e-01,4.79744e-01,9.97004e-01,4.81185e-01,9.99999e-01
8.162192301e-01,4.87865e-01,9.99337e-01,4.88189e-01,9.99999e-01
8.203003262e-01,4.95148e-01,9.99990e-01,4.95152e-01,9.99999e-01
8.244018279e-01,5.02075e-01,9.99999e-01,5.02075e-01,9.99999e-01
8.285238370e-01,5.08954e-01,9.99999e-01,5.08954e-01,9.99999e-01
8.326664562e-01,5.15790e-01,9.99999e-01,5.15790e-01,9.99999e-01
8.368297885e-01,5.22579e-01,9.99999e-01,5.22579e-01,9.99999e-01
8.410139374e-01,5.29321e-01,9.99999e-01,5.29321e-01,9.99999e-01
8.452190071e-01,5.36014e-01,9.99999e-01,5.36014e-01,9.99999e-01
8.494451021e-01,5.42658e-01,9.99999e-01,5.42658e-01,9.99999e-01
8.536923276e-01,5.49250e-01,9.99999e-01,5.49250e-01,9.99999e-01
8.579607893e-01,5.55789e-01,9.99999e-01,5.55789e-01,9.99999e-01
8.622505932e-01,5.62275e-01,9.99999e-01,5.62275e-01,9.99999e-01
8.665618462e-01,5.20995e-01,9.16105e-01,5.68706e-01,9.99999e-01
8.708946554e-01,3.64550e-01,6.33910e-01,5.75081e-01,9.99999e-01
8.752491287e-01,4.02326e-01,6.91994e-01,5.81400e-01,9.99999e-01
8.796253743e-01,4.79776e-01,8.16415e-01,5.87662e-01,9.99999e-01
8.840235012e-01,5.34466e-01,8.99978e-01,5.93865e-01,9.99999e-01
8.884436187e-01,5.75621e-01,9.59353e-01,6.00009e-01,9.99999e-01
8.928858368e-01,5.95985e-01,9.83321e-01,6.06094e-01,9.99999e-01
8.973502660e-01,6.09630e-01,9.95934e-01,6.12118e-01,9.99999e-01
9.018370173e-01,6.17805e-01,9.99551e-01,6.18081e-01,9.99999e-01
9.063462024e-01,6.16757e-01,9.88417e-01,6.23983e-01,9.99999e-01
9.108779334e-01,6.13319e-01,9.73794e-01,6.29824e-01,9.99999e-01
9.154323231e-01,6.31668e-01,9.93811e-01,6.35601e-01,9.99999e-01
9.200094847e-01,5.86113e-01,9.13920e-01,6.41316e-01,9.99999e-01
9.246095321e-01,5.68121e-01,8.78126e-01,6.46969e-01,9.99999e-01
9.292325798e-01,5.89244e-01,9.02976e-01,6.52557e-01,9.99999e-01
9.338787427e-01,5.96409e-01,9.06281e-01,6.58083e-01,9.99999e-01
9.385481364e-01,6.17211e-01,9.30173e-01,6.63544e-01,9.99999e-01
9.432408771e-01,6.39964e-01,9.56680e-01,6.68942e-01,9.99999e-01
9.479570815e-01,6.59116e-01,9.77517e-01,6.74275e-01,9.99999e-01
9.526968669e-01,6.72143e-01,9.89107e-01,6.79545e-01,9.99999e-01
9.574603512e-01,6.81553e-01,9.95329e-01,6.84750e-01,9.99999e-01
9.622476530e-01,6.88886e-01,9.98541e-01,6.89892e-01,9.99999e-01
9.670588912e-01,6.94666e-01,9.99563e-01,6.94969e-01,9.99999e-01
9.718941857e-01,6.99961e-01,9.99968e-01,6.99982e-01,9.99999e-01
9.767536566e-01,7.04931e-01,9.99999e-01,7.04931e-01,9.99999e-01
9.816374249e-01,7.09817e-01,9.99999e-01,7.09817e-01,9.99999e-01
9.865456120e-01,7.14639e-01,9.99999e-01,7.14639e-01,9.99999e-01
9.914783401e-01,7.19397e-01,9.99999e-01,7.19397e-01,9.99999e-01
9.964357318e-01,7.24092e-01,9.99999e-01,7.24092e-01,9.99999e-01
1.001417910e+00,7.28724e-01,9.99999e-01,7.28724e-01,9.99999e-01
1.006425000e+00,7.33294e-01,9.99999e-01,7.33294e-01,9.99999e-01
1.011457125e+00,7.37801e-01,9.99999e-01,7.37801e-01,9.99999e-01
1.016514411e+00,7.42246e-01,9.99999e-01,7.42246e-01,9.99999e-01
1.021596983e+00,7.46581e-01,9.99935e-01,7.46629e-01,9.99999e-01
1.026704968e+00,7.47540e-01,9.95458e-01,7.50950e-01,9.99999e-01
1.031838492e+00,7.16334e-01,9.48521e-01,7.55211e-01,9.99999e-01
1.036997685e+00,9.75703e-02,1.28482e-01,7.59410e-01,9.99999e-01
1.042182673e+00,6.26113e-02,8.20002e-02,7.63550e-01,9.99999e-01
1.047393587e+00,8.13301e-02,1.05950e-01,7.67630e-01,9.99999e-01
1.052630555e+00,1.25387e-03,1.62492e-03,7.71650e-01,9.99999e-01
1.057893707e+00,3.52180e-03,4.54067e-03,7.75611e-01,9.99999e-01
1.063183176e+00,1.43267e-02,1.83790e-02,7.79514e-01,9.99999e-01
1.068499092e+00,4.69436e-02,5.99260e-02,7.83358e-01,9.99999e-01
1.073841587e+00,1.32717e-01,1.68605e-01,7.87145e-01,9.99999e-01
1.079210795e+00,2.56088e-01,3.23803e-01,7.90876e-01,9.99999e-01
1.084606849e+00,4.26359e-01,5.36604e-01,7.94549e-01,9.99999e-01
1.090029883e+00,5.77476e-01,7.23502e-01,7.98167e-01,9.99999e-01
1.095480033e+00,6.83567e-01,8.52616e-01,8.01729e-01,9.99999e-01
1.100957433e+00,7.45660e-01,9.26013e-01,8.05236e-01,9.99999e-01
1.106462220e+00,7.83400e-01,9.68727e-01,8.08689e-01,9.99999e-01
1.111994531e+00,8.02580e-01,9.88292e-01,8.12088e-01,9.99999e-01
1.117554504e+00,8.13098e-01,9.97135e-01,8.15433e-01,9.99999e-01
1.123142276e+00,8.18573e-01,9.99811e-01,8.18726e-01,9.99999e-01
1.128757988e+00,8.21967e-01,9.99999e-01,8.21967e-01,9.99999e-01
1.134401778e+00,8.25157e-01,9.99999e-01,8.25157e-01,9.99999e-01
1.140073787e+00,8.28295e-01,9.99999e-01,8.28295e-01,9.99999e-01
1.145774156e+00,8.31383e-01,9.99999e-01,8.31383e-01,9.99999e-01
1.151503026e+00,8.34421e-01,9.99999e-01,8.34421e-01,9.99999e-01
1.157260541e+00,8.37410e-01,9.99999e-01,8.37410e-01,9.99999e-01
1.163046844e+00,8.40350e-01,9.99999e-01,8.40350e-01,9.99999e-01
1.168862078e+00,8.43242e-01,9.99999e-01,8.43242e-01,9.99999e-01
1.174706389e+00,8.46087e-01,9.99999e-01,8.46087e-01,9.99999e-01
1.180579921e+00,8.48884e-01,9.99999e-01,8.48884e-01,9.99999e-01
1.186482820e+00,8.51628e-01,9.99990e-01,8.51636e-01,9.99999e-01
1.192415234e+00,8.40593e-01,9.83906e-01,8.54342e-01,9.99999e-01
1.198377311e+00,4.76608e-01,5.56133e-01,8.57002e-01,9.99999e-01
1.204369197e+00,4.96336e-13,5.77390e-13,8.59619e-01,9.99999e-01
1.210391043e+00,1.44256e-48,1.67313e-48,8.62191e-01,9.99999e-01
1.216442998e+00,3.26106e-42,3.77123e-42,8.64720e-01,9.99999e-01
1.222525213e+00,1.33865e-41,1.54364e-41,8.67206e-01,9.99999e-01
1.228637839e+00,3.18057e-32,3.65729e-32,8.69650e-01,9.99999e-01
1.234781029e+00,1.11404e-20,1.27749e-20,8.72052e-01,9.99999e-01
1.240954934e+00,6.32362e-14,7.23183e-14,8.74414e-01,9.99999e-01
1.247159708e+00,1.56781e-07,1.78824e-07,8.76735e-01,9.99999e-01
1.253395507e+00,6.39623e-05,7.27657e-05,8.79016e-01,9.99999e-01
1.259662485e+00,3.71160e-03,4.21171e-03,8.81258e-01,9.99999e-01
1.265960797e+00,3.78896e-02,4.28876e-02,8.83461e-01,9.99999e-01
1.272290601e+00,2.29441e-01,2.59073e-01,8.85626e-01,9.99999e-01
1.278652054e+00,1.94572e-01,2.19173e-01,8.87753e-01,9.99999e-01
1.285045314e+00,2.81073e-03,3.15868e-03,8.89843e-01,9.99999e-01
1.291470541e+00,2.36207e-06,2.64836e-06,8.91897e-01,9.99999e-01
1.297927893e+00,4.44020e-03,4.96714e-03,8.93915e-01,9.99999e-01
1.304417533e+00,7.62346e-02,8.50929e-02,8.95897e-01,9.99999e-01
1.310939621e+00,1.78436e-02,1.98737e-02,8.97844e-01,9.99999e-01
1.317494319e+00,3.97933e-17,4.42266e-17,8.99757e-01,9.99999e-01
1.324081790e+00,1.01646e-11,1.12734e-11,9.01637e-01,9.99999e-01
1.330702199e+00,6.14072e-07,6.79672e-07,9.03483e-01,9.99999e-01
1.337355710e+00,1.05374e-06,1.16397e-06,9.05296e-01,9.99999e-01
1.344042489e+00,3.36238e-07,3.70682e-07,9.07077e-01,9.99999e-01
1.350762701e+00,3.68495e-07,4.05463e-07,9.08826e-01,9.99999e-01
1.357516515e+00,8.16040e-05,8.96212e-05,9.10544e-01,9.99999e-01
1.364304097e+00,1.90300e-03,2.08610e-03,9.12231e-01,9.99999e-01
1.371125618e+00,3.72006e-02,4.07058e-02,9.13887e-01,9.99999e-01
1.377981246e+00,6.44524e-02,7.04001e-02,9.15514e-01,9.99999e-01
1.384871152e+00,1.95858e-01,2.13559e-01,9.17112e-01,9.99999e-01
1.391795508e+00,2.20670e-01,2.40203e-01,9.18681e-01,9.99999e-01
1.398754485e+00,3.80743e-01,4.13752e-01,9.20221e-01,9.99999e-01
1.405748258e+00,4.81901e-01,5.22820e-01,9.21733e-01,9.99999e-01
1.412776999e+00,6.12681e-01,6.63635e-01,9.23218e-01,9.99999e-01
1.419840884e+00,5.47940e-01,5.92574e-01,9.24676e-01,9.99999e-01
1.426940089e+00,4.40706e-02,4.75869e-02,9.26108e-01,9.99999e-01
1.434074789e+00,0.00000e+00,0.00000e+00,9.27513e-01,9.99999e-01
1.441245163e+00,0.00000e+00,0.00000e+00,9.28893e-01,9.99999e-01
1.448451389e+00,0.00000e+00,0.00000e+00,9.30247e-01,9.99999e-01
1.455693646e+00,0.00000e+00,0.00000e+00,9.31577e-01,9.99999e-01
1.462972114e+00,2.97752e-190,3.19174e-190,9.32882e-01,9.99999e-01
1.470286975e+00,1.31199e-79,1.40446e-79,9.34163e-01,9.99999e-01
1.477638409e+00,1.91710e-50,2.04945e-50,9.35420e-01,9.99999e-01
1.485026601e+00,1.48661e-28,1.58715e-28,9.36655e-01,9.99999e-01
1.492451734e+00,2.46436e-24,2.62762e-24,9.37866e-01,9.99999e-01
1.499913993e+00,3.31427e-11,3.52937e-11,9.39055e-01,9.99999e-01
1.507413563e+00,5.32931e-10,5.66813e-10,9.40222e-01,9.99999e-01
1.514950631e+00,2.11024e-11,2.24167e-11,9.41368e-01,9.99999e-01
1.522525384e+00,3.54315e-36,3.75934e-36,9.42492e-01,9.99999e-01
1.530138011e+00,7.17128e-85,7.59994e-85,9.43595e-01,9.99999e-01
1.537788701e+00,4.57181e-63,4.83954e-63,9.44678e-01,9.99999e-01
1.545477645e+00,3.50933e-14,3.71066e-14,9.45740e-01,9.99999e-01
1.553205033e+00,4.43312e-10,4.68230e-10,9.46783e-01,9.99999e-01
1.560971058e+00,1.35949e-10,1.43435e-10,9.47806e-01,9.99999e-01
1.568775913e+00,1.85953e-213,1.95985e-213,9.48810e-01,9.99999e-01
1.576619793e+00,0.00000e+00,0.00000e+00,9.49796e-01,9.99999e-01
1.584502892e+00,7.34366e-273,7.72397e-273,9.50762e-01,9.99999e-01
1.592425406e+00,2.54282e-190,2.67184e-190,9.51711e-01,9.99999e-01
1.600387533e+00,2.05141e-306,2.15339e-306,9.52642e-01,9.99999e-01
1.608389471e+00,0.00000e+00,0.00000e+00,9.53555e-01,9.99999e-01
1.616431418e+00,0.00000e+00,0.00000e+00,9.54451e-01,9.99999e-01
1.624513575e+00,1.28867e-241,1.34893e-241,9.55331e-01,9.99999e-01
1.632636143e+00,1.34789e-179,1.40964e-179,9.56193e-01,9.99999e-01
1.640799324e+00,7.82117e-74,8.17224e-74,9.57040e-01,9.99999e-01
1.649003321e+00,7.86225e-74,8.20804e-74,9.57870e-01,9.99999e-01
1.657248337e+00,2.73433e-57,2.85217e-57,9.58685e-01,9.99999e-01
1.665534579e+00,1.14381e-57,1.19211e-57,9.59484e-01,9.99999e-01
1.673862252e+00,3.96638e-37,4.13049e-37,9.60268e-01,9.99999e-01
1.682231563e+00,4.89324e-26,5.09162e-26,9.61038e-01,9.99999e-01
1.690642721e+00,5.99817e-15,6.23644e-15,9.61792e-01,9.99999e-01
1.699095934e+00,1.08854e-09,1.13091e-09,9.62533e-01,9.99999e-01
1.707591414e+00,1.96341e-05,2.03829e-05,9.63259e-01,9.99999e-01
1.716129371e+00,2.14974e-03,2.23009e-03,9.63971e-01,9.99999e-01
1.724710018e+00,3.25881e-02,3.37816e-02,9.64670e-01,9.99999e-01
1.733333568e+00,1.05759e-01,1.09554e-01,9.65356e-01,9.99999e-01
1.742000236e+00,2.58437e-01,2.67525e-01,9.66029e-01,9.99999e-01
1.750710237e+00,5.11340e-03,5.28960e-03,9.66688e-01,9.99999e-01
1.759463788e+00,1.88371e-35,1.94732e-35,9.67335e-01,9.99999e-01
1.768261107e+00,3.80640e-37,3.93235e-37,9.67970e-01,9.99999e-01
1.777102413e+00,6.55748e-36,6.77011e-36,9.68593e-01,9.99999e-01
1.785987925e+00,5.86497e-34,6.05132e-34,9.69203e-01,9.99999e-01
1.794917864e+00,2.07662e-32,2.14127e-32,9.69802e-01,9.99999e-01
1.803892454e+00,2.78135e-31,2.86621e-31,9.70390e-01,9.99999e-01
1.812911916e+00,5.21719e-30,5.37319e-30,9.70966e-01,9.99999e-01
1.821976476e+00,3.99120e-30,4.10815e-30,9.71531e-01,9.99999e-01
1.831086358e+00,2.11743e-24,2.17823e-24,9.72086e-01,9.99999e-01
1.840241790e+00,8.87554e-21,9.12529e-21,9.72630e-01,9.99999e-01
1.849442999e+00,1.55709e-14,1.60003e-14,9.73163e-01,9.99999e-01
1.858690214e+00,1.60639e-13,1.64980e-13,9.73686e-01,9.99999e-01
1.867983665e+00,2.76108e-14,2.83421e-14,9.74199e-01,9.99999e-01
1.877323583e+00,5.98748e-67,6.14288e-67,9.74702e-01,9.99999e-01
