#,Wave/freq,Total,CO2,Rayleigh,CIA
4.000000000e-01,1.88523e-12,9.99999e-01,1.88523e-12,9.99999e-01
4.020000000e-01,3.21517e-12,9.99999e-01,3.21517e-12,9.99999e-01
4.040100000e-01,5.42269e-12,9.99999e-01,5.42269e-12,9.99999e-01
4.060300500e-01,9.05194e-12,9.99999e-01,9.05194e-12,9.99999e-01
4.080602003e-01,1.49580e-11,9.99999e-01,1.49580e-11,9.99999e-01
4.101005013e-01,2.44735e-11,9.99999e-01,2.44735e-11,9.99999e-01
4.121510038e-01,3.96548e-11,9.99999e-01,3.96548e-11,9.99999e-01
4.142117588e-01,6.36437e-11,9.99999e-01,6.36437e-11,9.99999e-01
4.162828176e-01,1.01194e-10,9.99999e-01,1.01194e-10,9.99999e-01
4.183642317e-01,1.59433e-10,9.99999e-01,1.59433e-10,9.99999e-01
4.204560528e-01,2.48945e-10,9.99999e-01,2.48945e-10,9.99999e-01
4.225583331e-01,3.85304e-10,9.99999e-01,3.85304e-10,9.99999e-01
4.246711247e-01,5.91231e-10,9.99999e-01,5.91231e-10,9.99999e-01
4.267944804e-01,8.99576e-10,9.99999e-01,8.99576e-10,9.99999e-01
4.289284528e-01,1.35743e-09,9.99999e-01,1.35743e-09,9.99999e-01
4.310730950e-01,2.03174e-09,9.99999e-01,2.03174e-09,9.99999e-01
4.332284605e-01,3.01689e-09,9.99999e-01,3.01689e-09,9.99999e-01
4.353946028e-01,4.44488e-09,9.99999e-01,4.44488e-09,9.99999e-01
4.375715758e-01,6.49883e-09,9.99999e-01,6.49883e-09,9.99999e-01
4.397594337e-01,9.43088e-09,9.99999e-01,9.43088e-09,9.99999e-01
4.419582309e-01,1.35855e-08,9.99999e-01,1.35855e-08,9.99999e-01
4.441680220e-01,1.94297e-08,9.99999e-01,1.94297e-08,9.99999e-01
4.463888621e-01,2.75923e-08,9.99999e-01,2.75923e-08,9.99999e-01
4.486208064e-01,3.89135e-08,9.99999e-01,3.89135e-08,9.99999e-01
4.508639105e-01,5.45086e-08,9.99999e-01,5.45086e-08,9.99999e-01
4.531182300e-01,7.58468e-08,9.99999e-01,7.58468e-08,9.99999e-01
4.553838212e-01,1.04852e-07,9.99999e-01,1.04852e-07,9.99999e-01
4.576607403e-01,1.44025e-07,9.99999e-01,1.44025e-07,9.99999e-01
4.599490440e-01,1.96596e-07,9.99999e-01,1.96596e-07,9.99999e-01
4.622487892e-01,2.66713e-07,9.99999e-01,2.66713e-07,9.99999e-01
4.645600332e-01,3.59663e-07,9.99999e-01,3.59663e-07,9.99999e-01
4.668828333e-01,4.82150e-07,9.99999e-01,4.82150e-07,9.99999e-01
4.692172475e-01,6.42622e-07,9.99999e-01,6.42622e-07,9.99999e-01
4.715633337e-01,8.51655e-07,9.99999e-01,8.51655e-07,9.99999e-01
4.739211504e-01,1.12242e-06,9.99999e-01,1.12242e-06,9.99999e-01
4.762907561e-01,1.47123e-06,9.99999e-01,1.47123e-06,9.99999e-01
4.786722099e-01,1.91815e-06,9.99999e-01,1.91815e-06,9.99999e-01
4.810655710e-01,2.48777e-06,9.99999e-01,2.48777e-06,9.99999e-01
4.834708988e-01,3.21001e-06,9.99999e-01,3.21001e-06,9.99999e-01
4.858882533e-01,4.12113e-06,9.99999e-01,4.12113e-06,9.99999e-01
4.883176946e-01,5.26482e-06,9.99999e-01,5.26482e-06,9.99999e-01
4.907592831e-01,6.69344e-06,9.99999e-01,6.69344e-06,9.99999e-01
4.932130795e-01,8.46946e-06,9.99999e-01,8.46946e-06,9.99999e-01
4.956791449e-01,1.06670e-05,9.99999e-01,1.06670e-05,9.99999e-01
4.981575406e-01,1.33737e-05,9.99999e-01,1.33737e-05,9.99999e-01
5.006483283e-01,1.66924e-05,9.99999e-01,1.66924e-05,9.99999e-01
5.031515699e-01,2.07437e-05,9.99999e-01,2.07437e-05,9.99999e-01
5.056673278e-01,2.56679e-05,9.99999e-01,2.56679e-05,9.99999e-01
5.081956644e-01,3.16276e-05,9.99999e-01,3.16276e-05,9.99999e-01
5.107366428e-01,3.88106e-05,9.99999e-01,3.88106e-05,9.99999e-01
5.132903260e-01,4.74329e-05,9.99999e-01,4.74329e-05,9.99999e-01
5.158567776e-01,5.77415e-05,9.99999e-01,5.77415e-05,9.99999e-01
5.184360615e-01,7.00179e-05,9.99999e-01,7.00179e-05,9.99999e-01
5.210282418e-01,8.45818e-05,9.99999e-01,8.45818e-05,9.99999e-01
5.236333830e-01,1.01794e-04,9.99999e-01,1.01794e-04,9.99999e-01
5.262515499e-01,1.22062e-04,9.99999e-01,1.22062e-04,9.99999e-01
5.288828077e-01,1.45841e-04,9.99999e-01,1.45841e-04,9.99999e-01
5.315272217e-01,1.73641e-04,9.99999e-01,1.73641e-04,9.99999e-01
5.341848578e-01,2.06029e-04,9.99999e-01,2.06029e-04,9.99999e-01
5.368557821e-01,2.43634e-04,9.99999e-01,2.43634e-04,9.99999e-01
5.395400610e-01,2.87150e-04,9.99999e-01,2.87150e-04,9.99999e-01
5.422377613e-01,3.37342e-04,9.99999e-01,3.37342e-04,9.99999e-01
5.449489501e-01,3.95048e-04,9.99999e-01,3.95048e-04,9.99999e-01
5.476736949e-01,4.61184e-04,9.99999e-01,4.61184e-04,9.99999e-01
5.504120634e-01,5.36748e-04,9.99999e-01,5.36748e-04,9.99999e-01
5.531641237e-01,6.22825e-04,9.99999e-01,6.22825e-04,9.99999e-01
5.559299443e-01,7.20585e-04,9.99999e-01,7.20585e-04,9.99999e-01
5.587095940e-01,8.31292e-04,9.99999e-01,8.31292e-04,9.99999e-01
5.615031420e-01,9.56304e-04,9.99999e-01,9.56304e-04,9.99999e-01
5.643106577e-01,1.09708e-03,9.99999e-01,1.09708e-03,9.99999e-01
5.671322110e-01,1.25516e-03,9.99999e-01,1.25516e-03,9.99999e-01
5.699678720e-01,1.43221e-03,9.99999e-01,1.43221e-03,9.99999e-01
5.728177114e-01,1.62998e-03,9.99999e-01,1.62998e-03,9.99999e-01
5.756818000e-01,1.85033e-03,9.99999e-01,1.85033e-03,9.99999e-01
5.785602090e-01,2.09521e-03,9.99999e-01,2.09521e-03,9.99999e-01
5.814530100e-01,2.36668e-03,9.99999e-01,2.36668e-03,9.99999e-01
5.843602750e-01,2.66691e-03,9.99999e-01,2.66691e-03,9.99999e-01
5.872820764e-01,2.99813e-03,9.99999e-01,2.99813e-03,9.99999e-01
5.902184868e-01,3.36271e-03,9.99999e-01,3.36271e-03,9.99999e-01
5.931695792e-01,3.76307e-03,9.99999e-01,3.76307e-03,9.99999e-01
5.961354271e-01,4.20177e-03,9.99999e-01,4.20177e-03,9.99999e-01
5.991161043e-01,4.68139e-03,9.99999e-01,4.68139e-03,9.99999e-01
6.021116848e-01,5.20464e-03,9.99999e-01,5.20464e-03,9.99999e-01
6.051222432e-01,5.77428e-03,9.99999e-01,5.77428e-03,9.99999e-01
6.081478544e-01,6.39313e-03,9.99999e-01,6.39313e-03,9.99999e-01
6.111885937e-01,7.06409e-03,9.99999e-01,7.06409e-03,9.99999e-01
6.142445367e-01,7.79010e-03,9.99999e-01,7.79010e-03,9.99999e-01
6.173157594e-01,8.57413e-03,9.99999e-01,8.57413e-03,9.99999e-01
6.204023382e-01,9.41921e-03,9.99999e-01,9.41921e-03,9.99999e-01
6.235043498e-01,1.03284e-02,9.99999e-01,1.03284e-02,9.99999e-01
6.266218716e-01,1.13047e-02,9.99999e-01,1.13047e-02,9.99999e-01
6.297549810e-01,1.23513e-02,9.99999e-01,1.23513e-02,9.99999e-01
6.329037559e-01,1.34712e-02,9.99999e-01,1.34712e-02,9.99999e-01
6.360682746e-01,1.46675e-02,9.99999e-01,1.46675e-02,9.99999e-01
6.392486160e-01,1.59432e-02,9.99999e-01,1.59432e-02,9.99999e-01
6.424448591e-01,1.73013e-02,9.99999e-01,1.73013e-02,9.99999e-01
6.456570834e-01,1.87448e-02,9.99999e-01,1.87448e-02,9.99999e-01
6.488853688e-01,2.02766e-02,9.99999e-01,2.02766e-02,9.99999e-01
6.521297956e-01,2.18996e-02,9.99999e-01,2.18996e-02,9.99999e-01
6.553904446e-01,2.36166e-02,9.99999e-01,2.36166e-02,9.99999e-01
6.586673968e-01,2.54302e-02,9.99999e-01,2.54302e-02,9.99999e-01
6.619607338e-01,2.73431e-02,9.99999e-01,2.73431e-02,9.99999e-01
6.652705375e-01,2.93579e-02,9.99999e-01,2.93579e-02,9.99999e-01
6.685968902e-01,3.14768e-02,9.99999e-01,3.14768e-02,9.99999e-01
6.719398746e-01,3.37023e-02,9.99999e-01,3.37023e-02,9.99999e-01
6.752995740e-01,3.60364e-02,9.99999e-01,3.60364e-02,9.99999e-01
6.786760719e-01,3.84813e-02,9.99999e-01,3.84813e-02,9.99999e-01
6.820694522e-01,4.10388e-02,9.99999e-01,4.10388e-02,9.99999e-01
6.854797995e-01,4.37106e-02,9.99999e-01,4.37106e-02,9.99999e-01
6.889071985e-01,4.64985e-02,9.99999e-01,4.64985e-02,9.99999e-01
6.923517345e-01,4.94038e-02,9.99999e-01,4.94038e-02,9.99999e-01
6.958134932e-01,5.24278e-02,9.99999e-01,5.24278e-02,9.99999e-01
6.992925606e-01,5.55717e-02,9.99999e-01,5.55717e-02,9.99999e-01
7.027890234e-01,5.88363e-02,9.99999e-01,5.88363e-02,9.99999e-01
7.063029686e-01,6.22226e-02,9.99999e-01,6.22226e-02,9.99999e-01
7.098344834e-01,6.57311e-02,9.99999e-01,6.57311e-02,9.99999e-01
7.133836558e-01,6.93622e-02,9.99999e-01,6.93622e-02,9.99999e-01
7.169505741e-01,7.31162e-02,9.99999e-01,7.31162e-02,9.99999e-01
7.205353270e-01,7.69931e-02,9.99999e-01,7.69931e-02,9.99999e-01
7.241380036e-01,8.09930e-02,9.99999e-01,8.09930e-02,9.99999e-01
7.277586936e-01,8.51154e-02,9.99999e-01,8.51154e-02,9.99999e-01
7.313974871e-01,8.93600e-02,9.99999e-01,8.93600e-02,9.99999e-01
7.350544745e-01,9.37261e-02,9.99999e-01,9.37261e-02,9.99999e-01
7.387297469e-01,9.82130e-02,9.99999e-01,9.82130e-02,9.99999e-01
7.424233956e-01,1.02820e-01,9.99999e-01,1.02820e-01,9.99999e-01
7.461355126e-01,1.07545e-01,9.99999e-01,1.07545e-01,9.99999e-01
7.498661902e-01,1.12388e-01,9.99999e-01,1.12388e-01,9.99999e-01
7.536155211e-01,1.17346e-01,9.99999e-01,1.17346e-01,9.99999e-01
7.573835987e-01,1.22419e-01,9.99999e-01,1.22419e-01,9.99999e-01
7.611705167e-01,1.27605e-01,9.99999e-01,1.27605e-01,9.99999e-01
7.649763693e-01,1.32901e-01,9.99999e-01,1.32901e-01,9.99999e-01
7.688012511e-01,1.38306e-01,9.99999e-01,1.38306e-01,9.99999e-01
7.726452574e-01,1.43817e-01,9.99999e-01,1.43817e-01,9.99999e-01
7.765084837e-01,1.49433e-01,9.99999e-01,1.49433e-01,9.99999e-01
7.803910261e-01,1.44244e-01,9.29706e-01,1.55150e-01,9.99999e-01
7.842929812e-01,1.10069e-01,6.83797e-01,1.60967e-01,9.99999e-01
7.882144461e-01,1.12081e-01,6.71625e-01,1.66881e-01,9.99999e-01
7.921555184e-01,1.35748e-01,7.85177e-01,1.72888e-01,9.99999e-01
7.961162960e-01,1.51700e-01,8.47548e-01,1.78987e-01,9.99999e-01
8.000968774e-01,1.69313e-01,9.14344e-01,1.85174e-01,9.99999e-01
8.040973618e-01,1.82688e-01,9.54252e-01,1.91447e-01,9.99999e-01
8.081178486e-01,1.93624e-01,9.78882e-01,1.97801e-01,9.99999e-01
8.121584379e-01,2.02874e-01,9.93334e-01,2.04235e-01,9.99999e-01
8.162192301e-01,2.10433e-01,9.98522e-01,2.10745e-01,9.99999e-01
8.203003262e-01,2.17322e-01,9.99973e-01,2.17327e-01,9.99999e-01
8.244018279e-01,2.23979e-01,9.99999e-01,2.23979e-01,9.99999e-01
8.285238370e-01,2.30698e-01,9.99999e-01,2.30698e-01,9.99999e-01
8.326664562e-01,2.37479e-01,9.99999e-01,2.37479e-01,9.99999e-01
8.368297885e-01,2.44319e-01,9.99999e-01,2.44319e-01,9.99999e-01
8.410139374e-01,2.51216e-01,9.99999e-01,2.51216e-01,9.99999e-01
8.452190071e-01,2.58165e-01,9.99999e-01,2.58165e-01,9.99999e-01
8.494451021e-01,2.65163e-01,9.99999e-01,2.65163e-01,9.99999e-01
8.536923276e-01,2.72208e-01,9.99999e-01,2.72208e-01,9.99999e-01
8.579607893e-01,2.79295e-01,9.99999e-01,2.79295e-01,9.99999e-01
8.622505932e-01,2.86421e-01,9.99999e-01,2.86421e-01,9.99999e-01
8.665618462e-01,2.60185e-01,8.86240e-01,2.93582e-01,9.99999e-01
8.708946554e-01,1.18689e-01,3.94607e-01,3.00776e-01,9.99999e-01
8.752491287e-01,1.41814e-01,4.60436e-01,3.07999e-01,9.99999e-01
8.796253743e-01,2.03742e-01,6.46292e-01,3.15248e-01,9.99999e-01
8.840235012e-01,2.56402e-01,7.95000e-01,3.22519e-01,9.99999e-01
8.884436187e-01,3.00930e-01,9.12437e-01,3.29809e-01,9.99999e-01
8.928858368e-01,3.24875e-01,9.63691e-01,3.37115e-01,9.99999e-01
8.973502660e-01,3.41316e-01,9.90950e-01,3.44433e-01,9.99999e-01
9.018370173e-01,3.51408e-01,9.98994e-01,3.51762e-01,9.99999e-01
9.063462024e-01,3.50615e-01,9.76381e-01,3.59097e-01,9.99999e-01
9.108779334e-01,3.45757e-01,9.43570e-01,3.66435e-01,9.99999e-01
9.154323231e-01,3.68621e-01,9.86213e-01,3.73774e-01,9.99999e-01
9.200094847e-01,3.20423e-01,8.40760e-01,3.81111e-01,9.99999e-01
9.246095321e-01,2.92895e-01,7.54025e-01,3.88442e-01,9.99999e-01
9.292325798e-01,3.19401e-01,8.07044e-01,3.95766e-01,9.99999e-01
9.338787427e-01,3.25882e-01,8.08481e-01,4.03079e-01,9.99999e-01
9.385481364e-01,3.50667e-01,8.54498e-01,4.10378e-01,9.99999e-01
9.432408771e-01,3.78927e-01,9.07257e-01,4.17662e-01,9.99999e-01
9.479570815e-01,4.04328e-01,9.51523e-01,4.24927e-01,9.99999e-01
9.526968669e-01,4.21916e-01,9.76268e-01,4.32171e-01,9.99999e-01
9.574603512e-01,4.34895e-01,9.89763e-01,4.39393e-01,9.99999e-01
9.622476530e-01,4.45155e-01,9.96790e-01,4.46588e-01,9.99999e-01
9.670588912e-01,4.53317e-01,9.99032e-01,4.53756e-01,9.99999e-01
9.718941857e-01,4.60861e-01,9.99928e-01,4.60894e-01,9.99999e-01
9.767536566e-01,4.68000e-01,9.99999e-01,4.68000e-01,9.99999e-01
9.816374249e-01,4.75072e-01,9.99999e-01,4.75072e-01,9.99999e-01
9.865456120e-01,4.82108e-01,9.99999e-01,4.82108e-01,9.99999e-01
9.914783401e-01,4.89106e-01,9.99999e-01,4.89106e-01,9.99999e-01
9.964357318e-01,4.96064e-01,9.99999e-01,4.96064e-01,9.99999e-01
1.001417910e+00,5.02981e-01,9.99999e-01,5.02981e-01,9.99999e-01
1.006425000e+00,5.09855e-01,9.99999e-01,5.09855e-01,9.99999e-01
1.011457125e+00,5.16684e-01,9.99999e-01,5.16684e-01,9.99999e-01
1.016514411e+00,5.23468e-01,9.99999e-01,5.23468e-01,9.99999e-01
1.021596983e+00,5.30147e-01,9.99892e-01,5.30203e-01,9.99999e-01
1.026704968e+00,5.31890e-01,9.90687e-01,5.36890e-01,9.99999e-01
1.031838492e+00,5.01919e-01,9.23447e-01,5.43527e-01,9.99999e-01
1.036997685e+00,3.54418e-02,6.44265e-02,5.50112e-01,9.99999e-01
1.042182673e+00,4.10154e-03,7.36832e-03,5.56644e-01,9.99999e-01
1.047393587e+00,9.79099e-03,1.73869e-02,5.63123e-01,9.99999e-01
1.052630555e+00,3.91152e-06,6.86778e-06,5.69547e-01,9.99999e-01
1.057893707e+00,1.39046e-05,2.41434e-05,5.75915e-01,9.99999e-01
1.063183176e+00,2.15796e-04,3.70639e-04,5.82226e-01,9.99999e-01
1.068499092e+00,1.69882e-03,2.88679e-03,5.88480e-01,9.99999e-01
1.073841587e+00,1.38352e-02,2.32651e-02,5.94676e-01,9.99999e-01
1.079210795e+00,5.62083e-02,9.35537e-02,6.00812e-01,9.99999e-01
1.084606849e+00,1.58821e-01,2.61697e-01,6.06889e-01,9.99999e-01
1.090029883e+00,3.04304e-01,4.96495e-01,6.12905e-01,9.99999e-01
1.095480033e+00,4.37452e-01,7.06867e-01,6.18860e-01,9.99999e-01
1.100957433e+00,5.28220e-01,8.45484e-01,6.24754e-01,9.99999e-01
1.106462220e+00,5.88168e-01,9.32731e-01,6.30586e-01,9.99999e-01
1.111994531e+00,6.20128e-01,9.74499e-01,6.36356e-01,9.99999e-01
1.117554504e+00,6.37992e-01,9.93660e-01,6.42063e-01,9.99999e-01
1.123142276e+00,6.47433e-01,9.99577e-01,6.47706e-01,9.99999e-01
1.128757988e+00,6.53287e-01,9.99999e-01,6.53287e-01,9.99999e-01
1.134401778e+00,6.58804e-01,9.99999e-01,6.58804e-01,9.99999e-01
1.140073787e+00,6.64257e-01,9.99999e-01,6.64257e-01,9.99999e-01
1.145774156e+00,6.69646e-01,9.99999e-01,6.69646e-01,9.99999e-01
1.151503026e+00,6.74971e-01,9.99999e-01,6.74971e-01,9.99999e-01
1.157260541e+00,6.80233e-01,9.99999e-01,6.80233e-01,9.99999e-01
1.163046844e+00,6.85430e-01,9.99999e-01,6.85430e-01,9.99999e-01
1.168862078e+00,6.90562e-01,9.99999e-01,6.90562e-01,9.99999e-01
1.174706389e+00,6.95631e-01,9.99999e-01,6.95631e-01,9.99999e-01
1.180579921e+00,7.00636e-01,9.99999e-01,7.00636e-01,9.99999e-01
1.186482820e+00,7.05571e-01,9.99991e-01,7.05577e-01,9.99999e-01
1.192415234e+00,6.87936e-01,9.68304e-01,7.10454e-01,9.99999e-01
1.198377311e+00,3.79260e-01,5.30234e-01,7.15268e-01,9.99999e-01
1.204369197e+00,1.19829e-25,1.66425e-25,7.20018e-01,9.99999e-01
1.210391043e+00,8.88969e-103,1.22666e-102,7.24704e-01,9.99999e-01
1.216442998e+00,5.50655e-89,7.55016e-89,7.29328e-01,9.99999e-01
1.222525213e+00,1.17445e-87,1.60030e-87,7.33890e-01,9.99999e-01
1.228637839e+00,1.11203e-67,1.50603e-67,7.38388e-01,9.99999e-01
1.234781029e+00,2.18664e-51,2.94368e-51,7.42825e-01,9.99999e-01
1.240954934e+00,4.00961e-28,5.36618e-28,7.47200e-01,9.99999e-01
1.247159708e+00,4.68304e-18,6.23147e-18,7.51513e-01,9.99999e-01
1.253395507e+00,2.45841e-09,3.25287e-09,7.55766e-01,9.99999e-01
1.259662485e+00,5.90092e-06,7.76479e-06,7.59958e-01,9.99999e-01
1.265960797e+00,1.49999e-03,1.96310e-03,7.64089e-01,9.99999e-01
1.272290601e+00,3.61362e-02,4.70424e-02,7.68161e-01,9.99999e-01
1.278652054e+00,4.13132e-02,5.35024e-02,7.72174e-01,9.99999e-01
1.285045314e+00,1.02389e-04,1.31923e-04,7.76127e-01,9.99999e-01
1.291470541e+00,2.48061e-12,3.18018e-12,7.80022e-01,9.99999e-01
1.297927893e+00,1.43464e-05,1.83022e-05,7.83859e-01,9.99999e-01
1.304417533e+00,4.21020e-03,5.34534e-03,7.87639e-01,9.99999e-01
1.310939621e+00,1.13011e-03,1.42806e-03,7.91361e-01,9.99999e-01
1.317494319e+00,3.75465e-35,4.72266e-35,7.95028e-01,9.99999e-01
1.324081790e+00,3.42975e-23,4.29449e-23,7.98638e-01,9.99999e-01
1.330702199e+00,8.61453e-14,1.07387e-13,8.02193e-01,9.99999e-01
1.337355710e+00,9.76309e-13,1.21176e-12,8.05693e-01,9.99999e-01
1.344042489e+00,4.88920e-13,6.04247e-13,8.09138e-01,9.99999e-01
1.350762701e+00,4.24181e-14,5.22049e-14,8.12530e-01,9.99999e-01
1.357516515e+00,8.80232e-09,1.07889e-08,8.15869e-01,9.99999e-01
1.364304097e+00,1.96036e-06,2.39315e-06,8.19155e-01,9.99999e-01
1.371125618e+00,1.10420e-03,1.34268e-03,8.22389e-01,9.99999e-01
1.377981246e+00,2.82490e-03,3.42174e-03,8.25572e-01,9.99999e-01
1.384871152e+00,3.03543e-02,3.66287e-02,8.28703e-01,9.99999e-01
1.391795508e+00,3.89717e-02,4.68530e-02,8.31785e-01,9.99999e-01
1.398754485e+00,1.22728e-01,1.47012e-01,8.34816e-01,9.99999e-01
1.405748258e+00,2.06112e-01,2.46016e-01,8.37799e-01,9.99999e-01
1.412776999e+00,3.44204e-01,4.09409e-01,8.40733e-01,9.99999e-01
1.419840884e+00,3.25993e-01,3.86422e-01,8.43618e-01,9.99999e-01
1.426940089e+00,1.38523e-02,1.63650e-02,8.46457e-01,9.99999e-01
1.434074789e+00,0.00000e+00,0.00000e+00,8.49249e-01,9.99999e-01
1.441245163e+00,0.00000e+00,0.00000e+00,8.51994e-01,9.99999e-01
1.448451389e+00,0.00000e+00,0.00000e+00,8.54694e-01,9.99999e-01
1.455693646e+00,0.00000e+00,0.00000e+00,8.57349e-01,9.99999e-01
1.462972114e+00,0.00000e+00,0.00000e+00,8.59959e-01,9.99999e-01
1.470286975e+00,3.86948e-170,4.48622e-170,8.62526e-01,9.99999e-01
1.477638409e+00,7.59201e-107,8.77639e-107,8.65049e-01,9.99999e-01
1.485026601e+00,2.10996e-59,2.43214e-59,8.67529e-01,9.99999e-01
1.492451734e+00,1.32494e-50,1.52298e-50,8.69968e-01,9.99999e-01
1.499913993e+00,7.57747e-22,8.68612e-22,8.72365e-01,9.99999e-01
1.507413563e+00,1.34578e-20,1.53853e-20,8.74721e-01,9.99999e-01
1.514950631e+00,4.09918e-22,4.67390e-22,8.77037e-01,9.99999e-01
1.522525384e+00,6.95597e-76,7.91068e-76,8.79313e-01,9.99999e-01
1.530138011e+00,1.35975e-181,1.54246e-181,8.81549e-01,9.99999e-01
1.537788701e+00,2.92655e-134,3.31152e-134,8.83747e-01,9.99999e-01
1.545477645e+00,3.80554e-28,4.29564e-28,8.85907e-01,9.99999e-01
1.553205033e+00,1.47596e-20,1.66206e-20,8.88030e-01,9.99999e-01
1.560971058e+00,8.39235e-21,9.42838e-21,8.90115e-01,9.99999e-01
1.568775913e+00,0.00000e+00,0.00000e+00,8.92164e-01,9.99999e-01
1.576619793e+00,0.00000e+00,0.00000e+00,8.94177e-01,9.99999e-01
1.584502892e+00,0.00000e+00,0.00000e+00,8.96155e-01,9.99999e-01
1.592425406e+00,0.00000e+00,0.00000e+00,8.98098e-01,9.99999e-01
1.600387533e+00,0.00000e+00,0.00000e+00,9.00006e-01,9.99999e-01
1.608389471e+00,0.00000e+00,0.00000e+00,9.01881e-01,9.99999e-01
1.616431418e+00,0.00000e+00,0.00000e+00,9.03723e-01,9.99999e-01
1.624513575e+00,0.00000e+00,0.00000e+00,9.05532e-01,9.99999e-01
1.632636143e+00,0.00000e+00,0.00000e+00,9.07308e-01,9.99999e-01
1.640799324e+00,1.31286e-157,1.44421e-157,9.09053e-01,9.99999e-01
1.649003321e+00,1.31468e-157,1.44349e-157,9.10767e-01,9.99999e-01
1.657248337e+00,9.78763e-122,1.07267e-121,9.12450e-01,9.99999e-01
1.665534579e+00,1.49650e-122,1.63712e-122,9.14103e-01,9.99999e-01
1.673862252e+00,4.82725e-78,5.27150e-78,9.15726e-01,9.99999e-01
1.682231563e+00,5.92835e-54,6.46268e-54,9.17320e-01,9.99999e-01
1.690642721e+00,7.49010e-30,8.15129e-30,9.18885e-01,9.99999e-01
1.699095934e+00,4.81229e-19,5.22835e-19,9.20421e-01,9.99999e-01
1.707591414e+00,8.37264e-10,9.08163e-10,9.21930e-01,9.99999e-01
1.716129371e+00,4.65123e-06,5.03700e-06,9.23412e-01,9.99999e-01
1.724710018e+00,7.88215e-04,8.52246e-04,9.24866e-01,9.99999e-01
1.733333568e+00,8.49453e-03,9.17044e-03,9.26294e-01,9.99999e-01
1.742000236e+00,6.09085e-02,6.56556e-02,9.27696e-01,9.99999e-01
1.750710237e+00,2.23515e-04,2.40578e-04,9.29072e-01,9.99999e-01
1.759463788e+00,1.64540e-74,1.76844e-74,9.30423e-01,9.99999e-01
1.768261107e+00,5.50799e-78,5.91144e-78,9.31749e-01,9.99999e-01
1.777102413e+00,5.44526e-76,5.83596e-76,9.33051e-01,9.99999e-01
1.785987925e+00,3.94231e-71,4.21940e-71,9.34329e-01,9.99999e-01
1.794917864e+00,6.45220e-68,6.89643e-68,9.35584e-01,9.99999e-01
1.803892454e+00,2.94274e-65,3.14121e-65,9.36815e-01,9.99999e-01
1.812911916e+00,1.05358e-62,1.12319e-62,9.38024e-01,9.99999e-01
1.821976476e+00,9.18283e-63,9.77718e-63,9.39210e-01,9.99999e-01
1.831086358e+00,2.45907e-50,2.61499e-50,9.40374e-01,9.99999e-01
1.840241790e+00,7.14951e-43,7.59360e-43,9.41517e-01,9.99999e-01
1.849442999e+00,8.97772e-30,9.52403e-30,9.42638e-01,9.99999e-01
1.858690214e+00,4.82781e-28,5.11561e-28,9.43738e-01,9.99999e-01
1.867983665e+00,1.39059e-28,1.47181e-28,9.44819e-01,9.99999e-01
1.877323583e+00,1.08192e-142,1.14383e-142,9.45878e-01,9.99999e-01
