#,Wave/freq,Total,CO2,Rayleigh,CIA
4.000000000e-01,2.75270e-19,9.99999e-01,2.75270e-19,9.99999e-01
4.020000000e-01,6.40858e-19,9.99999e-01,6.40858e-19,9.99999e-01
4.040100000e-01,1.46597e-18,9.99999e-01,1.46597e-18,9.99999e-01
4.060300500e-01,3.29903e-18,9.99999e-01,3.29903e-18,9.99999e-01
4.080602003e-01,7.30621e-18,9.99999e-01,7.30621e-18,9.99999e-01
4.101005013e-01,1.59286e-17,9.99999e-01,1.59286e-17,9.99999e-01
4.121510038e-01,3.41960e-17,9.99999e-01,3.41960e-17,9.99999e-01
4.142117588e-01,7.23136e-17,9.99999e-01,7.23136e-17,9.99999e-01
4.162828176e-01,1.50675e-16,9.99999e-01,1.50675e-16,9.99999e-01
4.183642317e-01,3.09431e-16,9.99999e-01,3.09431e-16,9.99999e-01
4.204560528e-01,6.26489e-16,9.99999e-01,6.26489e-16,9.99999e-01
4.225583331e-01,1.25087e-15,9.99999e-01,1.25087e-15,9.99999e-01
4.246711247e-01,2.46365e-15,9.99999e-01,2.46365e-15,9.99999e-01
4.267944804e-01,4.78775e-15,9.99999e-01,4.78775e-15,9.99999e-01
4.289284528e-01,9.18299e-15,9.99999e-01,9.18299e-15,9.99999e-01
4.310730950e-01,1.73880e-14,9.99999e-01,1.73880e-14,9.99999e-01
4.332284605e-01,3.25117e-14,9.99999e-01,3.25117e-14,9.99999e-01
4.353946028e-01,6.00426e-14,9.99999e-01,6.00426e-14,9.99999e-01
4.375715758e-01,1.09551e-13,9.99999e-01,1.09551e-13,9.99999e-01
4.397594337e-01,1.97523e-13,9.99999e-01,1.97523e-13,9.99999e-01
4.419582309e-01,3.52015e-13,9.99999e-01,3.52015e-13,9.99999e-01
4.441680220e-01,6.20222e-13,9.99999e-01,6.20222e-13,9.99999e-01
4.463888621e-01,1.08062e-12,9.99999e-01,1.08062e-12,9.99999e-01
4.486208064e-01,1.86225e-12,9.99999e-01,1.86225e-12,9.99999e-01
4.508639105e-01,3.17493e-12,9.99999e-01,3.17493e-12,9.99999e-01
4.531182300e-01,5.35617e-12,9.99999e-01,5.35617e-12,9.99999e-01
4.553838212e-01,8.94308e-12,9.99999e-01,8.94308e-12,9.99999e-01
4.576607403e-01,1.47816e-11,9.99999e-01,1.47816e-11,9.99999e-01
4.599490440e-01,2.41906e-11,9.99999e-01,2.41906e-11,9.99999e-01
4.622487892e-01,3.92055e-11,9.99999e-01,3.92055e-11,9.99999e-01
4.645600332e-01,6.29367e-11,9.99999e-01,6.29367e-11,9.99999e-01
4.668828333e-01,1.00092e-10,9.99999e-01,1.00092e-10,9.99999e-01
4.692172475e-01,1.57731e-10,9.99999e-01,1.57731e-10,9.99999e-01
4.715633337e-01,2.46339e-10,9.99999e-01,2.46339e-10,9.99999e-01
4.739211504e-01,3.81350e-10,9.99999e-01,3.81350e-10,9.99999e-01
4.762907561e-01,5.85283e-10,9.99999e-01,5.85283e-10,9.99999e-01
4.786722099e-01,8.90704e-10,9.99999e-01,8.90704e-10,9.99999e-01
4.810655710e-01,1.34431e-09,9.99999e-01,1.34431e-09,9.99999e-01
4.834708988e-01,2.01249e-09,9.99999e-01,2.01249e-09,9.99999e-01
4.858882533e-01,2.98886e-09,9.99999e-01,2.98886e-09,9.99999e-01
4.883176946e-01,4.40439e-09,9.99999e-01,4.40439e-09,9.99999e-01
4.907592831e-01,6.44080e-09,9.99999e-01,6.44080e-09,9.99999e-01
4.932130795e-01,9.34831e-09,9.99999e-01,9.34831e-09,9.99999e-01
4.956791449e-01,1.34689e-08,9.99999e-01,1.34689e-08,9.99999e-01
4.981575406e-01,1.92662e-08,9.99999e-01,1.92662e-08,9.99999e-01
5.006483283e-01,2.73647e-08,9.99999e-01,2.73647e-08,9.99999e-01
5.031515699e-01,3.85989e-08,9.99999e-01,3.85989e-08,9.99999e-01
5.056673278e-01,5.40765e-08,9.99999e-01,5.40765e-08,9.99999e-01
5.081956644e-01,7.52575e-08,9.99999e-01,7.52575e-08,9.99999e-01
5.107366428e-01,1.04053e-07,9.99999e-01,1.04053e-07,9.99999e-01
5.132903260e-01,1.42949e-07,9.99999e-01,1.42949e-07,9.99999e-01
5.158567776e-01,1.95157e-07,9.99999e-01,1.95157e-07,9.99999e-01
5.184360615e-01,2.64799e-07,9.99999e-01,2.64799e-07,9.99999e-01
5.210282418e-01,3.57132e-07,9.99999e-01,3.57132e-07,9.99999e-01
5.236333830e-01,4.78825e-07,9.99999e-01,4.78825e-07,9.99999e-01
5.262515499e-01,6.38277e-07,9.99999e-01,6.38277e-07,9.99999e-01
5.288828077e-01,8.46010e-07,9.99999e-01,8.46010e-07,9.99999e-01
5.315272217e-01,1.11513e-06,9.99999e-01,1.11513e-06,9.99999e-01
5.341848578e-01,1.46186e-06,9.99999e-01,1.46186e-06,9.99999e-01
5.368557821e-01,1.90617e-06,9.99999e-01,1.90617e-06,9.99999e-01
5.395400610e-01,2.47254e-06,9.99999e-01,2.47254e-06,9.99999e-01
5.422377613e-01,3.19075e-06,9.99999e-01,3.19075e-06,9.99999e-01
5.449489501e-01,4.09689e-06,9.99999e-01,4.09689e-06,9.99999e-01
5.476736949e-01,5.23446e-06,9.99999e-01,5.23446e-06,9.99999e-01
5.504120634e-01,6.65560e-06,9.99999e-01,6.65560e-06,9.99999e-01
5.531641237e-01,8.42252e-06,9.99999e-01,8.42252e-06,9.99999e-01
5.559299443e-01,1.06091e-05,9.99999e-01,1.06091e-05,9.99999e-01
5.587095940e-01,1.33025e-05,9.99999e-01,1.33025e-05,9.99999e-01
5.615031420e-01,1.66053e-05,9.99999e-01,1.66053e-05,9.99999e-01
5.643106577e-01,2.06376e-05,9.99999e-01,2.06376e-05,9.99999e-01
5.671322110e-01,2.55391e-05,9.99999e-01,2.55391e-05,9.99999e-01
5.699678720e-01,3.14720e-05,9.99999e-01,3.14720e-05,9.99999e-01
5.728177114e-01,3.86235e-05,9.99999e-01,3.86235e-05,9.99999e-01
5.756818000e-01,4.72088e-05,9.99999e-01,4.72088e-05,9.99999e-01
5.785602090e-01,5.74740e-05,9.99999e-01,5.74740e-05,9.99999e-01
5.814530100e-01,6.96999e-05,9.99999e-01,6.96999e-05,9.99999e-01
5.843602750e-01,8.42052e-05,9.99999e-01,8.42052e-05,9.99999e-01
5.872820764e-01,1.01350e-04,9.99999e-01,1.01350e-04,9.99999e-01
5.902184868e-01,1.21540e-04,9.99999e-01,1.21540e-04,9.99999e-01
5.931695792e-01,1.45229e-04,9.99999e-01,1.45229e-04,9.99999e-01
5.961354271e-01,1.72927e-04,9.99999e-01,1.72927e-04,9.99999e-01
5.991161043e-01,2.05199e-04,9.99999e-01,2.05199e-04,9.99999e-01
6.021116848e-01,2.42672e-04,9.99999e-01,2.42672e-04,9.99999e-01
6.051222432e-01,2.86038e-04,9.99999e-01,2.86038e-04,9.99999e-01
6.081478544e-01,3.36061e-04,9.99999e-01,3.36061e-04,9.99999e-01
6.111885937e-01,3.93577e-04,9.99999e-01,3.93577e-04,9.99999e-01
6.142445367e-01,4.59501e-04,9.99999e-01,4.59501e-04,9.99999e-01
6.173157594e-01,5.34829e-04,9.99999e-01,5.34829e-04,9.99999e-01
6.204023382e-01,6.20641e-04,9.99999e-01,6.20641e-04,9.99999e-01
6.235043498e-01,7.18108e-04,9.99999e-01,7.18108e-04,9.99999e-01
6.266218716e-01,8.28491e-04,9.99999e-01,8.28491e-04,9.99999e-01
6.297549810e-01,9.53146e-04,9.99999e-01,9.53146e-04,9.99999e-01
6.329037559e-01,1.09352e-03,9.99999e-01,1.09352e-03,9.99999e-01
6.360682746e-01,1.25118e-03,9.99999e-01,1.25118e-03,9.99999e-01
6.392486160e-01,1.42776e-03,9.99999e-01,1.42776e-03,9.99999e-01
6.424448591e-01,1.62501e-03,9.99999e-01,1.62501e-03,9.99999e-01
6.456570834e-01,1.84480e-03,9.99999e-01,1.84480e-03,9.99999e-01
6.488853688e-01,2.08907e-03,9.99999e-01,2.08907e-03,9.99999e-01
6.521297956e-01,2.35989e-03,9.99999e-01,2.35989e-03,9.99999e-01
6.553904446e-01,2.65940e-03,9.99999e-01,2.65940e-03,9.99999e-01
6.586673968e-01,2.98985e-03,9.99999e-01,2.98985e-03,9.99999e-01
6.619607338e-01,3.35361e-03,9.99999e-01,3.35361e-03,9.99999e-01
6.652705375e-01,3.75309e-03,9.99999e-01,3.75309e-03,9.99999e-01
6.685968902e-01,4.19084e-03,9.99999e-01,4.19084e-03,9.99999e-01
6.719398746e-01,4.66946e-03,9.99999e-01,4.66946e-03,9.99999e-01
6.752995740e-01,5.19164e-03,9.99999e-01,5.19164e-03,9.99999e-01
6.786760719e-01,5.76013e-03,9.99999e-01,5.76013e-03,9.99999e-01
6.820694522e-01,6.37778e-03,9.99999e-01,6.37778e-03,9.99999e-01
6.854797995e-01,7.04746e-03,9.99999e-01,7.04746e-03,9.99999e-01
6.889071985e-01,7.77212e-03,9.99999e-01,7.77212e-03,9.99999e-01
6.923517345e-01,8.55473e-03,9.99999e-01,8.55473e-03,9.99999e-01
6.958134932e-01,9.39833e-03,9.99999e-01,9.39833e-03,9.99999e-01
6.992925606e-01,1.03059e-02,9.99999e-01,1.03059e-02,9.99999e-01
7.027890234e-01,1.12807e-02,9.99999e-01,1.12807e-02,9.99999e-01
7.063029686e-01,1.23255e-02,9.99999e-01,1.23255e-02,9.99999e-01
7.098344834e-01,1.34436e-02,9.99999e-01,1.34436e-02,9.99999e-01
7.133836558e-01,1.46381e-02,9.99999e-01,1.46381e-02,9.99999e-01
7.169505741e-01,1.59118e-02,9.99999e-01,1.59118e-02,9.99999e-01
7.205353270e-01,1.72679e-02,9.99999e-01,1.72679e-02,9.99999e-01
7.241380036e-01,1.87094e-02,9.99999e-01,1.87094e-02,9.99999e-01
7.277586936e-01,2.02390e-02,9.99999e-01,2.02390e-02,9.99999e-01
7.313974871e-01,2.18598e-02,9.99999e-01,2.18598e-02,9.99999e-01
7.350544745e-01,2.35745e-02,9.99999e-01,2.35745e-02,9.99999e-01
7.387297469e-01,2.53858e-02,9.99999e-01,2.53858e-02,9.99999e-01
7.424233956e-01,2.72963e-02,9.99999e-01,2.72963e-02,9.99999e-01
7.461355126e-01,2.93086e-02,9.99999e-01,2.93086e-02,9.99999e-01
7.498661902e-01,3.14250e-02,9.99999e-01,3.14250e-02,9.99999e-01
7.536155211e-01,3.36479e-02,9.99999e-01,3.36479e-02,9.99999e-01
7.573835987e-01,3.59795e-02,9.99999e-01,3.59795e-02,9.99999e-01
7.611705167e-01,3.84217e-02,9.99999e-01,3.84217e-02,9.99999e-01
7.649763693e-01,4.09764e-02,9.99999e-01,4.09764e-02,9.99999e-01
7.688012511e-01,4.36456e-02,9.99999e-01,4.36456e-02,9.99999e-01
7.726452574e-01,4.64306e-02,9.99999e-01,4.64306e-02,9.99999e-01
7.765084837e-01,4.93331e-02,9.99999e-01,4.93331e-02,9.99999e-01
7.803910261e-01,4.71549e-02,9.00688e-01,5.23543e-02,9.99999e-01
7.842929812e-01,3.10306e-02,5.59156e-01,5.54953e-02,9.99999e-01
7.882144461e-01,3.21382e-02,5.46967e-01,5.87571e-02,9.99999e-01
7.921555184e-01,4.25623e-02,6.84936e-01,6.21404e-02,9.99999e-01
7.961162960e-01,5.05844e-02,7.70563e-01,6.56460e-02,9.99999e-01
8.000968774e-01,6.01448e-02,8.68213e-01,6.92742e-02,9.99999e-01
8.040973618e-01,6.78158e-02,9.28662e-01,7.30252e-02,9.99999e-01
8.081178486e-01,7.43465e-02,9.66803e-01,7.68992e-02,9.99999e-01
8.121584379e-01,8.00448e-02,9.89475e-01,8.08962e-02,9.99999e-01
8.162192301e-01,8.48170e-02,9.97662e-01,8.50157e-02,9.99999e-01
8.203003262e-01,8.92537e-02,9.99958e-01,8.92574e-02,9.99999e-01
8.244018279e-01,9.36206e-02,9.99999e-01,9.36206e-02,9.99999e-01
8.285238370e-01,9.81046e-02,9.99999e-01,9.81046e-02,9.99999e-01
8.326664562e-01,1.02708e-01,9.99999e-01,1.02708e-01,9.99999e-01
8.368297885e-01,1.07431e-01,9.99999e-01,1.07431e-01,9.99999e-01
8.410139374e-01,1.12271e-01,9.99999e-01,1.12271e-01,9.99999e-01
8.452190071e-01,1.17227e-01,9.99999e-01,1.17227e-01,9.99999e-01
8.494451021e-01,1.22297e-01,9.99999e-01,1.22297e-01,9.99999e-01
8.536923276e-01,1.27480e-01,9.99999e-01,1.27480e-01,9.99999e-01
8.579607893e-01,1.32773e-01,9.99999e-01,1.32773e-01,9.99999e-01
8.622505932e-01,1.38176e-01,9.99999e-01,1.38176e-01,9.99999e-01
8.665618462e-01,1.23920e-01,8.62446e-01,1.43685e-01,9.99999e-01
8.708946554e-01,3.68741e-02,2.46983e-01,1.49298e-01,9.99999e-01
8.752491287e-01,4.70911e-02,3.03788e-01,1.55013e-01,9.99999e-01
8.796253743e-01,8.17103e-02,5.08061e-01,1.60827e-01,9.99999e-01
8.840235012e-01,1.16316e-01,6.97592e-01,1.66739e-01,9.99999e-01
8.884436187e-01,1.49492e-01,8.65395e-01,1.72744e-01,9.99999e-01
8.928858368e-01,1.68684e-01,9.43207e-01,1.78841e-01,9.99999e-01
8.973502660e-01,1.82384e-01,9.85723e-01,1.85026e-01,9.99999e-01
9.018370173e-01,1.90992e-01,9.98410e-01,1.91296e-01,9.99999e-01
9.063462024e-01,1.90414e-01,9.63396e-01,1.97649e-01,9.99999e-01
9.108779334e-01,1.86203e-01,9.12397e-01,2.04081e-01,9.99999e-01
9.154323231e-01,2.06021e-01,9.78310e-01,2.10589e-01,9.99999e-01
9.200094847e-01,1.69097e-01,7.78638e-01,2.17170e-01,9.99999e-01
9.246095321e-01,1.43619e-01,6.41672e-01,2.23820e-01,9.99999e-01
9.292325798e-01,1.65152e-01,7.16382e-01,2.30537e-01,9.99999e-01
9.338787427e-01,1.70142e-01,7.16944e-01,2.37316e-01,9.99999e-01
9.385481364e-01,1.90629e-01,7.80769e-01,2.44155e-01,9.99999e-01
9.432408771e-01,2.15258e-01,8.57427e-01,2.51051e-01,9.99999e-01
9.479570815e-01,2.38499e-01,9.24417e-01,2.57999e-01,9.99999e-01
9.526968669e-01,2.55124e-01,9.62747e-01,2.64996e-01,9.99999e-01
9.574603512e-01,2.67647e-01,9.83854e-01,2.72039e-01,9.99999e-01
9.622476530e-01,2.77709e-01,9.94925e-01,2.79125e-01,9.99999e-01
9.670588912e-01,2.85812e-01,9.98469e-01,2.86250e-01,9.99999e-01
9.718941857e-01,2.93378e-01,9.99887e-01,2.93411e-01,9.99999e-01
9.767536566e-01,3.00604e-01,9.99999e-01,3.00604e-01,9.99999e-01
9.816374249e-01,3.07827e-01,9.99999e-01,3.07827e-01,9.99999e-01
9.865456120e-01,3.15075e-01,9.99999e-01,3.15075e-01,9.99999e-01
9.914783401e-01,3.22345e-01,9.99999e-01,3.22345e-01,9.99999e-01
9.964357318e-01,3.29635e-01,9.99999e-01,3.29635e-01,9.99999e-01
1.001417910e+00,3.36940e-01,9.99999e-01,3.36940e-01,9.99999e-01
1.006425000e+00,3.44259e-01,9.99999e-01,3.44259e-01,9.99999e-01
1.011457125e+00,3.51587e-01,9.99999e-01,3.51587e-01,9.99999e-01
1.016514411e+00,3.58922e-01,9.99999e-01,3.58922e-01,9.99999e-01
1.021596983e+00,3.66198e-01,9.99830e-01,3.66260e-01,9.99999e-01
1.026704968e+00,3.68132e-01,9.85365e-01,3.73599e-01,9.99999e-01
1.031838492e+00,3.40958e-01,8.95052e-01,3.80936e-01,9.99999e-01
1.036997685e+00,1.47849e-02,3.80791e-02,3.88267e-01,9.99999e-01
1.042182673e+00,3.76701e-04,9.52247e-04,3.95591e-01,9.99999e-01
1.047393587e+00,1.14790e-03,2.84906e-03,4.02904e-01,9.99999e-01
1.052630555e+00,1.40061e-08,3.41441e-08,4.10204e-01,9.99999e-01
1.057893707e+00,5.07354e-08,1.21525e-07,4.17488e-01,9.99999e-01
1.063183176e+00,3.79029e-06,8.92348e-06,4.24754e-01,9.99999e-01
1.068499092e+00,5.87649e-05,1.36030e-04,4.31999e-01,9.99999e-01
1.073841587e+00,1.31704e-03,2.99858e-03,4.39221e-01,9.99999e-01
1.079210795e+00,1.18824e-02,2.66171e-02,4.46417e-01,9.99999e-01
1.084606849e+00,5.61185e-02,1.23722e-01,4.53586e-01,9.99999e-01
1.090029883e+00,1.53758e-01,3.33730e-01,4.60724e-01,9.99999e-01
1.095480033e+00,2.71208e-01,5.79713e-01,4.67831e-01,9.99999e-01
1.100957433e+00,3.64404e-01,7.67321e-01,4.74904e-01,9.99999e-01
1.106462220e+00,4.31731e-01,8.95816e-01,4.81940e-01,9.99999e-01
1.111994531e+00,4.69367e-01,9.59969e-01,4.88939e-01,9.99999e-01
1.117554504e+00,4.90935e-01,9.89990e-01,4.95899e-01,9.99999e-01
1.123142276e+00,5.02481e-01,9.99331e-01,5.02817e-01,9.99999e-01
1.128757988e+00,5.09692e-01,9.99999e-01,5.09692e-01,9.99999e-01
1.134401778e+00,5.16522e-01,9.99999e-01,5.16522e-01,9.99999e-01
1.140073787e+00,5.23307e-01,9.99999e-01,5.23307e-01,9.99999e-01
1.145774156e+00,5.30043e-01,9.99999e-01,5.30043e-01,9.99999e-01
1.151503026e+00,5.36731e-01,9.99999e-01,5.36731e-01,9.99999e-01
1.157260541e+00,5.43369e-01,9.99999e-01,5.43369e-01,9.99999e-01
1.163046844e+00,5.49955e-01,9.99999e-01,5.49955e-01,9.99999e-01
1.168862078e+00,5.56489e-01,9.99999e-01,5.56489e-01,9.99999e-01
1.174706389e+00,5.62969e-01,9.99999e-01,5.62969e-01,9.99999e-01
1.180579921e+00,5.69394e-01,9.99999e-01,5.69394e-01,9.99999e-01
1.186482820e+00,5.75756e-01,9.99986e-01,5.75764e-01,9.99999e-01
1.192415234e+00,5.53903e-01,9.51598e-01,5.82076e-01,9.99999e-01
1.198377311e+00,2.95910e-01,5.02964e-01,5.88332e-01,9.99999e-01
1.204369197e+00,2.75843e-39,4.63969e-39,5.94529e-01,9.99999e-01
1.210391043e+00,2.24285e-161,3.73393e-161,6.00666e-01,9.99999e-01
1.216442998e+00,1.52387e-139,2.51154e-139,6.06745e-01,9.99999e-01
1.222525213e+00,1.93227e-137,3.15338e-137,6.12762e-01,9.99999e-01
1.228637839e+00,7.24720e-106,1.17132e-105,6.18719e-01,9.99999e-01
1.234781029e+00,4.85695e-80,7.77592e-80,6.24614e-01,9.99999e-01
1.240954934e+00,2.61654e-43,4.15028e-43,6.30448e-01,9.99999e-01
1.247159708e+00,1.76141e-27,2.76856e-27,6.36219e-01,9.99999e-01
1.253395507e+00,5.87430e-14,9.15103e-14,6.41927e-01,9.99999e-01
1.259662485e+00,1.26416e-08,1.95215e-08,6.47573e-01,9.99999e-01
1.265960797e+00,7.23648e-05,1.10793e-04,6.53155e-01,9.99999e-01
1.272290601e+00,6.15379e-03,9.34270e-03,6.58673e-01,9.99999e-01
1.278652054e+00,8.57979e-03,1.29189e-02,6.64128e-01,9.99999e-01
1.285045314e+00,2.60352e-06,3.88864e-06,6.69518e-01,9.99999e-01
1.291470541e+00,1.36017e-18,2.01553e-18,6.74845e-01,9.99999e-01
1.297927893e+00,1.04674e-07,1.53907e-07,6.80108e-01,9.99999e-01
1.304417533e+00,2.11136e-04,3.08089e-04,6.85306e-01,9.99999e-01
1.310939621e+00,6.46873e-05,9.36897e-05,6.90441e-01,9.99999e-01
1.317494319e+00,2.14604e-54,3.08555e-54,6.95511e-01,9.99999e-01
1.324081790e+00,1.95168e-35,2.78605e-35,7.00517e-01,9.99999e-01
1.330702199e+00,4.34443e-21,6.15829e-21,7.05460e-01,9.99999e-01
1.337355710e+00,4.01956e-19,5.65865e-19,7.10339e-01,9.99999e-01
1.344042489e+00,2.51472e-19,3.51634e-19,7.15154e-01,9.99999e-01
1.350762701e+00,1.94440e-21,2.70091e-21,7.19905e-01,9.99999e-01
1.357516515e+00,8.74556e-13,1.20696e-12,7.24593e-01,9.99999e-01
1.364304097e+00,1.67484e-09,2.29676e-09,7.29219e-01,9.99999e-01
1.371125618e+00,2.97679e-05,4.05678e-05,7.33782e-01,9.99999e-01
1.377981246e+00,1.10061e-04,1.49077e-04,7.38282e-01,9.99999e-01
1.384871152e+00,4.28411e-03,5.76813e-03,7.42720e-01,9.99999e-01
1.391795508e+00,6.49311e-03,8.69113e-03,7.47096e-01,9.99999e-01
1.398754485e+00,3.65318e-02,4.86175e-02,7.51411e-01,9.99999e-01
1.405748258e+00,8.40802e-02,1.11266e-01,7.55665e-01,9.99999e-01
1.412776999e+00,1.86313e-01,2.45194e-01,7.59858e-01,9.99999e-01
1.419840884e+00,1.90081e-01,2.48800e-01,7.63992e-01,9.99999e-01
1.426940089e+00,5.62062e-03,7.31789e-03,7.68065e-01,9.99999e-01
1.434074789e+00,0.00000e+00,0.00000e+00,7.72079e-01,9.99999e-01
1.441245163e+00,0.00000e+00,0.00000e+00,7.76033e-01,9.99999e-01
1.448451389e+00,0.00000e+00,0.00000e+00,7.79930e-01,9.99999e-01
1.455693646e+00,0.00000e+00,0.00000e+00,7.83768e-01,9.99999e-01
1.462972114e+00,0.00000e+00,0.00000e+00,7.87549e-01,9.99999e-01
1.470286975e+00,5.42134e-268,6.85141e-268,7.91273e-01,9.99999e-01
1.477638409e+00,8.21854e-168,1.03385e-167,7.94941e-01,9.99999e-01
1.485026601e+00,1.02657e-92,1.28553e-92,7.98552e-01,9.99999e-01
1.492451734e+00,7.43169e-79,9.26518e-79,8.02109e-01,9.99999e-01
1.499913993e+00,2.85588e-33,3.54498e-33,8.05610e-01,9.99999e-01
1.507413563e+00,5.47156e-32,6.76289e-32,8.09057e-01,9.99999e-01
1.514950631e+00,1.08322e-33,1.33327e-33,8.12450e-01,9.99999e-01
1.522525384e+00,8.35853e-119,1.02459e-118,8.15790e-01,9.99999e-01
1.530138011e+00,3.86798e-286,4.72235e-286,8.19077e-01,9.99999e-01
1.537788701e+00,3.26506e-211,3.97058e-211,8.22313e-01,9.99999e-01
1.545477645e+00,3.05770e-43,3.70407e-43,8.25497e-01,9.99999e-01
1.553205033e+00,1.04948e-31,1.26652e-31,8.28629e-01,9.99999e-01
1.560971058e+00,9.41925e-32,1.13251e-31,8.31712e-01,9.99999e-01
1.568775913e+00,0.00000e+00,0.00000e+00,8.34745e-01,9.99999e-01
1.576619793e+00,0.00000e+00,0.00000e+00,8.37728e-01,9.99999e-01
1.584502892e+00,0.00000e+00,0.00000e+00,8.40663e-01,9.99999e-01
1.592425406e+00,0.00000e+00,0.00000e+00,8.43550e-01,9.99999e-01
1.600387533e+00,0.00000e+00,0.00000e+00,8.46390e-01,9.99999e-01
1.608389471e+00,0.00000e+00,0.00000e+00,8.49183e-01,9.99999e-01
1.616431418e+00,0.00000e+00,0.00000e+00,8.51929e-01,9.99999e-01
1.624513575e+00,0.00000e+00,0.00000e+00,8.54630e-01,9.99999e-01
1.632636143e+00,0.00000e+00,0.00000e+00,8.57286e-01,9.99999e-01
1.640799324e+00,3.67181e-248,4.27005e-248,8.59897e-01,9.99999e-01
1.649003321e+00,3.67983e-248,4.26664e-248,8.62465e-01,9.99999e-01
1.657248337e+00,2.19729e-191,2.54025e-191,8.64989e-01,9.99999e-01
1.665534579e+00,1.12270e-192,1.29422e-192,8.67471e-01,9.99999e-01
1.673862252e+00,3.19682e-122,3.67488e-122,8.69910e-01,9.99999e-01
1.682231563e+00,4.32146e-84,4.95405e-84,8.72308e-01,9.99999e-01
1.690642721e+00,6.11349e-46,6.98951e-46,8.74665e-01,9.99999e-01
1.699095934e+00,5.80262e-29,6.61657e-29,8.76982e-01,9.99999e-01
1.707591414e+00,3.07346e-14,3.49551e-14,8.79259e-01,9.99999e-01
1.716129371e+00,9.73097e-09,1.10391e-08,8.81496e-01,9.99999e-01
1.724710018e+00,1.97659e-05,2.23673e-05,8.83695e-01,9.99999e-01
1.733333568e+00,6.31177e-04,7.12504e-04,8.85856e-01,9.99999e-01
1.742000236e+00,1.32059e-02,1.48719e-02,8.87979e-01,9.99999e-01
1.750710237e+00,1.04453e-05,1.17354e-05,8.90066e-01,9.99999e-01
1.759463788e+00,1.21979e-116,1.36730e-116,8.92116e-01,9.99999e-01
1.768261107e+00,3.95576e-122,4.42414e-122,8.94129e-01,9.99999e-01
1.777102413e+00,4.08718e-119,4.56103e-119,8.96108e-01,9.99999e-01
1.785987925e+00,2.80898e-111,3.12785e-111,8.98052e-01,9.99999e-01
1.794917864e+00,3.38193e-106,3.75785e-106,8.99961e-01,9.99999e-01
1.803892454e+00,5.56491e-102,6.17064e-102,9.01837e-01,9.99999e-01
1.812911916e+00,5.94455e-98,6.57816e-98,9.03679e-01,9.99999e-01
1.821976476e+00,4.93790e-98,5.45330e-98,9.05489e-01,9.99999e-01
1.831086358e+00,2.31682e-78,2.55362e-78,9.07266e-01,9.99999e-01
1.840241790e+00,1.35814e-66,1.49409e-66,9.09012e-01,9.99999e-01
1.849442999e+00,4.25838e-46,4.67580e-46,9.10726e-01,9.99999e-01
1.858690214e+00,1.74860e-43,1.91646e-43,9.12410e-01,9.99999e-01
1.867983665e+00,5.70463e-44,6.24095e-44,9.14064e-01,9.99999e-01
1.877323583e+00,1.46231e-224,1.59696e-224,9.15687e-01,9.99999e-01
