#,Wave/freq,Total,CO2,Rayleigh,CIA
4.000000000e-01,1.23060e-20,9.99999e-01,1.23060e-20,9.99999e-01
4.020000000e-01,3.04654e-20,9.99999e-01,3.04654e-20,9.99999e-01
4.040100000e-01,7.40116e-20,9.99999e-01,7.40116e-20,9.99999e-01
4.060300500e-01,1.76676e-19,9.99999e-01,1.76676e-19,9.99999e-01
4.080602003e-01,4.14566e-19,9.99999e-01,4.14566e-19,9.99999e-01
4.101005013e-01,9.56514e-19,9.99999e-01,9.56514e-19,9.99999e-01
4.121510038e-01,2.17079e-18,9.99999e-01,2.17079e-18,9.99999e-01
4.142117588e-01,4.84745e-18,9.99999e-01,4.84745e-18,9.99999e-01
4.162828176e-01,1.06541e-17,9.99999e-01,1.06541e-17,9.99999e-01
4.183642317e-01,2.30550e-17,9.99999e-01,2.30550e-17,9.99999e-01
4.204560528e-01,4.91351e-17,9.99999e-01,4.91351e-17,9.99999e-01
4.225583331e-01,1.03164e-16,9.99999e-01,1.03164e-16,9.99999e-01
4.246711247e-01,2.13452e-16,9.99999e-01,2.13452e-16,9.99999e-01
4.267944804e-01,4.35347e-16,9.99999e-01,4.35347e-16,9.99999e-01
4.289284528e-01,8.75500e-16,9.99999e-01,8.75500e-16,9.99999e-01
4.310730950e-01,1.73654e-15,9.99999e-01,1.73654e-15,9.99999e-01
4.332284605e-01,3.39811e-15,9.99999e-01,3.39811e-15,9.99999e-01
4.353946028e-01,6.56192e-15,9.99999e-01,6.56192e-15,9.99999e-01
4.375715758e-01,1.25078e-14,9.99999e-01,1.25078e-14,9.99999e-01
4.397594337e-01,2.35394e-14,9.99999e-01,2.35394e-14,9.99999e-01
4.419582309e-01,4.37507e-14,9.99999e-01,4.37507e-14,9.99999e-01
4.441680220e-01,8.03265e-14,9.99999e-01,8.03265e-14,9.99999e-01
4.463888621e-01,1.45720e-13,9.99999e-01,1.45720e-13,9.99999e-01
4.486208064e-01,2.61260e-13,9.99999e-01,2.61260e-13,9.99999e-01
4.508639105e-01,4.63038e-13,9.99999e-01,4.63038e-13,9.99999e-01
4.531182300e-01,8.11431e-13,9.99999e-01,8.11431e-13,9.99999e-01
4.553838212e-01,1.40629e-12,9.99999e-01,1.40629e-12,9.99999e-01
4.576607403e-01,2.41090e-12,9.99999e-01,2.41090e-12,9.99999e-01
4.599490440e-01,4.08940e-12,9.99999e-01,4.08940e-12,9.99999e-01
4.622487892e-01,6.86447e-12,9.99999e-01,6.86447e-12,9.99999e-01
4.645600332e-01,1.14054e-11,9.99999e-01,1.14054e-11,9.99999e-01
4.668828333e-01,1.87612e-11,9.99999e-01,1.87612e-11,9.99999e-01
4.692172475e-01,3.05591e-11,9.99999e-01,3.05591e-11,9.99999e-01
4.715633337e-01,4.92987e-11,9.99999e-01,4.92987e-11,9.99999e-01
4.739211504e-01,7.87821e-11,9.99999e-01,7.87821e-11,9.99999e-01
4.762907561e-01,1.24738e-10,9.99999e-01,1.24738e-10,9.99999e-01
4.786722099e-01,1.95716e-10,9.99999e-01,1.95716e-10,9.99999e-01
4.810655710e-01,3.04362e-10,9.99999e-01,3.04362e-10,9.99999e-01
4.834708988e-01,4.69210e-10,9.99999e-01,4.69210e-10,9.99999e-01
4.858882533e-01,7.17185e-10,9.99999e-01,7.17185e-10,9.99999e-01
4.883176946e-01,1.08706e-09,9.99999e-01,1.08706e-09,9.99999e-01
4.907592831e-01,1.63422e-09,9.99999e-01,1.63422e-09,9.99999e-01
4.932130795e-01,2.43708e-09,9.99999e-01,2.43708e-09,9.99999e-01
4.956791449e-01,3.60579e-09,9.99999e-01,3.60579e-09,9.99999e-01
4.981575406e-01,5.29384e-09,9.99999e-01,5.29384e-09,9.99999e-01
5.006483283e-01,7.71342e-09,9.99999e-01,7.71342e-09,9.99999e-01
5.031515699e-01,1.11556e-08,9.99999e-01,1.11556e-08,9.99999e-01
5.056673278e-01,1.60168e-08,9.99999e-01,1.60168e-08,9.99999e-01
5.081956644e-01,2.28326e-08,9.99999e-01,2.28326e-08,9.99999e-01
5.107366428e-01,3.23215e-08,9.99999e-01,3.23215e-08,9.99999e-01
5.132903260e-01,4.54410e-08,9.99999e-01,4.54410e-08,9.99999e-01
5.158567776e-01,6.34573e-08,9.99999e-01,6.34573e-08,9.99999e-01
5.184360615e-01,8.80340e-08,9.99999e-01,8.80340e-08,9.99999e-01
5.210282418e-01,1.21342e-07,9.99999e-01,1.21342e-07,9.99999e-01
5.236333830e-01,1.66195e-07,9.99999e-01,1.66195e-07,9.99999e-01
5.262515499e-01,2.26219e-07,9.99999e-01,2.26219e-07,9.99999e-01
5.288828077e-01,3.06051e-07,9.99999e-01,3.06051e-07,9.99999e-01
5.315272217e-01,4.11590e-07,9.99999e-01,4.11590e-07,9.99999e-01
5.341848578e-01,5.50294e-07,9.99999e-01,5.50294e-07,9.99999e-01
5.368557821e-01,7.31533e-07,9.99999e-01,7.31533e-07,9.99999e-01
5.395400610e-01,9.67009e-07,9.99999e-01,9.67009e-07,9.99999e-01
5.422377613e-01,1.27126e-06,9.99999e-01,1.27126e-06,9.99999e-01
5.449489501e-01,1.66222e-06,9.99999e-01,1.66222e-06,9.99999e-01
5.476736949e-01,2.16195e-06,9.99999e-01,2.16195e-06,9.99999e-01
5.504120634e-01,2.79734e-06,9.99999e-01,2.79734e-06,9.99999e-01
5.531641237e-01,3.60111e-06,9.99999e-01,3.60111e-06,9.99999e-01
5.559299443e-01,4.61275e-06,9.99999e-01,4.61275e-06,9.99999e-01
5.587095940e-01,5.87976e-06,9.99999e-01,5.87976e-06,9.99999e-01
5.615031420e-01,7.45896e-06,9.99999e-01,7.45896e-06,9.99999e-01
5.643106577e-01,9.41793e-06,9.99999e-01,9.41793e-06,9.99999e-01
5.671322110e-01,1.18367e-05,9.99999e-01,1.18367e-05,9.99999e-01
5.699678720e-01,1.48098e-05,9.99999e-01,1.48098e-05,9.99999e-01
5.728177114e-01,1.84477e-05,9.99999e-01,1.84477e-05,9.99999e-01
5.756818000e-01,2.28797e-05,9.99999e-01,2.28797e-05,9.99999e-01
5.785602090e-01,2.82562e-05,9.99999e-01,2.82562e-05,9.99999e-01
5.814530100e-01,3.47508e-05,9.99999e-01,3.47508e-05,9.99999e-01
5.843602750e-01,4.25640e-05,9.99999e-01,4.25640e-05,9.99999e-01
5.872820764e-01,5.19253e-05,9.99999e-01,5.19253e-05,9.99999e-01
5.902184868e-01,6.30974e-05,9.99999e-01,6.30974e-05,9.99999e-01
5.931695792e-01,7.63786e-05,9.99999e-01,7.63786e-05,9.99999e-01
5.961354271e-01,9.21071e-05,9.99999e-01,9.21071e-05,9.99999e-01
5.991161043e-01,1.10664e-04,9.99999e-01,1.10664e-04,9.99999e-01
6.021116848e-01,1.32480e-04,9.99999e-01,1.32480e-04,9.99999e-01
6.051222432e-01,1.58032e-04,9.99999e-01,1.58032e-04,9.99999e-01
6.081478544e-01,1.87858e-04,9.99999e-01,1.87858e-04,9.99999e-01
6.111885937e-01,2.22552e-04,9.99999e-01,2.22552e-04,9.99999e-01
6.142445367e-01,2.62772e-04,9.99999e-01,2.62772e-04,9.99999e-01
6.173157594e-01,3.09244e-04,9.99999e-01,3.09244e-04,9.99999e-01
6.204023382e-01,3.62765e-04,9.99999e-01,3.62765e-04,9.99999e-01
6.235043498e-01,4.24211e-04,9.99999e-01,4.24211e-04,9.99999e-01
6.266218716e-01,4.94533e-04,9.99999e-01,4.94533e-04,9.99999e-01
6.297549810e-01,5.74769e-04,9.99999e-01,5.74769e-04,9.99999e-01
6.329037559e-01,6.66042e-04,9.99999e-01,6.66042e-04,9.99999e-01
6.360682746e-01,7.69564e-04,9.99999e-01,7.69564e-04,9.99999e-01
6.392486160e-01,8.86644e-04,9.99999e-01,8.86644e-04,9.99999e-01
6.424448591e-01,1.01868e-03,9.99999e-01,1.01868e-03,9.99999e-01
6.456570834e-01,1.16718e-03,9.99999e-01,1.16718e-03,9.99999e-01
6.488853688e-01,1.33373e-03,9.99999e-01,1.33373e-03,9.99999e-01
6.521297956e-01,1.52004e-03,9.99999e-01,1.52004e-03,9.99999e-01
6.553904446e-01,1.72791e-03,9.99999e-01,1.72791e-03,9.99999e-01
6.586673968e-01,1.95924e-03,9.99999e-01,1.95924e-03,9.99999e-01
6.619607338e-01,2.21603e-03,9.99999e-01,2.21603e-03,9.99999e-01
6.652705375e-01,2.50038e-03,9.99999e-01,2.50038e-03,9.99999e-01
6.685968902e-01,2.81451e-03,9.99999e-01,2.81451e-03,9.99999e-01
6.719398746e-01,3.16070e-03,9.99999e-01,3.16070e-03,9.99999e-01
6.752995740e-01,3.54135e-03,9.99999e-01,3.54135e-03,9.99999e-01
6.786760719e-01,3.95893e-03,9.99999e-01,3.95893e-03,9.99999e-01
6.820694522e-01,4.41603e-03,9.99999e-01,4.41603e-03,9.99999e-01
6.854797995e-01,4.91528e-03,9.99999e-01,4.91528e-03,9.99999e-01
6.889071985e-01,5.45942e-03,9.99999e-01,5.45942e-03,9.99999e-01
6.923517345e-01,6.05122e-03,9.99999e-01,6.05122e-03,9.99999e-01
6.958134932e-01,6.69356e-03,9.99999e-01,6.69356e-03,9.99999e-01
6.992925606e-01,7.38934e-03,9.99999e-01,7.38934e-03,9.99999e-01
7.027890234e-01,8.14153e-03,9.99999e-01,8.14153e-03,9.99999e-01
7.063029686e-01,8.95313e-03,9.99999e-01,8.95313e-03,9.99999e-01
7.098344834e-01,9.82717e-03,9.99999e-01,9.82717e-03,9.99999e-01
7.133836558e-01,1.07667e-02,9.99999e-01,1.07667e-02,9.99999e-01
7.169505741e-01,1.17748e-02,9.99999e-01,1.17748e-02,9.99999e-01
7.205353270e-01,1.28546e-02,9.99999e-01,1.28546e-02,9.99999e-01
7.241380036e-01,1.40090e-02,9.99999e-01,1.40090e-02,9.99999e-01
7.277586936e-01,1.52413e-02,9.99999e-01,1.52413e-02,9.99999e-01
7.313974871e-01,1.65543e-02,9.99999e-01,1.65543e-02,9.99999e-01
7.350544745e-01,1.79511e-02,9.99999e-01,1.79511e-02,9.99999e-01
7.387297469e-01,1.94347e-02,9.99999e-01,1.94347e-02,9.99999e-01
7.424233956e-01,2.10079e-02,9.99999e-01,2.10079e-02,9.99999e-01
7.461355126e-01,2.26736e-02,9.99999e-01,2.26736e-02,9.99999e-01
7.498661902e-01,2.44345e-02,9.99999e-01,2.44345e-02,9.99999e-01
7.536155211e-01,2.62932e-02,9.99999e-01,2.62932e-02,9.99999e-01
7.573835987e-01,2.82524e-02,9.99999e-01,2.82524e-02,9.99999e-01
7.611705167e-01,3.03145e-02,9.99999e-01,3.03145e-02,9.99999e-01
7.649763693e-01,3.24820e-02,9.99999e-01,3.24820e-02,9.99999e-01
7.688012511e-01,3.47569e-02,9.99999e-01,3.47569e-02,9.99999e-01
7.726452574e-01,3.71415e-02,9.99999e-01,3.71415e-02,9.99999e-01
7.765084837e-01,3.96376e-02,9.99999e-01,3.96376e-02,9.99999e-01
7.803910261e-01,3.78371e-02,8.95609e-01,4.22473e-02,9.99999e-01
7.842929812e-01,2.41966e-02,5.38036e-01,4.49720e-02,9.99999e-01
7.882144461e-01,2.51547e-02,5.26100e-01,4.78135e-02,9.99999e-01
7.921555184e-01,3.38630e-02,6.66949e-01,5.07729e-02,9.99999e-01
7.961162960e-01,4.07280e-02,7.56298e-01,5.38517e-02,9.99999e-01
8.000968774e-01,4.90311e-02,8.59429e-01,5.70507e-02,9.99999e-01
8.040973618e-01,5.57653e-02,9.23709e-01,6.03710e-02,9.99999e-01
8.081178486e-01,6.15441e-02,9.64442e-01,6.38131e-02,9.99999e-01
8.121584379e-01,6.66175e-02,9.88717e-01,6.73776e-02,9.99999e-01
8.162192301e-01,7.08869e-02,9.97493e-01,7.10650e-02,9.99999e-01
8.203003262e-01,7.48720e-02,9.99955e-01,7.48752e-02,9.99999e-01
8.244018279e-01,7.88084e-02,9.99999e-01,7.88084e-02,9.99999e-01
8.285238370e-01,8.28644e-02,9.99999e-01,8.28644e-02,9.99999e-01
8.326664562e-01,8.70428e-02,9.99999e-01,8.70428e-02,9.99999e-01
8.368297885e-01,9.13431e-02,9.99999e-01,9.13431e-02,9.99999e-01
8.410139374e-01,9.57646e-02,9.99999e-01,9.57646e-02,9.99999e-01
8.452190071e-01,1.00306e-01,9.99999e-01,1.00306e-01,9.99999e-01
8.494451021e-01,1.04968e-01,9.99999e-01,1.04968e-01,9.99999e-01
8.536923276e-01,1.09747e-01,9.99999e-01,1.09747e-01,9.99999e-01
8.579607893e-01,1.14643e-01,9.99999e-01,1.14643e-01,9.99999e-01
8.622505932e-01,1.19654e-01,9.99999e-01,1.19654e-01,9.99999e-01
8.665618462e-01,1.07139e-01,8.58632e-01,1.24779e-01,9.99999e-01
8.708946554e-01,2.94084e-02,2.26192e-01,1.30015e-01,9.99999e-01
8.752491287e-01,3.79483e-02,2.80348e-01,1.35361e-01,9.99999e-01
8.796253743e-01,6.82953e-02,4.84999e-01,1.40815e-01,9.99999e-01
8.840235012e-01,9.95387e-02,6.80027e-01,1.46375e-01,9.99999e-01
8.884436187e-01,1.30213e-01,8.56455e-01,1.52037e-01,9.99999e-01
8.928858368e-01,1.48211e-01,9.39231e-01,1.57800e-01,9.99999e-01
8.973502660e-01,1.61158e-01,9.84698e-01,1.63662e-01,9.99999e-01
9.018370173e-01,1.69330e-01,9.98295e-01,1.69619e-01,9.99999e-01
9.063462024e-01,1.68800e-01,9.60899e-01,1.75668e-01,9.99999e-01
9.108779334e-01,1.64788e-01,9.06383e-01,1.81808e-01,9.99999e-01
9.154323231e-01,1.83665e-01,9.76763e-01,1.88034e-01,9.99999e-01
9.200094847e-01,1.49286e-01,7.68151e-01,1.94345e-01,9.99999e-01
9.246095321e-01,1.24800e-01,6.21710e-01,2.00736e-01,9.99999e-01
9.292325798e-01,1.45048e-01,7.00021e-01,2.07205e-01,9.99999e-01
9.338787427e-01,1.49695e-01,7.00332e-01,2.13748e-01,9.99999e-01
9.385481364e-01,1.69037e-01,7.67083e-01,2.20363e-01,9.99999e-01
9.432408771e-01,1.92523e-01,8.47947e-01,2.27046e-01,9.99999e-01
9.479570815e-01,2.14896e-01,9.19171e-01,2.33793e-01,9.99999e-01
9.526968669e-01,2.31004e-01,9.60108e-01,2.40602e-01,9.99999e-01
9.574603512e-01,2.43186e-01,9.82694e-01,2.47469e-01,9.99999e-01
9.622476530e-01,2.53006e-01,9.94558e-01,2.54390e-01,9.99999e-01
9.670588912e-01,2.60933e-01,9.98358e-01,2.61362e-01,9.99999e-01
9.718941857e-01,2.68350e-01,9.99879e-01,2.68382e-01,9.99999e-01
9.767536566e-01,2.75446e-01,9.99999e-01,2.75446e-01,9.99999e-01
9.816374249e-01,2.82551e-01,9.99999e-01,2.82551e-01,9.99999e-01
9.865456120e-01,2.89694e-01,9.99999e-01,2.89694e-01,9.99999e-01
9.914783401e-01,2.96871e-01,9.99999e-01,2.96871e-01,9.99999e-01
9.964357318e-01,3.04079e-01,9.99999e-01,3.04079e-01,9.99999e-01
1.001417910e+00,3.11314e-01,9.99999e-01,3.11314e-01,9.99999e-01
1.006425000e+00,3.18573e-01,9.99999e-01,3.18573e-01,9.99999e-01
1.011457125e+00,3.25853e-01,9.99999e-01,3.25853e-01,9.99999e-01
1.016514411e+00,3.33151e-01,9.99999e-01,3.33151e-01,9.99999e-01
1.021596983e+00,3.40401e-01,9.99818e-01,3.40463e-01,9.99999e-01
1.026704968e+00,3.42335e-01,9.84325e-01,3.47786e-01,9.99999e-01
1.031838492e+00,3.16061e-01,8.90016e-01,3.55118e-01,9.99999e-01
1.036997685e+00,1.25821e-02,3.47136e-02,3.62455e-01,9.99999e-01
1.042182673e+00,2.48253e-04,6.71328e-04,3.69794e-01,9.99999e-01
1.047393587e+00,7.62423e-04,2.02163e-03,3.77132e-01,9.99999e-01
1.052630555e+00,4.73915e-09,1.23265e-08,3.84467e-01,9.99999e-01
1.057893707e+00,1.71387e-08,4.37439e-08,3.91795e-01,9.99999e-01
1.063183176e+00,1.78303e-06,4.46748e-06,3.99114e-01,9.99999e-01
1.068499092e+00,3.10697e-05,7.64469e-05,4.06421e-01,9.99999e-01
1.073841587e+00,8.35565e-04,2.01967e-03,4.13714e-01,9.99999e-01
1.079210795e+00,8.81118e-03,2.09297e-02,4.20989e-01,9.99999e-01
1.084606849e+00,4.58171e-02,1.06988e-01,4.28245e-01,9.99999e-01
1.090029883e+00,1.34511e-01,3.08880e-01,4.35479e-01,9.99999e-01
1.095480033e+00,2.46880e-01,5.57682e-01,4.42689e-01,9.99999e-01
1.100957433e+00,3.38690e-01,7.52856e-01,4.49872e-01,9.99999e-01
1.106462220e+00,4.06178e-01,8.88739e-01,4.57027e-01,9.99999e-01
1.111994531e+00,4.44256e-01,9.57137e-01,4.64150e-01,9.99999e-01
1.117554504e+00,4.66185e-01,9.89270e-01,4.71241e-01,9.99999e-01
1.123142276e+00,4.77954e-01,9.99283e-01,4.78296e-01,9.99999e-01
1.128757988e+00,4.85315e-01,9.99999e-01,4.85315e-01,9.99999e-01
1.134401778e+00,4.92295e-01,9.99999e-01,4.92295e-01,9.99999e-01
1.140073787e+00,4.99235e-01,9.99999e-01,4.99235e-01,9.99999e-01
1.145774156e+00,5.06132e-01,9.99999e-01,5.06132e-01,9.99999e-01
1.151503026e+00,5.12986e-01,9.99999e-01,5.12986e-01,9.99999e-01
1.157260541e+00,5.19795e-01,9.99999e-01,5.19795e-01,9.99999e-01
1.163046844e+00,5.26556e-01,9.99999e-01,5.26556e-01,9.99999e-01
1.168862078e+00,5.33270e-01,9.99999e-01,5.33270e-01,9.99999e-01
1.174706389e+00,5.39934e-01,9.99999e-01,5.39934e-01,9.99999e-01
1.180579921e+00,5.46547e-01,9.99999e-01,5.46547e-01,9.99999e-01
1.186482820e+00,5.53100e-01,9.99985e-01,5.53108e-01,9.99999e-01
1.192415234e+00,5.30764e-01,9.48442e-01,5.59616e-01,9.99999e-01
1.198377311e+00,2.81822e-01,4.97857e-01,5.66070e-01,9.99999e-01
1.204369197e+00,5.68253e-42,9.92637e-42,5.72468e-01,9.99999e-01
1.210391043e+00,6.31721e-173,1.09141e-172,5.78810e-01,9.99999e-01
1.216442998e+00,1.65511e-149,2.82879e-149,5.85095e-01,9.99999e-01
1.222525213e+00,2.97649e-147,5.03361e-147,5.91323e-01,9.99999e-01
1.228637839e+00,2.17420e-113,3.63888e-113,5.97491e-01,9.99999e-01
1.234781029e+00,1.09755e-85,1.81834e-85,6.03601e-01,9.99999e-01
1.240954934e+00,2.70656e-46,4.43952e-46,6.09650e-01,9.99999e-01
1.247159708e+00,2.50869e-29,4.07493e-29,6.15638e-01,9.99999e-01
1.253395507e+00,7.36570e-15,1.18502e-14,6.21565e-01,9.99999e-01
1.259662485e+00,3.84120e-09,6.12209e-09,6.27431e-01,9.99999e-01
1.265960797e+00,4.09133e-05,6.46100e-05,6.33234e-01,9.99999e-01
1.272290601e+00,4.38009e-03,6.85486e-03,6.38975e-01,9.99999e-01
1.278652054e+00,6.35442e-03,9.85709e-03,6.44653e-01,9.99999e-01
1.285045314e+00,1.28439e-06,1.97517e-06,6.50268e-01,9.99999e-01
1.291470541e+00,8.18145e-20,1.24751e-19,6.55820e-01,9.99999e-01
1.297927893e+00,4.04605e-08,6.11825e-08,6.61307e-01,9.99999e-01
1.304417533e+00,1.18364e-04,1.77528e-04,6.66731e-01,9.99999e-01
1.310939621e+00,3.72098e-05,5.53642e-05,6.72091e-01,9.99999e-01
1.317494319e+00,3.47227e-58,5.12597e-58,6.77387e-01,9.99999e-01
1.324081790e+00,7.59289e-38,1.11232e-37,6.82619e-01,9.99999e-01
1.330702199e+00,1.61289e-22,2.34505e-22,6.87787e-01,9.99999e-01
1.337355710e+00,2.25061e-20,3.24814e-20,6.92890e-01,9.99999e-01
1.344042489e+00,1.44853e-20,2.07547e-20,6.97930e-01,9.99999e-01
1.350762701e+00,7.06842e-23,1.00560e-22,7.02905e-01,9.99999e-01
1.357516515e+00,1.45839e-13,2.06041e-13,7.07817e-01,9.99999e-01
1.364304097e+00,4.27667e-10,6.00095e-10,7.12665e-01,9.99999e-01
1.371125618e+00,1.47559e-05,2.05671e-05,7.17449e-01,9.99999e-01
1.377981246e+00,5.89230e-05,8.15914e-05,7.22170e-01,9.99999e-01
1.384871152e+00,2.92688e-03,4.02691e-03,7.26828e-01,9.99999e-01
1.391795508e+00,4.60244e-03,6.29244e-03,7.31424e-01,9.99999e-01
1.398754485e+00,2.87938e-02,3.91242e-02,7.35956e-01,9.99999e-01
1.405748258e+00,7.05858e-02,9.53312e-02,7.40427e-01,9.99999e-01
1.412776999e+00,1.65201e-01,2.21796e-01,7.44835e-01,9.99999e-01
1.419840884e+00,1.71256e-01,2.28590e-01,7.49182e-01,9.99999e-01
1.426940089e+00,4.82291e-03,6.40095e-03,7.53467e-01,9.99999e-01
1.434074789e+00,0.00000e+00,0.00000e+00,7.57692e-01,9.99999e-01
1.441245163e+00,0.00000e+00,0.00000e+00,7.61856e-01,9.99999e-01
1.448451389e+00,0.00000e+00,0.00000e+00,7.65960e-01,9.99999e-01
1.455693646e+00,0.00000e+00,0.00000e+00,7.70005e-01,9.99999e-01
1.462972114e+00,0.00000e+00,0.00000e+00,7.73990e-01,9.99999e-01
1.470286975e+00,2.90269e-287,3.73136e-287,7.77917e-01,9.99999e-01
1.477638409e+00,8.03497e-180,1.02777e-179,7.81785e-01,9.99999e-01
1.485026601e+00,2.80577e-99,3.57151e-99,7.85596e-01,9.99999e-01
1.492451734e+00,2.03485e-84,2.57788e-84,7.89350e-01,9.99999e-01
1.499913993e+00,1.60592e-35,2.02501e-35,7.93046e-01,9.99999e-01
1.507413563e+00,3.16016e-34,3.96663e-34,7.96687e-01,9.99999e-01
1.514950631e+00,5.68058e-36,7.09831e-36,8.00272e-01,9.99999e-01
1.522525384e+00,2.91699e-127,3.62899e-127,8.03801e-01,9.99999e-01
1.530138011e+00,9.32330e-307,1.15491e-306,8.07276e-01,9.99999e-01
1.537788701e+00,2.18923e-226,2.70042e-226,8.10697e-01,9.99999e-01
1.545477645e+00,3.23898e-46,3.97876e-46,8.14065e-01,9.99999e-01
1.553205033e+00,6.84700e-34,8.37677e-34,8.17380e-01,9.99999e-01
1.560971058e+00,6.65736e-34,8.11237e-34,8.20642e-01,9.99999e-01
1.568775913e+00,0.00000e+00,0.00000e+00,8.23852e-01,9.99999e-01
1.576619793e+00,0.00000e+00,0.00000e+00,8.27011e-01,9.99999e-01
1.584502892e+00,0.00000e+00,0.00000e+00,8.30120e-01,9.99999e-01
1.592425406e+00,0.00000e+00,0.00000e+00,8.33178e-01,9.99999e-01
1.600387533e+00,0.00000e+00,0.00000e+00,8.36187e-01,9.99999e-01
1.608389471e+00,0.00000e+00,0.00000e+00,8.39147e-01,9.99999e-01
1.616431418e+00,0.00000e+00,0.00000e+00,8.42059e-01,9.99999e-01
1.624513575e+00,0.00000e+00,0.00000e+00,8.44923e-01,9.99999e-01
1.632636143e+00,0.00000e+00,0.00000e+00,8.47740e-01,9.99999e-01
1.640799324e+00,5.31781e-266,6.25248e-266,8.50511e-01,9.99999e-01
1.649003321e+00,5.33026e-266,6.24711e-266,8.53235e-01,9.99999e-01
1.657248337e+00,4.10838e-205,4.79999e-205,8.55914e-01,9.99999e-01
1.665534579e+00,1.68760e-206,1.96564e-206,8.58549e-01,9.99999e-01
1.673862252e+00,6.29166e-131,7.30620e-131,8.61139e-01,9.99999e-01
1.682231563e+00,4.99682e-90,5.78545e-90,8.63686e-01,9.99999e-01
1.690642721e+00,4.14657e-49,4.78714e-49,8.66189e-01,9.99999e-01
1.699095934e+00,6.57780e-31,7.57242e-31,8.68651e-01,9.99999e-01
1.707591414e+00,4.14674e-15,4.76051e-15,8.71070e-01,9.99999e-01
1.716129371e+00,2.94549e-09,3.37225e-09,8.73448e-01,9.99999e-01
1.724710018e+00,9.86097e-06,1.12596e-05,8.75786e-01,9.99999e-01
1.733333568e+00,3.83548e-04,4.36801e-04,8.78083e-01,9.99999e-01
1.742000236e+00,9.80532e-03,1.11381e-02,8.80341e-01,9.99999e-01
1.750710237e+00,5.79861e-06,6.57021e-06,8.82560e-01,9.99999e-01
1.759463788e+00,6.17102e-125,6.97494e-125,8.84741e-01,9.99999e-01
1.768261107e+00,7.96576e-131,8.98174e-131,8.86883e-01,9.99999e-01
1.777102413e+00,1.34228e-127,1.50989e-127,8.88989e-01,9.99999e-01
1.785987925e+00,3.48849e-119,3.91500e-119,8.91057e-01,9.99999e-01
1.794917864e+00,9.78664e-114,1.09582e-113,8.93090e-01,9.99999e-01
1.803892454e+00,3.27053e-109,3.65387e-109,8.95087e-01,9.99999e-01
1.812911916e+00,6.83994e-105,7.62494e-105,8.97048e-01,9.99999e-01
1.821976476e+00,5.61367e-105,6.24451e-105,8.98975e-01,9.99999e-01
1.831086358e+00,7.03511e-84,7.80924e-84,9.00868e-01,9.99999e-01
1.840241790e+00,2.93192e-71,3.24785e-71,9.02728e-01,9.99999e-01
1.849442999e+00,2.65746e-49,2.93786e-49,9.04555e-01,9.99999e-01
1.858690214e+00,1.63765e-46,1.80687e-46,9.06349e-01,9.99999e-01
1.867983665e+00,5.38032e-47,5.92473e-47,9.08111e-01,9.99999e-01
1.877323583e+00,1.04609e-240,1.14975e-240,9.09841e-01,9.99999e-01
