#,Wave/freq,Total,CO2,Rayleigh,CIA
4.000000000e-01,8.45554e-23,9.99999e-01,8.45554e-23,9.99999e-01
4.020000000e-01,2.30995e-22,9.99999e-01,2.30995e-22,9.99999e-01
4.040100000e-01,6.17980e-22,9.99999e-01,6.17980e-22,9.99999e-01
4.060300500e-01,1.62146e-21,9.99999e-01,1.62146e-21,9.99999e-01
4.080602003e-01,4.17409e-21,9.99999e-01,4.17409e-21,9.99999e-01
4.101005013e-01,1.05464e-20,9.99999e-01,1.05464e-20,9.99999e-01
4.121510038e-01,2.61637e-20,9.99999e-01,2.61637e-20,9.99999e-01
4.142117588e-01,6.37526e-20,9.99999e-01,6.37526e-20,9.99999e-01
4.162828176e-01,1.52636e-19,9.99999e-01,1.52636e-19,9.99999e-01
4.183642317e-01,3.59192e-19,9.99999e-01,3.59192e-19,9.99999e-01
4.204560528e-01,8.31102e-19,9.99999e-01,8.31102e-19,9.99999e-01
4.225583331e-01,1.89141e-18,9.99999e-01,1.89141e-18,9.99999e-01
4.246711247e-01,4.23509e-18,9.99999e-01,4.23509e-18,9.99999e-01
4.267944804e-01,9.33309e-18,9.99999e-01,9.33309e-18,9.99999e-01
4.289284528e-01,2.02493e-17,9.99999e-01,2.02493e-17,9.99999e-01
4.310730950e-01,4.32663e-17,9.99999e-01,4.32663e-17,9.99999e-01
4.332284605e-01,9.10702e-17,9.99999e-01,9.10702e-17,9.99999e-01
4.353946028e-01,1.88894e-16,9.99999e-01,1.88894e-16,9.99999e-01
4.375715758e-01,3.86191e-16,9.99999e-01,3.86191e-16,9.99999e-01
4.397594337e-01,7.78486e-16,9.99999e-01,7.78486e-16,9.99999e-01
4.419582309e-01,1.54770e-15,9.99999e-01,1.54770e-15,9.99999e-01
4.441680220e-01,3.03547e-15,9.99999e-01,3.03547e-15,9.99999e-01
4.463888621e-01,5.87474e-15,9.99999e-01,5.87474e-15,9.99999e-01
4.486208064e-01,1.12224e-14,9.99999e-01,1.12224e-14,9.99999e-01
4.508639105e-01,2.11656e-14,9.99999e-01,2.11656e-14,9.99999e-01
4.531182300e-01,3.94216e-14,9.99999e-01,3.94216e-14,9.99999e-01
4.553838212e-01,7.25273e-14,9.99999e-01,7.25273e-14,9.99999e-01
4.576607403e-01,1.31838e-13,9.99999e-01,1.31838e-13,9.99999e-01
4.599490440e-01,2.36837e-13,9.99999e-01,2.36837e-13,9.99999e-01
4.622487892e-01,4.20568e-13,9.99999e-01,4.20568e-13,9.99999e-01
4.645600332e-01,7.38408e-13,9.99999e-01,7.38408e-13,9.99999e-01
4.668828333e-01,1.28212e-12,9.99999e-01,1.28212e-12,9.99999e-01
4.692172475e-01,2.20204e-12,9.99999e-01,2.20204e-12,9.99999e-01
4.715633337e-01,3.74182e-12,9.99999e-01,3.74182e-12,9.99999e-01
4.739211504e-01,6.29207e-12,9.99999e-01,6.29207e-12,9.99999e-01
4.762907561e-01,1.04724e-11,9.99999e-01,1.04724e-11,9.99999e-01
4.786722099e-01,1.72554e-11,9.99999e-01,1.72554e-11,9.99999e-01
4.810655710e-01,2.81529e-11,9.99999e-01,2.81529e-11,9.99999e-01
4.834708988e-01,4.54906e-11,9.99999e-01,4.54906e-11,9.99999e-01
4.858882533e-01,7.28121e-11,9.99999e-01,7.28121e-11,9.99999e-01
4.883176946e-01,1.15465e-10,9.99999e-01,1.15465e-10,9.99999e-01
4.907592831e-01,1.81443e-10,9.99999e-01,1.81443e-10,9.99999e-01
4.932130795e-01,2.82589e-10,9.99999e-01,2.82589e-10,9.99999e-01
4.956791449e-01,4.36283e-10,9.99999e-01,4.36283e-10,9.99999e-01
4.981575406e-01,6.67815e-10,9.99999e-01,6.67815e-10,9.99999e-01
5.006483283e-01,1.01366e-09,9.99999e-01,1.01366e-09,9.99999e-01
5.031515699e-01,1.52598e-09,9.99999e-01,1.52598e-09,9.99999e-01
5.056673278e-01,2.27874e-09,9.99999e-01,2.27874e-09,9.99999e-01
5.081956644e-01,3.37599e-09,9.99999e-01,3.37599e-09,9.99999e-01
5.107366428e-01,4.96291e-09,9.99999e-01,4.96291e-09,9.99999e-01
5.132903260e-01,7.24046e-09,9.99999e-01,7.24046e-09,9.99999e-01
5.158567776e-01,1.04847e-08,9.99999e-01,1.04847e-08,9.99999e-01
5.184360615e-01,1.50720e-08,9.99999e-01,1.50720e-08,9.99999e-01
5.210282418e-01,2.15115e-08,9.99999e-01,2.15115e-08,9.99999e-01
5.236333830e-01,3.04873e-08,9.99999e-01,3.04873e-08,9.99999e-01
5.262515499e-01,4.29118e-08,9.99999e-01,4.29118e-08,9.99999e-01
5.288828077e-01,5.99931e-08,9.99999e-01,5.99931e-08,9.99999e-01
5.315272217e-01,8.33205e-08,9.99999e-01,8.33205e-08,9.99999e-01
5.341848578e-01,1.14970e-07,9.99999e-01,1.14970e-07,9.99999e-01
5.368557821e-01,1.57636e-07,9.99999e-01,1.57636e-07,9.99999e-01
5.395400610e-01,2.14792e-07,9.99999e-01,2.14792e-07,9.99999e-01
5.422377613e-01,2.90889e-07,9.99999e-01,2.90889e-07,9.99999e-01
5.449489501e-01,3.91593e-07,9.99999e-01,3.91593e-07,9.99999e-01
5.476736949e-01,5.24074e-07,9.99999e-01,5.24074e-07,9.99999e-01
5.504120634e-01,6.97349e-07,9.99999e-01,6.97349e-07,9.99999e-01
5.531641237e-01,9.22693e-07,9.99999e-01,9.22693e-07,9.99999e-01
5.559299443e-01,1.21412e-06,9.99999e-01,1.21412e-06,9.99999e-01
5.587095940e-01,1.58896e-06,9.99999e-01,1.58896e-06,9.99999e-01
5.615031420e-01,2.06850e-06,9.99999e-01,2.06850e-06,9.99999e-01
5.643106577e-01,2.67877e-06,9.99999e-01,2.67877e-06,9.99999e-01
5.671322110e-01,3.45141e-06,9.99999e-01,3.45141e-06,9.99999e-01
5.699678720e-01,4.42471e-06,9.99999e-01,4.42471e-06,9.99999e-01
5.728177114e-01,5.64472e-06,9.99999e-01,5.64472e-06,9.99999e-01
5.756818000e-01,7.16655e-06,9.99999e-01,7.16655e-06,9.99999e-01
5.785602090e-01,9.05588e-06,9.99999e-01,9.05588e-06,9.99999e-01
5.814530100e-01,1.13905e-05,9.99999e-01,1.13905e-05,9.99999e-01
5.843602750e-01,1.42623e-05,9.99999e-01,1.42623e-05,9.99999e-01
5.872820764e-01,1.77789e-05,9.99999e-01,1.77789e-05,9.99999e-01
5.902184868e-01,2.20664e-05,9.99999e-01,2.20664e-05,9.99999e-01
5.931695792e-01,2.72712e-05,9.99999e-01,2.72712e-05,9.99999e-01
5.961354271e-01,3.35630e-05,9.99999e-01,3.35630e-05,9.99999e-01
5.991161043e-01,4.11373e-05,9.99999e-01,4.11373e-05,9.99999e-01
6.021116848e-01,5.02188e-05,9.99999e-01,5.02188e-05,9.99999e-01
6.051222432e-01,6.10639e-05,9.99999e-01,6.10639e-05,9.99999e-01
6.081478544e-01,7.39649e-05,9.99999e-01,7.39649e-05,9.99999e-01
6.111885937e-01,8.92530e-05,9.99999e-01,8.92530e-05,9.99999e-01
6.142445367e-01,1.07302e-04,9.99999e-01,1.07302e-04,9.99999e-01
6.173157594e-01,1.28533e-04,9.99999e-01,1.28533e-04,9.99999e-01
6.204023382e-01,1.53416e-04,9.99999e-01,1.53416e-04,9.99999e-01
6.235043498e-01,1.82477e-04,9.99999e-01,1.82477e-04,9.99999e-01
6.266218716e-01,2.16301e-04,9.99999e-01,2.16301e-04,9.99999e-01
6.297549810e-01,2.55535e-04,9.99999e-01,2.55535e-04,9.99999e-01
6.329037559e-01,3.00893e-04,9.99999e-01,3.00893e-04,9.99999e-01
6.360682746e-01,3.53161e-04,9.99999e-01,3.53161e-04,9.99999e-01
6.392486160e-01,4.13198e-04,9.99999e-01,4.13198e-04,9.99999e-01
6.424448591e-01,4.81945e-04,9.99999e-01,4.81945e-04,9.99999e-01
6.456570834e-01,5.60424e-04,9.99999e-01,5.60424e-04,9.99999e-01
6.488853688e-01,6.49743e-04,9.99999e-01,6.49743e-04,9.99999e-01
6.521297956e-01,7.51100e-04,9.99999e-01,7.51100e-04,9.99999e-01
6.553904446e-01,8.65786e-04,9.99999e-01,8.65786e-04,9.99999e-01
6.586673968e-01,9.95186e-04,9.99999e-01,9.95186e-04,9.99999e-01
6.619607338e-01,1.14078e-03,9.99999e-01,1.14078e-03,9.99999e-01
6.652705375e-01,1.30416e-03,9.99999e-01,1.30416e-03,9.99999e-01
6.685968902e-01,1.48700e-03,9.99999e-01,1.48700e-03,9.99999e-01
6.719398746e-01,1.69108e-03,9.99999e-01,1.69108e-03,9.99999e-01
6.752995740e-01,1.91829e-03,9.99999e-01,1.91829e-03,9.99999e-01
6.786760719e-01,2.17062e-03,9.99999e-01,2.17062e-03,9.99999e-01
6.820694522e-01,2.45015e-03,9.99999e-01,2.45015e-03,9.99999e-01
6.854797995e-01,2.75907e-03,9.99999e-01,2.75907e-03,9.99999e-01
6.889071985e-01,3.09966e-03,9.99999e-01,3.09966e-03,9.99999e-01
6.923517345e-01,3.47429e-03,9.99999e-01,3.47429e-03,9.99999e-01
6.958134932e-01,3.88544e-03,9.99999e-01,3.88544e-03,9.99999e-01
6.992925606e-01,4.33566e-03,9.99999e-01,4.33566e-03,9.99999e-01
7.027890234e-01,4.82758e-03,9.99999e-01,4.82758e-03,9.99999e-01
7.063029686e-01,5.36391e-03,9.99999e-01,5.36391e-03,9.99999e-01
7.098344834e-01,5.94743e-03,9.99999e-01,5.94743e-03,9.99999e-01
7.133836558e-01,6.58100e-03,9.99999e-01,6.58100e-03,9.99999e-01
7.169505741e-01,7.26752e-03,9.99999e-01,7.26752e-03,9.99999e-01
7.205353270e-01,8.00994e-03,9.99999e-01,8.00994e-03,9.99999e-01
7.241380036e-01,8.81125e-03,9.99999e-01,8.81125e-03,9.99999e-01
7.277586936e-01,9.67449e-03,9.99999e-01,9.67449e-03,9.99999e-01
7.313974871e-01,1.06027e-02,9.99999e-01,1.06027e-02,9.99999e-01
7.350544745e-01,1.15990e-02,9.99999e-01,1.15990e-02,9.99999e-01
7.387297469e-01,1.26664e-02,9.99999e-01,1.26664e-02,9.99999e-01
7.424233956e-01,1.38080e-02,9.99999e-01,1.38080e-02,9.99999e-01
7.461355126e-01,1.50268e-02,9.99999e-01,1.50268e-02,9.99999e-01
7.498661902e-01,1.63259e-02,9.99999e-01,1.63259e-02,9.99999e-01
7.536155211e-01,1.77084e-02,9.99999e-01,1.77084e-02,9.99999e-01
7.573835987e-01,1.91770e-02,9.99999e-01,1.91770e-02,9.99999e-01
7.611705167e-01,2.07348e-02,9.99999e-01,2.07348e-02,9.99999e-01
7.649763693e-01,2.23846e-02,9.99999e-01,2.23846e-02,9.99999e-01
7.688012511e-01,2.41292e-02,9.99999e-01,2.41292e-02,9.99999e-01
7.726452574e-01,2.59711e-02,9.99999e-01,2.59711e-02,9.99999e-01
7.765084837e-01,2.79131e-02,9.99999e-01,2.79131e-02,9.99999e-01
7.803910261e-01,2.65970e-02,8.87820e-01,2.99577e-02,9.99999e-01
7.842929812e-01,1.62533e-02,5.06222e-01,3.21071e-02,9.99999e-01
7.882144461e-01,1.70017e-02,4.94758e-01,3.43636e-02,9.99999e-01
7.921555184e-01,2.34779e-02,6.39212e-01,3.67295e-02,9.99999e-01
7.961162960e-01,2.87772e-02,7.33987e-01,3.92066e-02,9.99999e-01
8.000968774e-01,3.53401e-02,8.45520e-01,4.17969e-02,9.99999e-01
8.040973618e-01,4.07554e-02,9.15809e-01,4.45020e-02,9.99999e-01
8.081178486e-01,4.54619e-02,9.60660e-01,4.73236e-02,9.99999e-01
8.121584379e-01,4.96347e-02,9.87500e-01,5.02629e-02,9.99999e-01
8.162192301e-01,5.31733e-02,9.97221e-01,5.33214e-02,9.99999e-01
8.203003262e-01,5.64972e-02,9.99951e-01,5.65000e-02,9.99999e-01
8.244018279e-01,5.97996e-02,9.99999e-01,5.97996e-02,9.99999e-01
8.285238370e-01,6.32210e-02,9.99999e-01,6.32210e-02,9.99999e-01
8.326664562e-01,6.67648e-02,9.99999e-01,6.67648e-02,9.99999e-01
8.368297885e-01,7.04313e-02,9.99999e-01,7.04313e-02,9.99999e-01
8.410139374e-01,7.42207e-02,9.99999e-01,7.42207e-02,9.99999e-01
8.452190071e-01,7.81331e-02,9.99999e-01,7.81331e-02,9.99999e-01
8.494451021e-01,8.21683e-02,9.99999e-01,8.21683e-02,9.99999e-01
8.536923276e-01,8.63260e-02,9.99999e-01,8.63260e-02,9.99999e-01
8.579607893e-01,9.06057e-02,9.99999e-01,9.06057e-02,9.99999e-01
8.622505932e-01,9.50067e-02,9.99999e-01,9.50067e-02,9.99999e-01
8.665618462e-01,8.48888e-02,8.52912e-01,9.95282e-02,9.99999e-01
8.708946554e-01,2.05276e-02,1.97060e-01,1.04169e-01,9.99999e-01
8.752491287e-01,2.68724e-02,2.46697e-01,1.08928e-01,9.99999e-01
8.796253743e-01,5.12585e-02,4.50407e-01,1.13805e-01,9.99999e-01
8.840235012e-01,7.75527e-02,6.52820e-01,1.18796e-01,9.99999e-01
8.884436187e-01,1.04361e-01,8.42287e-01,1.23902e-01,9.99999e-01
8.928858368e-01,1.20452e-01,9.32870e-01,1.29120e-01,9.99999e-01
8.973502660e-01,1.32169e-01,9.83051e-01,1.34447e-01,9.99999e-01
9.018370173e-01,1.39619e-01,9.98110e-01,1.39883e-01,9.99999e-01
9.063462024e-01,1.39162e-01,9.56936e-01,1.45425e-01,9.99999e-01
9.108779334e-01,1.35487e-01,8.96848e-01,1.51070e-01,9.99999e-01
9.154323231e-01,1.52784e-01,9.74287e-01,1.56817e-01,9.99999e-01
9.200094847e-01,1.22378e-01,7.52349e-01,1.62662e-01,9.99999e-01
9.246095321e-01,9.96620e-02,5.91106e-01,1.68602e-01,9.99999e-01
9.292325798e-01,1.17828e-01,6.74705e-01,1.74637e-01,9.99999e-01
9.338787427e-01,1.21945e-01,6.74621e-01,1.80761e-01,9.99999e-01
9.385481364e-01,1.39422e-01,7.45680e-01,1.86973e-01,9.99999e-01
9.432408771e-01,1.60985e-01,8.32953e-01,1.93269e-01,9.99999e-01
9.479570815e-01,1.81840e-01,9.10807e-01,1.99647e-01,9.99999e-01
9.526968669e-01,1.97011e-01,9.55886e-01,2.06103e-01,9.99999e-01
9.574603512e-01,2.08559e-01,9.80834e-01,2.12634e-01,9.99999e-01
9.622476530e-01,2.17915e-01,9.93969e-01,2.19237e-01,9.99999e-01
9.670588912e-01,2.25498e-01,9.98180e-01,2.25909e-01,9.99999e-01
9.718941857e-01,2.32614e-01,9.99866e-01,2.32645e-01,9.99999e-01
9.767536566e-01,2.39444e-01,9.99999e-01,2.39444e-01,9.99999e-01
9.816374249e-01,2.46301e-01,9.99999e-01,2.46301e-01,9.99999e-01
9.865456120e-01,2.53213e-01,9.99999e-01,2.53213e-01,9.99999e-01
9.914783401e-01,2.60177e-01,9.99999e-01,2.60177e-01,9.99999e-01
9.964357318e-01,2.67189e-01,9.99999e-01,2.67189e-01,9.99999e-01
1.001417910e+00,2.74246e-01,9.99999e-01,2.74246e-01,9.99999e-01
1.006425000e+00,2.81344e-01,9.99999e-01,2.81344e-01,9.99999e-01
1.011457125e+00,2.88481e-01,9.99999e-01,2.88481e-01,9.99999e-01
1.016514411e+00,2.95652e-01,9.99999e-01,2.95652e-01,9.99999e-01
1.021596983e+00,3.02794e-01,9.99798e-01,3.02855e-01,9.99999e-01
1.026704968e+00,3.04709e-01,9.82661e-01,3.10085e-01,9.99999e-01
1.031838492e+00,2.79969e-01,8.82233e-01,3.17341e-01,9.99999e-01
1.036997685e+00,9.75900e-03,3.00630e-02,3.24618e-01,9.99999e-01
1.042182673e+00,1.30510e-04,3.93207e-04,3.31912e-01,9.99999e-01
1.047393587e+00,3.97977e-04,1.17320e-03,3.39222e-01,9.99999e-01
1.052630555e+00,8.38340e-10,2.41914e-09,3.46544e-01,9.99999e-01
1.057893707e+00,3.02901e-09,8.55954e-09,3.53875e-01,9.99999e-01
1.063183176e+00,5.42946e-07,1.50312e-06,3.61211e-01,9.99999e-01
1.068499092e+00,1.13574e-05,3.08164e-05,3.68550e-01,9.99999e-01
1.073841587e+00,4.04681e-04,1.07660e-03,3.75888e-01,9.99999e-01
1.079210795e+00,5.47297e-03,1.42814e-02,3.83224e-01,9.99999e-01
1.084606849e+00,3.31266e-02,8.48195e-02,3.90553e-01,9.99999e-01
1.090029883e+00,1.08574e-01,2.72886e-01,3.97874e-01,9.99999e-01
1.095480033e+00,2.12350e-01,5.24083e-01,4.05183e-01,9.99999e-01
1.100957433e+00,3.01183e-01,7.30177e-01,4.12479e-01,9.99999e-01
1.106462220e+00,3.68325e-01,8.77470e-01,4.19757e-01,9.99999e-01
1.111994531e+00,4.06775e-01,9.52596e-01,4.27017e-01,9.99999e-01
1.117554504e+00,4.29093e-01,9.88112e-01,4.34255e-01,9.99999e-01
1.123142276e+00,4.41118e-01,9.99205e-01,4.41469e-01,9.99999e-01
1.128757988e+00,4.48657e-01,9.99999e-01,4.48657e-01,9.99999e-01
1.134401778e+00,4.55816e-01,9.99999e-01,4.55816e-01,9.99999e-01
1.140073787e+00,4.62945e-01,9.99999e-01,4.62945e-01,9.99999e-01
1.145774156e+00,4.70041e-01,9.99999e-01,4.70041e-01,9.99999e-01
1.151503026e+00,4.77103e-01,9.99999e-01,4.77103e-01,9.99999e-01
1.157260541e+00,4.84128e-01,9.99999e-01,4.84128e-01,9.99999e-01
1.163046844e+00,4.91115e-01,9.99999e-01,4.91115e-01,9.99999e-01
1.168862078e+00,4.98062e-01,9.99999e-01,4.98062e-01,9.99999e-01
1.174706389e+00,5.04966e-01,9.99999e-01,5.04966e-01,9.99999e-01
1.180579921e+00,5.11828e-01,9.99999e-01,5.11828e-01,9.99999e-01
1.186482820e+00,5.18636e-01,9.99984e-01,5.18644e-01,9.99999e-01
1.192415234e+00,4.95706e-01,9.43458e-01,5.25414e-01,9.99999e-01
1.198377311e+00,2.60656e-01,4.89830e-01,5.32135e-01,9.99999e-01
1.204369197e+00,2.70719e-46,5.02441e-46,5.38808e-01,9.99999e-01
1.210391043e+00,1.73336e-191,3.17796e-191,5.45430e-01,9.99999e-01
1.216442998e+00,1.59455e-165,2.88868e-165,5.52000e-01,9.99999e-01
1.222525213e+00,5.05343e-163,9.04795e-163,5.58517e-01,9.99999e-01
1.228637839e+00,1.77303e-125,3.13822e-125,5.64980e-01,9.99999e-01
1.234781029e+00,9.23634e-95,1.61647e-94,5.71387e-01,9.99999e-01
1.240954934e+00,4.30354e-51,7.44893e-51,5.77739e-01,9.99999e-01
1.247159708e+00,2.71292e-32,4.64513e-32,5.84034e-01,9.99999e-01
1.253395507e+00,2.63692e-16,4.46729e-16,5.90271e-01,9.99999e-01
1.259662485e+00,5.70834e-10,9.57052e-10,5.96450e-01,9.99999e-01
1.265960797e+00,1.65662e-05,2.74925e-05,6.02569e-01,9.99999e-01
1.272290601e+00,2.54733e-03,4.18535e-03,6.08629e-01,9.99999e-01
1.278652054e+00,3.93889e-03,6.40858e-03,6.14627e-01,9.99999e-01
1.285045314e+00,4.15268e-07,6.69176e-07,6.20565e-01,9.99999e-01
1.291470541e+00,9.11015e-22,1.45427e-21,6.26441e-01,9.99999e-01
1.297927893e+00,8.85857e-09,1.40111e-08,6.32255e-01,9.99999e-01
1.304417533e+00,4.69937e-05,7.36570e-05,6.38007e-01,9.99999e-01
1.310939621e+00,1.53748e-05,2.38853e-05,6.43695e-01,9.99999e-01
1.317494319e+00,2.87769e-64,4.43184e-64,6.49321e-01,9.99999e-01
1.324081790e+00,1.01784e-41,1.55424e-41,6.54883e-01,9.99999e-01
1.330702199e+00,8.14181e-25,1.23289e-24,6.60382e-01,9.99999e-01
1.337355710e+00,2.20773e-22,3.31583e-22,6.65816e-01,9.99999e-01
1.344042489e+00,1.47577e-22,2.19874e-22,6.71187e-01,9.99999e-01
1.350762701e+00,3.47005e-25,5.12946e-25,6.76494e-01,9.99999e-01
1.357516515e+00,8.25470e-15,1.21083e-14,6.81737e-01,9.99999e-01
1.364304097e+00,4.82942e-11,7.03059e-11,6.86915e-01,9.99999e-01
1.371125618e+00,4.79653e-06,6.93110e-06,6.92030e-01,9.99999e-01
1.377981246e+00,2.18073e-05,3.12838e-05,6.97080e-01,9.99999e-01
1.384871152e+00,1.59184e-03,2.26737e-03,7.02066e-01,9.99999e-01
1.391795508e+00,2.66418e-03,3.76834e-03,7.06989e-01,9.99999e-01
1.398754485e+00,1.96520e-02,2.76070e-02,7.11848e-01,9.99999e-01
1.405748258e+00,5.33397e-02,7.44299e-02,7.16643e-01,9.99999e-01
1.412776999e+00,1.36218e-01,1.88831e-01,7.21375e-01,9.99999e-01
1.419840884e+00,1.44938e-01,1.99627e-01,7.26043e-01,9.99999e-01
1.426940089e+00,3.80583e-03,5.20883e-03,7.30649e-01,9.99999e-01
1.434074789e+00,0.00000e+00,0.00000e+00,7.35192e-01,9.99999e-01
1.441245163e+00,0.00000e+00,0.00000e+00,7.39673e-01,9.99999e-01
1.448451389e+00,0.00000e+00,0.00000e+00,7.44092e-01,9.99999e-01
1.455693646e+00,0.00000e+00,0.00000e+00,7.48449e-01,9.99999e-01
1.462972114e+00,0.00000e+00,0.00000e+00,7.52745e-01,9.99999e-01
1.470286975e+00,2.81737e-318,3.72186e-318,7.56980e-01,9.99999e-01
1.477638409e+00,3.85720e-199,5.06756e-199,7.61154e-01,9.99999e-01
1.485026601e+00,7.81345e-110,1.02101e-109,7.65269e-01,9.99999e-01
1.492451734e+00,2.33454e-93,3.03454e-93,7.69323e-01,9.99999e-01
1.499913993e+00,3.85256e-39,4.98184e-39,7.73319e-01,9.99999e-01
1.507413563e+00,7.96404e-38,1.02464e-37,7.77255e-01,9.99999e-01
1.514950631e+00,1.21649e-39,1.55733e-39,7.81134e-01,9.99999e-01
1.522525384e+00,7.35558e-141,9.37070e-141,7.84954e-01,9.99999e-01
1.530138011e+00,0.00000e+00,0.00000e+00,7.88717e-01,9.99999e-01
1.537788701e+00,9.33702e-251,1.17829e-250,7.92424e-01,9.99999e-01
1.545477645e+00,5.35162e-51,6.72251e-51,7.96074e-01,9.99999e-01
1.553205033e+00,2.12956e-37,2.66305e-37,7.99668e-01,9.99999e-01
1.560971058e+00,2.33858e-37,2.91155e-37,8.03207e-01,9.99999e-01
1.568775913e+00,0.00000e+00,0.00000e+00,8.06691e-01,9.99999e-01
1.576619793e+00,0.00000e+00,0.00000e+00,8.10121e-01,9.99999e-01
1.584502892e+00,0.00000e+00,0.00000e+00,8.13498e-01,9.99999e-01
1.592425406e+00,0.00000e+00,0.00000e+00,8.16821e-01,9.99999e-01
1.600387533e+00,0.00000e+00,0.00000e+00,8.20092e-01,9.99999e-01
1.608389471e+00,0.00000e+00,0.00000e+00,8.23312e-01,9.99999e-01
1.616431418e+00,0.00000e+00,0.00000e+00,8.26479e-01,9.99999e-01
1.624513575e+00,0.00000e+00,0.00000e+00,8.29596e-01,9.99999e-01
1.632636143e+00,0.00000e+00,0.00000e+00,8.32663e-01,9.99999e-01
1.640799324e+00,1.07651e-294,1.28818e-294,8.35681e-01,9.99999e-01
1.649003321e+00,1.07931e-294,1.28696e-294,8.38649e-01,9.99999e-01
1.657248337e+00,3.55921e-227,4.22925e-227,8.41569e-01,9.99999e-01
1.665534579e+00,1.03547e-228,1.22622e-228,8.44441e-01,9.99999e-01
1.673862252e+00,6.34453e-145,7.48824e-145,8.47266e-01,9.99999e-01
1.682231563e+00,1.40973e-99,1.65842e-99,8.50044e-01,9.99999e-01
1.690642721e+00,3.30378e-54,3.87413e-54,8.52777e-01,9.99999e-01
1.699095934e+00,4.89032e-34,5.71657e-34,8.55463e-01,9.99999e-01
1.707591414e+00,1.64982e-16,1.92263e-16,8.58105e-01,9.99999e-01
1.716129371e+00,4.33356e-10,5.03490e-10,8.60703e-01,9.99999e-01
1.724710018e+00,3.27774e-06,3.79694e-06,8.63257e-01,9.99999e-01
1.733333568e+00,1.73524e-04,2.00427e-04,8.65768e-01,9.99999e-01
1.742000236e+00,6.08280e-03,7.00592e-03,8.68236e-01,9.99999e-01
1.750710237e+00,2.25773e-06,2.59311e-06,8.70663e-01,9.99999e-01
1.759463788e+00,2.75763e-138,3.15862e-138,8.73048e-01,9.99999e-01
1.768261107e+00,8.18402e-145,9.34897e-145,8.75392e-01,9.99999e-01
1.777102413e+00,2.99331e-141,3.41041e-141,8.77697e-01,9.99999e-01
1.785987925e+00,6.57841e-132,7.47579e-132,8.79961e-01,9.99999e-01
1.794917864e+00,7.24060e-126,8.20755e-126,8.82187e-01,9.99999e-01
1.803892454e+00,7.48782e-121,8.46680e-121,8.84374e-01,9.99999e-01
1.812911916e+00,4.62108e-116,5.21258e-116,8.86523e-01,9.99999e-01
1.821976476e+00,3.71143e-116,4.17655e-116,8.88634e-01,9.99999e-01
1.831086358e+00,9.18656e-93,1.03138e-92,8.90709e-01,9.99999e-01
1.840241790e+00,9.00061e-79,1.00819e-78,8.92748e-01,9.99999e-01
1.849442999e+00,1.84622e-54,2.06339e-54,8.94751e-01,9.99999e-01
1.858690214e+00,2.18941e-51,2.44158e-51,8.96718e-01,9.99999e-01
1.867983665e+00,7.22872e-52,8.04396e-52,8.98651e-01,9.99999e-01
1.877323583e+00,1.24401e-266,1.38138e-266,9.00550e-01,9.99999e-01
