#,Wave/freq,Total,CO2,Rayleigh,CIA
4.000000000e-01,5.75189e-22,9.99999e-01,5.75189e-22,9.99999e-01
4.020000000e-01,1.51289e-21,9.99999e-01,1.51289e-21,9.99999e-01
4.040100000e-01,3.89993e-21,9.99999e-01,3.89993e-21,9.99999e-01
4.060300500e-01,9.86697e-21,9.99999e-01,9.86697e-21,9.99999e-01
4.080602003e-01,2.45103e-20,9.99999e-01,2.45103e-20,9.99999e-01
4.101005013e-01,5.98008e-20,9.99999e-01,5.98008e-20,9.99999e-01
4.121510038e-01,1.43356e-19,9.99999e-01,1.43356e-19,9.99999e-01
4.142117588e-01,3.37771e-19,9.99999e-01,3.37771e-19,9.99999e-01
4.162828176e-01,7.82488e-19,9.99999e-01,7.82488e-19,9.99999e-01
4.183642317e-01,1.78290e-18,9.99999e-01,1.78290e-18,9.99999e-01
4.204560528e-01,3.99679e-18,9.99999e-01,3.99679e-18,9.99999e-01
4.225583331e-01,8.81800e-18,9.99999e-01,8.81800e-18,9.99999e-01
4.246711247e-01,1.91532e-17,9.99999e-01,1.91532e-17,9.99999e-01
4.267944804e-01,4.09693e-17,9.99999e-01,4.09693e-17,9.99999e-01
4.289284528e-01,8.63283e-17,9.99999e-01,8.63283e-17,9.99999e-01
4.310730950e-01,1.79248e-16,9.99999e-01,1.79248e-16,9.99999e-01
4.332284605e-01,3.66849e-16,9.99999e-01,3.66849e-16,9.99999e-01
4.353946028e-01,7.40247e-16,9.99999e-01,7.40247e-16,9.99999e-01
4.375715758e-01,1.47314e-15,9.99999e-01,1.47314e-15,9.99999e-01
4.397594337e-01,2.89206e-15,9.99999e-01,2.89206e-15,9.99999e-01
4.419582309e-01,5.60254e-15,9.99999e-01,5.60254e-15,9.99999e-01
4.441680220e-01,1.07125e-14,9.99999e-01,1.07125e-14,9.99999e-01
4.463888621e-01,2.02225e-14,9.99999e-01,2.02225e-14,9.99999e-01
4.486208064e-01,3.76988e-14,9.99999e-01,3.76988e-14,9.99999e-01
4.508639105e-01,6.94190e-14,9.99999e-01,6.94190e-14,9.99999e-01
4.531182300e-01,1.26297e-13,9.99999e-01,1.26297e-13,9.99999e-01
4.553838212e-01,2.27076e-13,9.99999e-01,2.27076e-13,9.99999e-01
4.576607403e-01,4.03570e-13,9.99999e-01,4.03570e-13,9.99999e-01
4.599490440e-01,7.09140e-13,9.99999e-01,7.09140e-13,9.99999e-01
4.622487892e-01,1.23228e-12,9.99999e-01,1.23228e-12,9.99999e-01
4.645600332e-01,2.11811e-12,9.99999e-01,2.11811e-12,9.99999e-01
4.668828333e-01,3.60197e-12,9.99999e-01,3.60197e-12,9.99999e-01
4.692172475e-01,6.06145e-12,9.99999e-01,6.06145e-12,9.99999e-01
4.715633337e-01,1.00960e-11,9.99999e-01,1.00960e-11,9.99999e-01
4.739211504e-01,1.66473e-11,9.99999e-01,1.66473e-11,9.99999e-01
4.762907561e-01,2.71800e-11,9.99999e-01,2.71800e-11,9.99999e-01
4.786722099e-01,4.39490e-11,9.99999e-01,4.39490e-11,9.99999e-01
4.810655710e-01,7.03924e-11,9.99999e-01,7.03924e-11,9.99999e-01
4.834708988e-01,1.11702e-10,9.99999e-01,1.11702e-10,9.99999e-01
4.858882533e-01,1.75646e-10,9.99999e-01,1.75646e-10,9.99999e-01
4.883176946e-01,2.73735e-10,9.99999e-01,2.73735e-10,9.99999e-01
4.907592831e-01,4.22880e-10,9.99999e-01,4.22880e-10,9.99999e-01
4.932130795e-01,6.47698e-10,9.99999e-01,6.47698e-10,9.99999e-01
4.956791449e-01,9.83718e-10,9.99999e-01,9.83718e-10,9.99999e-01
4.981575406e-01,1.48178e-09,9.99999e-01,1.48178e-09,9.99999e-01
5.006483283e-01,2.21403e-09,9.99999e-01,2.21403e-09,9.99999e-01
5.031515699e-01,3.28199e-09,9.99999e-01,3.28199e-09,9.99999e-01
5.056673278e-01,4.82741e-09,9.99999e-01,4.82741e-09,9.99999e-01
5.081956644e-01,7.04663e-09,9.99999e-01,7.04663e-09,9.99999e-01
5.107366428e-01,1.02095e-08,9.99999e-01,1.02095e-08,9.99999e-01
5.132903260e-01,1.46840e-08,9.99999e-01,1.46840e-08,9.99999e-01
5.158567776e-01,2.09686e-08,9.99999e-01,2.09686e-08,9.99999e-01
5.184360615e-01,2.97329e-08,9.99999e-01,2.97329e-08,9.99999e-01
5.210282418e-01,4.18707e-08,9.99999e-01,4.18707e-08,9.99999e-01
5.236333830e-01,5.85660e-08,9.99999e-01,5.85660e-08,9.99999e-01
5.262515499e-01,8.13772e-08,9.99999e-01,8.13772e-08,9.99999e-01
5.288828077e-01,1.12341e-07,9.99999e-01,1.12341e-07,9.99999e-01
5.315272217e-01,1.54102e-07,9.99999e-01,1.54102e-07,9.99999e-01
5.341848578e-01,2.10070e-07,9.99999e-01,2.10070e-07,9.99999e-01
5.368557821e-01,2.84619e-07,9.99999e-01,2.84619e-07,9.99999e-01
5.395400610e-01,3.83318e-07,9.99999e-01,3.83318e-07,9.99999e-01
5.422377613e-01,5.13215e-07,9.99999e-01,5.13215e-07,9.99999e-01
5.449489501e-01,6.83182e-07,9.99999e-01,6.83182e-07,9.99999e-01
5.476736949e-01,9.04315e-07,9.99999e-01,9.04315e-07,9.99999e-01
5.504120634e-01,1.19041e-06,9.99999e-01,1.19041e-06,9.99999e-01
5.531641237e-01,1.55854e-06,9.99999e-01,1.55854e-06,9.99999e-01
5.559299443e-01,2.02967e-06,9.99999e-01,2.02967e-06,9.99999e-01
5.587095940e-01,2.62947e-06,9.99999e-01,2.62947e-06,9.99999e-01
5.615031420e-01,3.38914e-06,9.99999e-01,3.38914e-06,9.99999e-01
5.643106577e-01,4.34644e-06,9.99999e-01,4.34644e-06,9.99999e-01
5.671322110e-01,5.54681e-06,9.99999e-01,5.54681e-06,9.99999e-01
5.699678720e-01,7.04469e-06,9.99999e-01,7.04469e-06,9.99999e-01
5.728177114e-01,8.90491e-06,9.99999e-01,8.90491e-06,9.99999e-01
5.756818000e-01,1.12043e-05,9.99999e-01,1.12043e-05,9.99999e-01
5.785602090e-01,1.40337e-05,9.99999e-01,1.40337e-05,9.99999e-01
5.814530100e-01,1.74996e-05,9.99999e-01,1.74996e-05,9.99999e-01
5.843602750e-01,2.17266e-05,9.99999e-01,2.17266e-05,9.99999e-01
5.872820764e-01,2.68594e-05,9.99999e-01,2.68594e-05,9.99999e-01
5.902184868e-01,3.30661e-05,9.99999e-01,3.30661e-05,9.99999e-01
5.931695792e-01,4.05403e-05,9.99999e-01,4.05403e-05,9.99999e-01
5.961354271e-01,4.95042e-05,9.99999e-01,4.95042e-05,9.99999e-01
5.991161043e-01,6.02120e-05,9.99999e-01,6.02120e-05,9.99999e-01
6.021116848e-01,7.29533e-05,9.99999e-01,7.29533e-05,9.99999e-01
6.051222432e-01,8.80562e-05,9.99999e-01,8.80562e-05,9.99999e-01
6.081478544e-01,1.05892e-04,9.99999e-01,1.05892e-04,9.99999e-01
6.111885937e-01,1.26876e-04,9.99999e-01,1.26876e-04,9.99999e-01
6.142445367e-01,1.51477e-04,9.99999e-01,1.51477e-04,9.99999e-01
6.173157594e-01,1.80217e-04,9.99999e-01,1.80217e-04,9.99999e-01
6.204023382e-01,2.13675e-04,9.99999e-01,2.13675e-04,9.99999e-01
6.235043498e-01,2.52493e-04,9.99999e-01,2.52493e-04,9.99999e-01
6.266218716e-01,2.97381e-04,9.99999e-01,2.97381e-04,9.99999e-01
6.297549810e-01,3.49120e-04,9.99999e-01,3.49120e-04,9.99999e-01
6.329037559e-01,4.08563e-04,9.99999e-01,4.08563e-04,9.99999e-01
6.360682746e-01,4.76645e-04,9.99999e-01,4.76645e-04,9.99999e-01
6.392486160e-01,5.54382e-04,9.99999e-01,5.54382e-04,9.99999e-01
6.424448591e-01,6.42876e-04,9.99999e-01,6.42876e-04,9.99999e-01
6.456570834e-01,7.43318e-04,9.99999e-01,7.43318e-04,9.99999e-01
6.488853688e-01,8.56991e-04,9.99999e-01,8.56991e-04,9.99999e-01
6.521297956e-01,9.85276e-04,9.99999e-01,9.85276e-04,9.99999e-01
6.553904446e-01,1.12965e-03,9.99999e-01,1.12965e-03,9.99999e-01
6.586673968e-01,1.29168e-03,9.99999e-01,1.29168e-03,9.99999e-01
6.619607338e-01,1.47305e-03,9.99999e-01,1.47305e-03,9.99999e-01
6.652705375e-01,1.67552e-03,9.99999e-01,1.67552e-03,9.99999e-01
6.685968902e-01,1.90099e-03,9.99999e-01,1.90099e-03,9.99999e-01
6.719398746e-01,2.15143e-03,9.99999e-01,2.15143e-03,9.99999e-01
6.752995740e-01,2.42892e-03,9.99999e-01,2.42892e-03,9.99999e-01
6.786760719e-01,2.73563e-03,9.99999e-01,2.73563e-03,9.99999e-01
6.820694522e-01,3.07384e-03,9.99999e-01,3.07384e-03,9.99999e-01
6.854797995e-01,3.44593e-03,9.99999e-01,3.44593e-03,9.99999e-01
6.889071985e-01,3.85434e-03,9.99999e-01,3.85434e-03,9.99999e-01
6.923517345e-01,4.30164e-03,9.99999e-01,4.30164e-03,9.99999e-01
6.958134932e-01,4.79044e-03,9.99999e-01,4.79044e-03,9.99999e-01
6.992925606e-01,5.32346e-03,9.99999e-01,5.32346e-03,9.99999e-01
7.027890234e-01,5.90347e-03,9.99999e-01,5.90347e-03,9.99999e-01
7.063029686e-01,6.53331e-03,9.99999e-01,6.53331e-03,9.99999e-01
7.098344834e-01,7.21589e-03,9.99999e-01,7.21589e-03,9.99999e-01
7.133836558e-01,7.95415e-03,9.99999e-01,7.95415e-03,9.99999e-01
7.169505741e-01,8.75110e-03,9.99999e-01,8.75110e-03,9.99999e-01
7.205353270e-01,9.60974e-03,9.99999e-01,9.60974e-03,9.99999e-01
7.241380036e-01,1.05331e-02,9.99999e-01,1.05331e-02,9.99999e-01
7.277586936e-01,1.15244e-02,9.99999e-01,1.15244e-02,9.99999e-01
7.313974871e-01,1.25865e-02,9.99999e-01,1.25865e-02,9.99999e-01
7.350544745e-01,1.37226e-02,9.99999e-01,1.37226e-02,9.99999e-01
7.387297469e-01,1.49358e-02,9.99999e-01,1.49358e-02,9.99999e-01
7.424233956e-01,1.62290e-02,9.99999e-01,1.62290e-02,9.99999e-01
7.461355126e-01,1.76052e-02,9.99999e-01,1.76052e-02,9.99999e-01
7.498661902e-01,1.90675e-02,9.99999e-01,1.90675e-02,9.99999e-01
7.536155211e-01,2.06188e-02,9.99999e-01,2.06188e-02,9.99999e-01
7.573835987e-01,2.22618e-02,9.99999e-01,2.22618e-02,9.99999e-01
7.611705167e-01,2.39994e-02,9.99999e-01,2.39994e-02,9.99999e-01
7.649763693e-01,2.58342e-02,9.99999e-01,2.58342e-02,9.99999e-01
7.688012511e-01,2.77689e-02,9.99999e-01,2.77689e-02,9.99999e-01
7.726452574e-01,2.98059e-02,9.99999e-01,2.98059e-02,9.99999e-01
7.765084837e-01,3.19476e-02,9.99999e-01,3.19476e-02,9.99999e-01
7.803910261e-01,3.04608e-02,8.90760e-01,3.41963e-02,9.99999e-01
7.842929812e-01,1.89422e-02,5.18194e-01,3.65542e-02,9.99999e-01
7.882144461e-01,1.97661e-02,5.06522e-01,3.90232e-02,9.99999e-01
7.921555184e-01,2.70315e-02,6.49715e-01,4.16052e-02,9.99999e-01
7.961162960e-01,3.28928e-02,7.42469e-01,4.43019e-02,9.99999e-01
8.000968774e-01,4.00867e-02,8.50826e-01,4.71150e-02,9.99999e-01
8.040973618e-01,4.59836e-02,9.18830e-01,5.00458e-02,9.99999e-01
8.081178486e-01,5.10837e-02,9.62107e-01,5.30956e-02,9.99999e-01
8.121584379e-01,5.55884e-02,9.87966e-01,5.62654e-02,9.99999e-01
8.162192301e-01,5.93970e-02,9.97326e-01,5.95563e-02,9.99999e-01
8.203003262e-01,6.29659e-02,9.99952e-01,6.29688e-02,9.99999e-01
8.244018279e-01,6.65037e-02,9.99999e-01,6.65037e-02,9.99999e-01
8.285238370e-01,7.01613e-02,9.99999e-01,7.01613e-02,9.99999e-01
8.326664562e-01,7.39418e-02,9.99999e-01,7.39418e-02,9.99999e-01
8.368297885e-01,7.78453e-02,9.99999e-01,7.78453e-02,9.99999e-01
8.410139374e-01,8.18716e-02,9.99999e-01,8.18716e-02,9.99999e-01
8.452190071e-01,8.60204e-02,9.99999e-01,8.60204e-02,9.99999e-01
8.494451021e-01,9.02912e-02,9.99999e-01,9.02912e-02,9.99999e-01
8.536923276e-01,9.46835e-02,9.99999e-01,9.46835e-02,9.99999e-01
8.579607893e-01,9.91963e-02,9.99999e-01,9.91963e-02,9.99999e-01
8.622505932e-01,1.03829e-01,9.99999e-01,1.03829e-01,9.99999e-01
8.665618462e-01,9.28408e-02,8.55049e-01,1.08579e-01,9.99999e-01
8.708946554e-01,2.35644e-02,2.07712e-01,1.13447e-01,9.99999e-01
8.752491287e-01,3.06844e-02,2.59092e-01,1.18431e-01,9.99999e-01
8.796253743e-01,5.72356e-02,4.63341e-01,1.23528e-01,9.99999e-01
8.840235012e-01,8.53661e-02,6.63102e-01,1.28737e-01,9.99999e-01
8.884436187e-01,1.13638e-01,8.47681e-01,1.34057e-01,9.99999e-01
8.928858368e-01,1.30461e-01,9.35298e-01,1.39485e-01,9.99999e-01
8.973502660e-01,1.42653e-01,9.83680e-01,1.45019e-01,9.99999e-01
9.018370173e-01,1.50383e-01,9.98180e-01,1.50657e-01,9.99999e-01
9.063462024e-01,1.49899e-01,9.58453e-01,1.56396e-01,9.99999e-01
9.108779334e-01,1.46094e-01,9.00508e-01,1.62234e-01,9.99999e-01
9.154323231e-01,1.64004e-01,9.75237e-01,1.68168e-01,9.99999e-01
9.200094847e-01,1.32091e-01,7.58290e-01,1.74196e-01,9.99999e-01
9.246095321e-01,1.08674e-01,6.02691e-01,1.80314e-01,9.99999e-01
9.292325798e-01,1.27635e-01,6.84296e-01,1.86520e-01,9.99999e-01
9.338787427e-01,1.31956e-01,6.84384e-01,1.92810e-01,9.99999e-01
9.385481364e-01,1.50148e-01,7.53824e-01,1.99182e-01,9.99999e-01
9.432408771e-01,1.72459e-01,8.38676e-01,2.05632e-01,9.99999e-01
9.479570815e-01,1.93914e-01,9.14006e-01,2.12158e-01,9.99999e-01
9.526968669e-01,2.09460e-01,9.57502e-01,2.18756e-01,9.99999e-01
9.574603512e-01,2.21263e-01,9.81547e-01,2.25423e-01,9.99999e-01
9.622476530e-01,2.30807e-01,9.94195e-01,2.32155e-01,9.99999e-01
9.670588912e-01,2.38530e-01,9.98248e-01,2.38949e-01,9.99999e-01
9.718941857e-01,2.45770e-01,9.99871e-01,2.45802e-01,9.99999e-01
9.767536566e-01,2.52710e-01,9.99999e-01,2.52710e-01,9.99999e-01
9.816374249e-01,2.59670e-01,9.99999e-01,2.59670e-01,9.99999e-01
9.865456120e-01,2.66679e-01,9.99999e-01,2.66679e-01,9.99999e-01
9.914783401e-01,2.73733e-01,9.99999e-01,2.73733e-01,9.99999e-01
9.964357318e-01,2.80828e-01,9.99999e-01,2.80828e-01,9.99999e-01
1.001417910e+00,2.87962e-01,9.99999e-01,2.87962e-01,9.99999e-01
1.006425000e+00,2.95131e-01,9.99999e-01,2.95131e-01,9.99999e-01
1.011457125e+00,3.02332e-01,9.99999e-01,3.02332e-01,9.99999e-01
1.016514411e+00,3.09560e-01,9.99999e-01,3.09560e-01,9.99999e-01
1.021596983e+00,3.16753e-01,9.99805e-01,3.16814e-01,9.99999e-01
1.026704968e+00,3.18677e-01,9.83299e-01,3.24089e-01,9.99999e-01
1.031838492e+00,2.93331e-01,8.85170e-01,3.31383e-01,9.99999e-01
1.036997685e+00,1.07511e-02,3.17431e-02,3.38692e-01,9.99999e-01
1.042182673e+00,1.66454e-04,4.81063e-04,3.46013e-01,9.99999e-01
1.047393587e+00,5.10198e-04,1.44391e-03,3.53343e-01,9.99999e-01
1.052630555e+00,1.62791e-09,4.51347e-09,3.60679e-01,9.99999e-01
1.057893707e+00,5.88166e-09,1.59820e-08,3.68018e-01,9.99999e-01
1.063183176e+00,8.54383e-07,2.27619e-06,3.75356e-01,9.99999e-01
1.068499092e+00,1.66695e-05,4.35585e-05,3.82692e-01,9.99999e-01
1.073841587e+00,5.34108e-04,1.36943e-03,3.90022e-01,9.99999e-01
1.079210795e+00,6.56662e-03,1.65263e-02,3.97344e-01,9.99999e-01
1.084606849e+00,3.75090e-02,9.26940e-02,4.04654e-01,9.99999e-01
1.090029883e+00,1.17870e-01,2.86127e-01,4.11950e-01,9.99999e-01
1.095480033e+00,2.24995e-01,5.36685e-01,4.19230e-01,9.99999e-01
1.100957433e+00,3.15079e-01,7.38769e-01,4.26491e-01,9.99999e-01
1.106462220e+00,3.82448e-01,8.81762e-01,4.33731e-01,9.99999e-01
1.111994531e+00,4.20809e-01,9.54330e-01,4.40947e-01,9.99999e-01
1.117554504e+00,4.43008e-01,9.88554e-01,4.48136e-01,9.99999e-01
1.123142276e+00,4.54950e-01,9.99235e-01,4.55298e-01,9.99999e-01
1.128757988e+00,4.62429e-01,9.99999e-01,4.62429e-01,9.99999e-01
1.134401778e+00,4.69528e-01,9.99999e-01,4.69528e-01,9.99999e-01
1.140073787e+00,4.76592e-01,9.99999e-01,4.76592e-01,9.99999e-01
1.145774156e+00,4.83620e-01,9.99999e-01,4.83620e-01,9.99999e-01
1.151503026e+00,4.90610e-01,9.99999e-01,4.90610e-01,9.99999e-01
1.157260541e+00,4.97559e-01,9.99999e-01,4.97559e-01,9.99999e-01
1.163046844e+00,5.04467e-01,9.99999e-01,5.04467e-01,9.99999e-01
1.168862078e+00,5.11332e-01,9.99999e-01,5.11332e-01,9.99999e-01
1.174706389e+00,5.18151e-01,9.99999e-01,5.18151e-01,9.99999e-01
1.180579921e+00,5.24924e-01,9.99999e-01,5.24924e-01,9.99999e-01
1.186482820e+00,5.31642e-01,9.99984e-01,5.31650e-01,9.99999e-01
1.192415234e+00,5.08910e-01,9.45357e-01,5.38326e-01,9.99999e-01
1.198377311e+00,2.68599e-01,4.92886e-01,5.44951e-01,9.99999e-01
1.204369197e+00,1.22348e-44,2.21835e-44,5.51525e-01,9.99999e-01
1.210391043e+00,2.28342e-184,4.09181e-184,5.58046e-01,9.99999e-01
1.216442998e+00,2.20887e-159,3.91287e-159,5.64513e-01,9.99999e-01
1.222525213e+00,5.64741e-157,9.89169e-157,5.70925e-01,9.99999e-01
1.228637839e+00,7.68117e-121,1.33058e-120,5.77281e-01,9.99999e-01
1.234781029e+00,2.78866e-91,4.77854e-91,5.83580e-01,9.99999e-01
1.240954934e+00,2.96760e-49,5.03136e-49,5.89821e-01,9.99999e-01
1.247159708e+00,3.70842e-31,6.22214e-31,5.96004e-01,9.99999e-01
1.253395507e+00,9.42683e-16,1.56559e-15,6.02127e-01,9.99999e-01
1.259662485e+00,1.18397e-09,1.94670e-09,6.08191e-01,9.99999e-01
1.265960797e+00,2.33865e-05,3.80766e-05,6.14194e-01,9.99999e-01
1.272290601e+00,3.13304e-03,5.05218e-03,6.20137e-01,9.99999e-01
1.278652054e+00,4.72769e-03,7.55200e-03,6.26017e-01,9.99999e-01
1.285045314e+00,6.39437e-07,1.01203e-06,6.31836e-01,9.99999e-01
1.291470541e+00,5.11456e-21,8.02168e-21,6.37592e-01,9.99999e-01
1.297927893e+00,1.58471e-08,2.46346e-08,6.43285e-01,9.99999e-01
1.304417533e+00,6.69169e-05,1.03121e-04,6.48915e-01,9.99999e-01
1.310939621e+00,2.15636e-05,3.29476e-05,6.54482e-01,9.99999e-01
1.317494319e+00,6.25910e-62,9.48369e-62,6.59985e-01,9.99999e-01
1.324081790e+00,3.11035e-40,4.67424e-40,6.65425e-01,9.99999e-01
1.330702199e+00,6.16931e-24,9.19693e-24,6.70800e-01,9.99999e-01
1.337355710e+00,1.29997e-21,1.92271e-21,6.76111e-01,9.99999e-01
1.344042489e+00,8.57251e-22,1.25815e-21,6.81359e-01,9.99999e-01
1.350762701e+00,2.66621e-24,3.88353e-24,6.86542e-01,9.99999e-01
1.357516515e+00,2.47824e-14,3.58303e-14,6.91661e-01,9.99999e-01
1.364304097e+00,1.11212e-10,1.59623e-10,6.96716e-01,9.99999e-01
1.371125618e+00,7.37302e-06,1.05073e-05,7.01707e-01,9.99999e-01
1.377981246e+00,3.18895e-05,4.51287e-05,7.06634e-01,9.99999e-01
1.384871152e+00,2.01001e-03,2.82505e-03,7.11497e-01,9.99999e-01
1.391795508e+00,3.28303e-03,4.58333e-03,7.16297e-01,9.99999e-01
1.398754485e+00,2.27511e-02,3.15535e-02,7.21034e-01,9.99999e-01
1.405748258e+00,5.93778e-02,8.18206e-02,7.25707e-01,9.99999e-01
1.412776999e+00,1.46661e-01,2.00819e-01,7.30317e-01,9.99999e-01
1.419840884e+00,1.54485e-01,2.10223e-01,7.34865e-01,9.99999e-01
1.426940089e+00,4.16227e-03,5.62962e-03,7.39350e-01,9.99999e-01
1.434074789e+00,0.00000e+00,0.00000e+00,7.43774e-01,9.99999e-01
1.441245163e+00,0.00000e+00,0.00000e+00,7.48135e-01,9.99999e-01
1.448451389e+00,0.00000e+00,0.00000e+00,7.52436e-01,9.99999e-01
1.455693646e+00,0.00000e+00,0.00000e+00,7.56675e-01,9.99999e-01
1.462972114e+00,0.00000e+00,0.00000e+00,7.60854e-01,9.99999e-01
1.470286975e+00,2.10580e-306,2.75278e-306,7.64972e-01,9.99999e-01
1.477638409e+00,9.70283e-192,1.26169e-191,7.69031e-01,9.99999e-01
1.485026601e+00,8.66109e-106,1.12041e-105,7.73031e-01,9.99999e-01
1.492451734e+00,6.25161e-90,8.04611e-90,7.76972e-01,9.99999e-01
1.499913993e+00,9.37899e-38,1.20112e-37,7.80854e-01,9.99999e-01
1.507413563e+00,1.90067e-36,2.42222e-36,7.84679e-01,9.99999e-01
1.514950631e+00,3.09118e-38,3.92059e-38,7.88446e-01,9.99999e-01
1.522525384e+00,1.19892e-135,1.51349e-135,7.92157e-01,9.99999e-01
1.530138011e+00,0.00000e+00,0.00000e+00,7.95811e-01,9.99999e-01
1.537788701e+00,2.11423e-241,2.64474e-241,7.99409e-01,9.99999e-01
1.545477645e+00,3.64893e-49,4.54439e-49,8.02952e-01,9.99999e-01
1.553205033e+00,4.70377e-36,5.83275e-36,8.06440e-01,9.99999e-01
1.560971058e+00,4.93262e-36,6.09059e-36,8.09874e-01,9.99999e-01
1.568775913e+00,0.00000e+00,0.00000e+00,8.13255e-01,9.99999e-01
1.576619793e+00,0.00000e+00,0.00000e+00,8.16582e-01,9.99999e-01
1.584502892e+00,0.00000e+00,0.00000e+00,8.19857e-01,9.99999e-01
1.592425406e+00,0.00000e+00,0.00000e+00,8.23080e-01,9.99999e-01
1.600387533e+00,0.00000e+00,0.00000e+00,8.26251e-01,9.99999e-01
1.608389471e+00,0.00000e+00,0.00000e+00,8.29372e-01,9.99999e-01
1.616431418e+00,0.00000e+00,0.00000e+00,8.32443e-01,9.99999e-01
1.624513575e+00,0.00000e+00,0.00000e+00,8.35464e-01,9.99999e-01
1.632636143e+00,0.00000e+00,0.00000e+00,8.38435e-01,9.99999e-01
1.640799324e+00,1.05928e-283,1.25901e-283,8.41359e-01,9.99999e-01
1.649003321e+00,1.06193e-283,1.25786e-283,8.44234e-01,9.99999e-01
1.657248337e+00,1.03150e-218,1.21774e-218,8.47063e-01,9.99999e-01
1.665534579e+00,3.43548e-220,4.04248e-220,8.49844e-01,9.99999e-01
1.673862252e+00,1.47273e-139,1.72738e-139,8.52580e-01,9.99999e-01
1.682231563e+00,6.42136e-96,7.50798e-96,8.55270e-01,9.99999e-01
1.690642721e+00,2.96028e-52,3.45054e-52,8.57915e-01,9.99999e-01
1.699095934e+00,7.70120e-33,8.94950e-33,8.60516e-01,9.99999e-01
1.707591414e+00,5.66339e-16,6.56188e-16,8.63073e-01,9.99999e-01
1.716129371e+00,9.01090e-10,1.04101e-09,8.65587e-01,9.99999e-01
1.724710018e+00,4.98272e-06,5.74007e-06,8.68059e-01,9.99999e-01
1.733333568e+00,2.34727e-04,2.69649e-04,8.70488e-01,9.99999e-01
1.742000236e+00,7.30034e-03,8.36353e-03,8.72876e-01,9.99999e-01
1.750710237e+00,3.23692e-06,3.69839e-06,8.75224e-01,9.99999e-01
1.759463788e+00,3.56331e-133,4.06060e-133,8.77531e-01,9.99999e-01
1.768261107e+00,1.86883e-139,2.12415e-139,8.79798e-01,9.99999e-01
1.777102413e+00,5.02672e-136,5.69905e-136,8.82027e-01,9.99999e-01
1.785987925e+00,4.88603e-127,5.52582e-127,8.84216e-01,9.99999e-01
1.794917864e+00,3.19540e-121,3.60505e-121,8.86368e-01,9.99999e-01
1.803892454e+00,2.13301e-116,2.40073e-116,8.88482e-01,9.99999e-01
1.812911916e+00,8.70045e-112,9.76963e-112,8.90560e-01,9.99999e-01
1.821976476e+00,7.03980e-112,7.88682e-112,8.92601e-01,9.99999e-01
1.831086358e+00,2.30206e-89,2.57326e-89,8.94607e-01,9.99999e-01
1.840241790e+00,6.72799e-76,7.50408e-76,8.96577e-01,9.99999e-01
1.849442999e+00,1.73075e-52,1.92624e-52,8.98512e-01,9.99999e-01
1.858690214e+00,1.59870e-49,1.77551e-49,9.00413e-01,9.99999e-01
1.867983665e+00,5.27543e-50,5.84677e-50,9.02281e-01,9.99999e-01
1.877323583e+00,1.12129e-256,1.24021e-256,9.04116e-01,9.99999e-01
