#,Wave/freq,Total,CO2,Rayleigh,CIA
4.000000000e-01,3.48864e-08,9.99999e-01,3.48864e-08,9.99999e-01
4.020000000e-01,4.89661e-08,9.99999e-01,4.89661e-08,9.99999e-01
4.040100000e-01,6.82791e-08,9.99999e-01,6.82791e-08,9.99999e-01
4.060300500e-01,9.45864e-08,9.99999e-01,9.45864e-08,9.99999e-01
4.080602003e-01,1.30189e-07,9.99999e-01,1.30189e-07,9.99999e-01
4.101005013e-01,1.78065e-07,9.99999e-01,1.78065e-07,9.99999e-01
4.121510038e-01,2.42045e-07,9.99999e-01,2.42045e-07,9.99999e-01
4.142117588e-01,3.27024e-07,9.99999e-01,3.27024e-07,9.99999e-01
4.162828176e-01,4.39221e-07,9.99999e-01,4.39221e-07,9.99999e-01
4.183642317e-01,5.86483e-07,9.99999e-01,5.86483e-07,9.99999e-01
4.204560528e-01,7.78660e-07,9.99999e-01,7.78660e-07,9.99999e-01
4.225583331e-01,1.02804e-06,9.99999e-01,1.02804e-06,9.99999e-01
4.246711247e-01,1.34985e-06,9.99999e-01,1.34985e-06,9.99999e-01
4.267944804e-01,1.76290e-06,9.99999e-01,1.76290e-06,9.99999e-01
4.289284528e-01,2.29023e-06,9.99999e-01,2.29023e-06,9.99999e-01
4.310730950e-01,2.95996e-06,9.99999e-01,2.95996e-06,9.99999e-01
4.332284605e-01,3.80620e-06,9.99999e-01,3.80620e-06,9.99999e-01
4.353946028e-01,4.87013e-06,9.99999e-01,4.87013e-06,9.99999e-01
4.375715758e-01,6.20118e-06,9.99999e-01,6.20118e-06,9.99999e-01
4.397594337e-01,7.85843e-06,9.99999e-01,7.85843e-06,9.99999e-01
4.419582309e-01,9.91210e-06,9.99999e-01,9.91210e-06,9.99999e-01
4.441680220e-01,1.24453e-05,9.99999e-01,1.24453e-05,9.99999e-01
4.463888621e-01,1.55557e-05,9.99999e-01,1.55557e-05,9.99999e-01
4.486208064e-01,1.93581e-05,9.99999e-01,1.93581e-05,9.99999e-01
4.508639105e-01,2.39860e-05,9.99999e-01,2.39860e-05,9.99999e-01
4.531182300e-01,2.95948e-05,9.99999e-01,2.95948e-05,9.99999e-01
4.553838212e-01,3.63639e-05,9.99999e-01,3.63639e-05,9.99999e-01
4.576607403e-01,4.44998e-05,9.99999e-01,4.44998e-05,9.99999e-01
4.599490440e-01,5.42392e-05,9.99999e-01,5.42392e-05,9.99999e-01
4.622487892e-01,6.58523e-05,9.99999e-01,6.58523e-05,9.99999e-01
4.645600332e-01,7.96462e-05,9.99999e-01,7.96462e-05,9.99999e-01
4.668828333e-01,9.59681e-05,9.99999e-01,9.59681e-05,9.99999e-01
4.692172475e-01,1.15210e-04,9.99999e-01,1.15210e-04,9.99999e-01
4.715633337e-01,1.37811e-04,9.99999e-01,1.37811e-04,9.99999e-01
4.739211504e-01,1.64265e-04,9.99999e-01,1.64265e-04,9.99999e-01
4.762907561e-01,1.95118e-04,9.99999e-01,1.95118e-04,9.99999e-01
4.786722099e-01,2.30979e-04,9.99999e-01,2.30979e-04,9.99999e-01
4.810655710e-01,2.72521e-04,9.99999e-01,2.72521e-04,9.99999e-01
4.834708988e-01,3.20487e-04,9.99999e-01,3.20487e-04,9.99999e-01
4.858882533e-01,3.75690e-04,9.99999e-01,3.75690e-04,9.99999e-01
4.883176946e-01,4.39020e-04,9.99999e-01,4.39020e-04,9.99999e-01
4.907592831e-01,5.11451e-04,9.99999e-01,5.11451e-04,9.99999e-01
4.932130795e-01,5.94037e-04,9.99999e-01,5.94037e-04,9.99999e-01
4.956791449e-01,6.87921e-04,9.99999e-01,6.87921e-04,9.99999e-01
4.981575406e-01,7.94337e-04,9.99999e-01,7.94337e-04,9.99999e-01
5.006483283e-01,9.14613e-04,9.99999e-01,9.14613e-04,9.99999e-01
5.031515699e-01,1.05017e-03,9.99999e-01,1.05017e-03,9.99999e-01
5.056673278e-01,1.20254e-03,9.99999e-01,1.20254e-03,9.99999e-01
5.081956644e-01,1.37332e-03,9.99999e-01,1.37332e-03,9.99999e-01
5.107366428e-01,1.56426e-03,9.99999e-01,1.56426e-03,9.99999e-01
5.132903260e-01,1.77717e-03,9.99999e-01,1.77717e-03,9.99999e-01
5.158567776e-01,2.01397e-03,9.99999e-01,2.01397e-03,9.99999e-01
5.184360615e-01,2.27670e-03,9.99999e-01,2.27670e-03,9.99999e-01
5.210282418e-01,2.56747e-03,9.99999e-01,2.56747e-03,9.99999e-01
5.236333830e-01,2.88851e-03,9.99999e-01,2.88851e-03,9.99999e-01
5.262515499e-01,3.24214e-03,9.99999e-01,3.24214e-03,9.99999e-01
5.288828077e-01,3.63077e-03,9.99999e-01,3.63077e-03,9.99999e-01
5.315272217e-01,4.05690e-03,9.99999e-01,4.05690e-03,9.99999e-01
5.341848578e-01,4.52313e-03,9.99999e-01,4.52313e-03,9.99999e-01
5.368557821e-01,5.03210e-03,9.99999e-01,5.03210e-03,9.99999e-01
5.395400610e-01,5.58658e-03,9.99999e-01,5.58658e-03,9.99999e-01
5.422377613e-01,6.18935e-03,9.99999e-01,6.18935e-03,9.99999e-01
5.449489501e-01,6.84330e-03,9.99999e-01,6.84330e-03,9.99999e-01
5.476736949e-01,7.55135e-03,9.99999e-01,7.55135e-03,9.99999e-01
5.504120634e-01,8.31647e-03,9.99999e-01,8.31647e-03,9.99999e-01
5.531641237e-01,9.14166e-03,9.99999e-01,9.14166e-03,9.99999e-01
5.559299443e-01,1.00300e-02,9.99999e-01,1.00300e-02,9.99999e-01
5.587095940e-01,1.09845e-02,9.99999e-01,1.09845e-02,9.99999e-01
5.615031420e-01,1.20082e-02,9.99999e-01,1.20082e-02,9.99999e-01
5.643106577e-01,1.31043e-02,9.99999e-01,1.31043e-02,9.99999e-01
5.671322110e-01,1.42758e-02,9.99999e-01,1.42758e-02,9.99999e-01
5.699678720e-01,1.55257e-02,9.99999e-01,1.55257e-02,9.99999e-01
5.728177114e-01,1.68571e-02,9.99999e-01,1.68571e-02,9.99999e-01
5.756818000e-01,1.82729e-02,9.99999e-01,1.82729e-02,9.99999e-01
5.785602090e-01,1.97761e-02,9.99999e-01,1.97761e-02,9.99999e-01
5.814530100e-01,2.13696e-02,9.99999e-01,2.13696e-02,9.99999e-01
5.843602750e-01,2.30562e-02,9.99999e-01,2.30562e-02,9.99999e-01
5.872820764e-01,2.48385e-02,9.99999e-01,2.48385e-02,9.99999e-01
5.902184868e-01,2.67194e-02,9.99999e-01,2.67194e-02,9.99999e-01
5.931695792e-01,2.87012e-02,9.99999e-01,2.87012e-02,9.99999e-01
5.961354271e-01,3.07865e-02,9.99999e-01,3.07865e-02,9.99999e-01
5.991161043e-01,3.29776e-02,9.99999e-01,3.29776e-02,9.99999e-01
6.021116848e-01,3.52767e-02,9.99999e-01,3.52767e-02,9.99999e-01
6.051222432e-01,3.76859e-02,9.99999e-01,3.76859e-02,9.99999e-01
6.081478544e-01,4.02071e-02,9.99999e-01,4.02071e-02,9.99999e-01
6.111885937e-01,4.28422e-02,9.99999e-01,4.28422e-02,9.99999e-01
6.142445367e-01,4.55927e-02,9.99999e-01,4.55927e-02,9.99999e-01
6.173157594e-01,4.84602e-02,9.99999e-01,4.84602e-02,9.99999e-01
6.204023382e-01,5.14461e-02,9.99999e-01,5.14461e-02,9.99999e-01
6.235043498e-01,5.45514e-02,9.99999e-01,5.45514e-02,9.99999e-01
6.266218716e-01,5.77773e-02,9.99999e-01,5.77773e-02,9.99999e-01
6.297549810e-01,6.11246e-02,9.99999e-01,6.11246e-02,9.99999e-01
6.329037559e-01,6.45938e-02,9.99999e-01,6.45938e-02,9.99999e-01
6.360682746e-01,6.81856e-02,9.99999e-01,6.81856e-02,9.99999e-01
6.392486160e-01,7.19002e-02,9.99999e-01,7.19002e-02,9.99999e-01
6.424448591e-01,7.57378e-02,9.99999e-01,7.57378e-02,9.99999e-01
6.456570834e-01,7.96983e-02,9.99999e-01,7.96983e-02,9.99999e-01
6.488853688e-01,8.37815e-02,9.99999e-01,8.37815e-02,9.99999e-01
6.521297956e-01,8.79870e-02,9.99999e-01,8.79870e-02,9.99999e-01
6.553904446e-01,9.23143e-02,9.99999e-01,9.23143e-02,9.99999e-01
6.586673968e-01,9.67625e-02,9.99999e-01,9.67625e-02,9.99999e-01
6.619607338e-01,1.01331e-01,9.99999e-01,1.01331e-01,9.99999e-01
6.652705375e-01,1.06018e-01,9.99999e-01,1.06018e-01,9.99999e-01
6.685968902e-01,1.10824e-01,9.99999e-01,1.10824e-01,9.99999e-01
6.719398746e-01,1.15745e-01,9.99999e-01,1.15745e-01,9.99999e-01
6.752995740e-01,1.20782e-01,9.99999e-01,1.20782e-01,9.99999e-01
6.786760719e-01,1.25931e-01,9.99999e-01,1.25931e-01,9.99999e-01
6.820694522e-01,1.31192e-01,9.99999e-01,1.31192e-01,9.99999e-01
6.854797995e-01,1.36563e-01,9.99999e-01,1.36563e-01,9.99999e-01
6.889071985e-01,1.42040e-01,9.99999e-01,1.42040e-01,9.99999e-01
6.923517345e-01,1.47623e-01,9.99999e-01,1.47623e-01,9.99999e-01
6.958134932e-01,1.53308e-01,9.99999e-01,1.53308e-01,9.99999e-01
6.992925606e-01,1.59093e-01,9.99999e-01,1.59093e-01,9.99999e-01
7.027890234e-01,1.64976e-01,9.99999e-01,1.64976e-01,9.99999e-01
7.063029686e-01,1.70954e-01,9.99999e-01,1.70954e-01,9.99999e-01
7.098344834e-01,1.77024e-01,9.99999e-01,1.77024e-01,9.99999e-01
7.133836558e-01,1.83183e-01,9.99999e-01,1.83183e-01,9.99999e-01
7.169505741e-01,1.89428e-01,9.99999e-01,1.89428e-01,9.99999e-01
7.205353270e-01,1.95757e-01,9.99999e-01,1.95757e-01,9.99999e-01
7.241380036e-01,2.02166e-01,9.99999e-01,2.02166e-01,9.99999e-01
7.277586936e-01,2.08651e-01,9.99999e-01,2.08651e-01,9.99999e-01
7.313974871e-01,2.15211e-01,9.99999e-01,2.15211e-01,9.99999e-01
7.350544745e-01,2.21841e-01,9.99999e-01,2.21841e-01,9.99999e-01
7.387297469e-01,2.28538e-01,9.99999e-01,2.28538e-01,9.99999e-01
7.424233956e-01,2.35300e-01,9.99999e-01,2.35300e-01,9.99999e-01
7.461355126e-01,2.42121e-01,9.99999e-01,2.42121e-01,9.99999e-01
7.498661902e-01,2.49000e-01,9.99999e-01,2.49000e-01,9.99999e-01
7.536155211e-01,2.55933e-01,9.99999e-01,2.55933e-01,9.99999e-01
7.573835987e-01,2.62916e-01,9.99999e-01,2.62916e-01,9.99999e-01
7.611705167e-01,2.69946e-01,9.99999e-01,2.69946e-01,9.99999e-01
7.649763693e-01,2.77020e-01,9.99999e-01,2.77020e-01,9.99999e-01
7.688012511e-01,2.84134e-01,9.99999e-01,2.84134e-01,9.99999e-01
7.726452574e-01,2.91284e-01,9.99999e-01,2.91284e-01,9.99999e-01
7.765084837e-01,2.97357e-01,9.96277e-01,2.98468e-01,9.99999e-01
7.803910261e-01,2.39462e-01,7.83367e-01,3.05682e-01,9.99999e-01
7.842929812e-01,2.59928e-01,8.30645e-01,3.12923e-01,9.99999e-01
7.882144461e-01,2.61141e-01,8.15586e-01,3.20187e-01,9.99999e-01
7.921555184e-01,2.85486e-01,8.71788e-01,3.27471e-01,9.99999e-01
7.961162960e-01,3.09166e-01,9.23509e-01,3.34773e-01,9.99999e-01
8.000968774e-01,3.28344e-01,9.59823e-01,3.42088e-01,9.99999e-01
8.040973618e-01,3.42915e-01,9.81401e-01,3.49413e-01,9.99999e-01
8.081178486e-01,3.54115e-01,9.92622e-01,3.56746e-01,9.99999e-01
8.121584379e-01,3.63369e-01,9.98034e-01,3.64084e-01,9.99999e-01
8.162192301e-01,3.71374e-01,9.99866e-01,3.71423e-01,9.99999e-01
8.203003262e-01,3.78761e-01,9.99999e-01,3.78761e-01,9.99999e-01
8.244018279e-01,3.86094e-01,9.99999e-01,3.86094e-01,9.99999e-01
8.285238370e-01,3.93421e-01,9.99999e-01,3.93421e-01,9.99999e-01
8.326664562e-01,4.00737e-01,9.99999e-01,4.00737e-01,9.99999e-01
8.368297885e-01,4.08041e-01,9.99999e-01,4.08041e-01,9.99999e-01
8.410139374e-01,4.15330e-01,9.99999e-01,4.15330e-01,9.99999e-01
8.452190071e-01,4.22602e-01,9.99999e-01,4.22602e-01,9.99999e-01
8.494451021e-01,4.29853e-01,9.99999e-01,4.29853e-01,9.99999e-01
8.536923276e-01,4.37082e-01,9.99999e-01,4.37082e-01,9.99999e-01
8.579607893e-01,4.44286e-01,9.99999e-01,4.44286e-01,9.99999e-01
8.622505932e-01,4.50755e-01,9.98430e-01,4.51463e-01,9.99999e-01
8.665618462e-01,2.55832e-01,5.57840e-01,4.58611e-01,9.99999e-01
8.708946554e-01,2.46512e-01,5.29306e-01,4.65727e-01,9.99999e-01
8.752491287e-01,3.17067e-01,6.70600e-01,4.72810e-01,9.99999e-01
8.796253743e-01,3.94738e-01,8.22613e-01,4.79858e-01,9.99999e-01
8.840235012e-01,4.46469e-01,9.17021e-01,4.86868e-01,9.99999e-01
8.884436187e-01,4.77198e-01,9.66300e-01,4.93839e-01,9.99999e-01
8.928858368e-01,4.95607e-01,9.89689e-01,5.00770e-01,9.99999e-01
8.973502660e-01,5.06643e-01,9.98001e-01,5.07658e-01,9.99999e-01
9.018370173e-01,5.13719e-01,9.98477e-01,5.14502e-01,9.99999e-01
9.063462024e-01,5.00647e-01,9.60380e-01,5.21300e-01,9.99999e-01
9.108779334e-01,5.18585e-01,9.82072e-01,5.28051e-01,9.99999e-01
9.154323231e-01,5.19806e-01,9.72047e-01,5.34754e-01,9.99999e-01
9.200094847e-01,4.40538e-01,8.13692e-01,5.41406e-01,9.99999e-01
9.246095321e-01,4.76731e-01,8.69933e-01,5.48008e-01,9.99999e-01
9.292325798e-01,4.75159e-01,8.56824e-01,5.54557e-01,9.99999e-01
9.338787427e-01,4.94122e-01,8.80703e-01,5.61053e-01,9.99999e-01
9.385481364e-01,5.29350e-01,9.32784e-01,5.67495e-01,9.99999e-01
9.432408771e-01,5.50166e-01,9.58675e-01,5.73881e-01,9.99999e-01
9.479570815e-01,5.67242e-01,9.77648e-01,5.80211e-01,9.99999e-01
9.526968669e-01,5.80800e-01,9.90309e-01,5.86483e-01,9.99999e-01
9.574603512e-01,5.90684e-01,9.96602e-01,5.92697e-01,9.99999e-01
9.622476530e-01,5.98195e-01,9.98901e-01,5.98853e-01,9.99999e-01
9.670588912e-01,6.04846e-01,9.99829e-01,6.04949e-01,9.99999e-01
9.718941857e-01,6.10984e-01,9.99999e-01,6.10984e-01,9.99999e-01
9.767536566e-01,6.16959e-01,9.99999e-01,6.16959e-01,9.99999e-01
9.816374249e-01,6.22873e-01,9.99999e-01,6.22873e-01,9.99999e-01
9.865456120e-01,6.28725e-01,9.99999e-01,6.28725e-01,9.99999e-01
9.914783401e-01,6.34514e-01,9.99999e-01,6.34514e-01,9.99999e-01
9.964357318e-01,6.40241e-01,9.99999e-01,6.40241e-01,9.99999e-01
1.001417910e+00,6.45905e-01,9.99999e-01,6.45905e-01,9.99999e-01
1.006425000e+00,6.51506e-01,9.99999e-01,6.51506e-01,9.99999e-01
1.011457125e+00,6.57043e-01,9.99999e-01,6.57043e-01,9.99999e-01
1.016514411e+00,6.62516e-01,9.99998e-01,6.62517e-01,9.99999e-01
1.021596983e+00,6.66829e-01,9.98355e-01,6.67927e-01,9.99999e-01
1.026704968e+00,6.64471e-01,9.86926e-01,6.73272e-01,9.99999e-01
1.031838492e+00,2.86933e-01,4.22859e-01,6.78554e-01,9.99999e-01
1.036997685e+00,7.74085e-03,1.13208e-02,6.83772e-01,9.99999e-01
1.042182673e+00,5.80453e-02,8.42548e-02,6.88925e-01,9.99999e-01
1.047393587e+00,3.76100e-03,5.41919e-03,6.94014e-01,9.99999e-01
1.052630555e+00,1.64444e-04,2.35242e-04,6.99040e-01,9.99999e-01
1.057893707e+00,8.16065e-04,1.15918e-03,7.04001e-01,9.99999e-01
1.063183176e+00,9.50038e-03,1.34016e-02,7.08899e-01,9.99999e-01
1.068499092e+00,4.79352e-02,6.71612e-02,7.13733e-01,9.99999e-01
1.073841587e+00,9.58892e-02,1.33457e-01,7.18503e-01,9.99999e-01
1.079210795e+00,2.46504e-01,3.40847e-01,7.23210e-01,9.99999e-01
1.084606849e+00,3.93214e-01,5.40237e-01,7.27854e-01,9.99999e-01
1.090029883e+00,5.41426e-01,7.39213e-01,7.32435e-01,9.99999e-01
1.095480033e+00,6.35071e-01,8.61751e-01,7.36954e-01,9.99999e-01
1.100957433e+00,6.95994e-01,9.38742e-01,7.41410e-01,9.99999e-01
1.106462220e+00,7.26672e-01,9.74345e-01,7.45805e-01,9.99999e-01
1.111994531e+00,7.44497e-01,9.92478e-01,7.50138e-01,9.99999e-01
1.117554504e+00,7.53476e-01,9.98761e-01,7.54410e-01,9.99999e-01
1.123142276e+00,7.58616e-01,9.99992e-01,7.58621e-01,9.99999e-01
1.128757988e+00,7.62772e-01,9.99999e-01,7.62772e-01,9.99999e-01
1.134401778e+00,7.66863e-01,9.99999e-01,7.66863e-01,9.99999e-01
1.140073787e+00,7.70895e-01,9.99999e-01,7.70895e-01,9.99999e-01
1.145774156e+00,7.74867e-01,9.99999e-01,7.74867e-01,9.99999e-01
1.151503026e+00,7.78781e-01,9.99999e-01,7.78781e-01,9.99999e-01
1.157260541e+00,7.82636e-01,9.99999e-01,7.82636e-01,9.99999e-01
1.163046844e+00,7.86434e-01,9.99999e-01,7.86434e-01,9.99999e-01
1.168862078e+00,7.90175e-01,9.99999e-01,7.90175e-01,9.99999e-01
1.174706389e+00,7.93859e-01,9.99999e-01,7.93859e-01,9.99999e-01
1.180579921e+00,7.97487e-01,9.99999e-01,7.97487e-01,9.99999e-01
1.186482820e+00,7.99320e-01,9.97827e-01,8.01060e-01,9.99999e-01
1.192415234e+00,7.58011e-01,9.42122e-01,8.04578e-01,9.99999e-01
1.198377311e+00,6.64605e-02,8.22489e-02,8.08041e-01,9.99999e-01
1.204369197e+00,1.01238e-85,1.24762e-85,8.11450e-01,9.99999e-01
1.210391043e+00,2.05826e-65,2.52607e-65,8.14805e-01,9.99999e-01
1.216442998e+00,3.71596e-57,4.54213e-57,8.18108e-01,9.99999e-01
1.222525213e+00,2.14022e-44,2.60570e-44,8.21359e-01,9.99999e-01
1.228637839e+00,6.84833e-34,8.30545e-34,8.24558e-01,9.99999e-01
1.234781029e+00,9.45701e-23,1.14256e-22,8.27706e-01,9.99999e-01
1.240954934e+00,4.44822e-14,5.35412e-14,8.30803e-01,9.99999e-01
1.247159708e+00,3.25873e-07,3.90804e-07,8.33851e-01,9.99999e-01
1.253395507e+00,3.11892e-05,3.72698e-05,8.36849e-01,9.99999e-01
1.259662485e+00,2.94452e-03,3.50622e-03,8.39798e-01,9.99999e-01
1.265960797e+00,5.57132e-02,6.61128e-02,8.42699e-01,9.99999e-01
1.272290601e+00,1.78065e-01,2.10590e-01,8.45553e-01,9.99999e-01
1.278652054e+00,1.98040e-02,2.33439e-02,8.48359e-01,9.99999e-01
1.285045314e+00,6.32818e-07,7.43512e-07,8.51120e-01,9.99999e-01
1.291470541e+00,5.71647e-07,6.69506e-07,8.53834e-01,9.99999e-01
1.297927893e+00,1.39078e-02,1.62379e-02,8.56503e-01,9.99999e-01
1.304417533e+00,2.33430e-02,2.71706e-02,8.59128e-01,9.99999e-01
1.310939621e+00,2.19008e-04,2.54156e-04,8.61708e-01,9.99999e-01
1.317494319e+00,1.04478e-21,1.20889e-21,8.64245e-01,9.99999e-01
1.324081790e+00,7.83726e-10,9.04223e-10,8.66739e-01,9.99999e-01
1.330702199e+00,1.04029e-09,1.19685e-09,8.69191e-01,9.99999e-01
1.337355710e+00,7.31559e-09,8.39327e-09,8.71602e-01,9.99999e-01
1.344042489e+00,7.28325e-11,8.33351e-11,8.73971e-01,9.99999e-01
1.350762701e+00,1.75879e-07,2.00707e-07,8.76299e-01,9.99999e-01
1.357516515e+00,4.47546e-05,5.09392e-05,8.78588e-01,9.99999e-01
1.364304097e+00,3.08818e-03,3.50596e-03,8.80837e-01,9.99999e-01
1.371125618e+00,1.71821e-02,1.94577e-02,8.83047e-01,9.99999e-01
1.377981246e+00,7.73742e-02,8.74067e-02,8.85219e-01,9.99999e-01
1.384871152e+00,9.94521e-02,1.12077e-01,8.87354e-01,9.99999e-01
1.391795508e+00,2.21502e-01,2.49032e-01,8.89451e-01,9.99999e-01
1.398754485e+00,2.96207e-01,3.32252e-01,8.91512e-01,9.99999e-01
1.405748258e+00,4.50653e-01,5.04347e-01,8.93536e-01,9.99999e-01
1.412776999e+00,5.61530e-01,6.27040e-01,8.95525e-01,9.99999e-01
1.419840884e+00,1.06541e-01,1.18712e-01,8.97479e-01,9.99999e-01
1.426940089e+00,1.78555e-144,1.98527e-144,8.99399e-01,9.99999e-01
1.434074789e+00,0.00000e+00,0.00000e+00,9.01284e-01,9.99999e-01
1.441245163e+00,0.00000e+00,0.00000e+00,9.03136e-01,9.99999e-01
1.448451389e+00,0.00000e+00,0.00000e+00,9.04956e-01,9.99999e-01
1.455693646e+00,0.00000e+00,0.00000e+00,9.06743e-01,9.99999e-01
1.462972114e+00,1.45109e-156,1.59724e-156,9.08498e-01,9.99999e-01
1.470286975e+00,2.83750e-103,3.11737e-103,9.10221e-01,9.99999e-01
1.477638409e+00,9.42187e-50,1.03320e-49,9.11914e-01,9.99999e-01
1.485026601e+00,1.12820e-38,1.23493e-38,9.13577e-01,9.99999e-01
1.492451734e+00,1.30719e-20,1.42829e-20,9.15209e-01,9.99999e-01
1.499913993e+00,8.17642e-14,8.91831e-14,9.16812e-01,9.99999e-01
1.507413563e+00,2.39250e-14,2.60511e-14,9.18386e-01,9.99999e-01
1.514950631e+00,2.32822e-29,2.53086e-29,9.19932e-01,9.99999e-01
1.522525384e+00,2.00885e-79,2.18010e-79,9.21450e-01,9.99999e-01
1.530138011e+00,1.04707e-87,1.13449e-87,9.22940e-01,9.99999e-01
1.537788701e+00,1.22689e-38,1.32722e-38,9.24403e-01,9.99999e-01
1.545477645e+00,2.05990e-14,2.22490e-14,9.25839e-01,9.99999e-01
1.553205033e+00,1.38446e-13,1.49309e-13,9.27250e-01,9.99999e-01
1.560971058e+00,1.75218e-37,1.88684e-37,9.28634e-01,9.99999e-01
1.568775913e+00,0.00000e+00,0.00000e+00,9.29993e-01,9.99999e-01
1.576619793e+00,0.00000e+00,0.00000e+00,9.31327e-01,9.99999e-01
1.584502892e+00,4.56348e-265,4.89309e-265,9.32637e-01,9.99999e-01
1.592425406e+00,4.43404e-265,4.74775e-265,9.33923e-01,9.99999e-01
1.600387533e+00,0.00000e+00,0.00000e+00,9.35184e-01,9.99999e-01
1.608389471e+00,0.00000e+00,0.00000e+00,9.36423e-01,9.99999e-01
1.616431418e+00,0.00000e+00,0.00000e+00,9.37639e-01,9.99999e-01
1.624513575e+00,3.36370e-275,3.58285e-275,9.38832e-01,9.99999e-01
1.632636143e+00,4.93360e-135,5.24848e-135,9.40003e-01,9.99999e-01
1.640799324e+00,3.06378e-102,3.25534e-102,9.41153e-01,9.99999e-01
1.649003321e+00,4.18883e-80,4.44541e-80,9.42281e-01,9.99999e-01
1.657248337e+00,3.88453e-79,4.11763e-79,9.43388e-01,9.99999e-01
1.665534579e+00,2.82408e-56,2.99010e-56,9.44475e-01,9.99999e-01
1.673862252e+00,5.77063e-45,6.10299e-45,9.45541e-01,9.99999e-01
1.682231563e+00,1.43668e-24,1.51775e-24,9.46587e-01,9.99999e-01
1.690642721e+00,5.43229e-16,5.73259e-16,9.47614e-01,9.99999e-01
1.699095934e+00,1.46087e-08,1.53999e-08,9.48622e-01,9.99999e-01
1.707591414e+00,2.34856e-05,2.47318e-05,9.49611e-01,9.99999e-01
1.716129371e+00,2.85387e-03,3.00224e-03,9.50581e-01,9.99999e-01
1.724710018e+00,2.66500e-02,2.80074e-02,9.51533e-01,9.99999e-01
1.733333568e+00,1.18011e-01,1.23900e-01,9.52467e-01,9.99999e-01
1.742000236e+00,4.41156e-02,4.62726e-02,9.53384e-01,9.99999e-01
1.750710237e+00,6.86878e-08,7.19783e-08,9.54283e-01,9.99999e-01
1.759463788e+00,1.40732e-50,1.47338e-50,9.55166e-01,9.99999e-01
1.768261107e+00,8.33634e-50,8.71972e-50,9.56032e-01,9.99999e-01
1.777102413e+00,1.05701e-49,1.10464e-49,9.56881e-01,9.99999e-01
1.785987925e+00,2.38313e-44,2.48835e-44,9.57715e-01,9.99999e-01
1.794917864e+00,2.99904e-45,3.12878e-45,9.58532e-01,9.99999e-01
1.803892454e+00,5.41244e-41,5.64187e-41,9.59334e-01,9.99999e-01
1.812911916e+00,6.57838e-49,6.85160e-49,9.60121e-01,9.99999e-01
1.821976476e+00,6.59653e-36,6.86499e-36,9.60893e-01,9.99999e-01
1.831086358e+00,9.51052e-33,9.88978e-33,9.61651e-01,9.99999e-01
1.840241790e+00,2.65497e-20,2.75871e-20,9.62394e-01,9.99999e-01
1.849442999e+00,3.38310e-19,3.51263e-19,9.63123e-01,9.99999e-01
1.858690214e+00,1.42995e-18,1.48360e-18,9.63838e-01,9.99999e-01
1.867983665e+00,1.75087e-29,1.81524e-29,9.64539e-01,9.99999e-01
1.877323583e+00,1.05089e-93,1.08875e-93,9.65227e-01,9.99999e-01
