#,Wave/freq,Total,CO2,Rayleigh,CIA
4.000000000e-01,2.04744e-14,9.99999e-01,2.04744e-14,9.99999e-01
4.020000000e-01,3.81847e-14,9.99999e-01,3.81847e-14,9.99999e-01
4.040100000e-01,7.02959e-14,9.99999e-01,7.02959e-14,9.99999e-01
4.060300500e-01,1.27860e-13,9.99999e-01,1.27860e-13,9.99999e-01
4.080602003e-01,2.29832e-13,9.99999e-01,2.29832e-13,9.99999e-01
4.101005013e-01,4.08369e-13,9.99999e-01,4.08369e-13,9.99999e-01
4.121510038e-01,7.17407e-13,9.99999e-01,7.17407e-13,9.99999e-01
4.142117588e-01,1.24636e-12,9.99999e-01,1.24636e-12,9.99999e-01
4.162828176e-01,2.14183e-12,9.99999e-01,2.14183e-12,9.99999e-01
4.183642317e-01,3.64150e-12,9.99999e-01,3.64150e-12,9.99999e-01
4.204560528e-01,6.12666e-12,9.99999e-01,6.12666e-12,9.99999e-01
4.225583331e-01,1.02024e-11,9.99999e-01,1.02024e-11,9.99999e-01
4.246711247e-01,1.68193e-11,9.99999e-01,1.68193e-11,9.99999e-01
4.267944804e-01,2.74553e-11,9.99999e-01,2.74553e-11,9.99999e-01
4.289284528e-01,4.43853e-11,9.99999e-01,4.43853e-11,9.99999e-01
4.310730950e-01,7.10775e-11,9.99999e-01,7.10775e-11,9.99999e-01
4.332284605e-01,1.12768e-10,9.99999e-01,1.12768e-10,9.99999e-01
4.353946028e-01,1.77288e-10,9.99999e-01,1.77288e-10,9.99999e-01
4.375715758e-01,2.76244e-10,9.99999e-01,2.76244e-10,9.99999e-01
4.397594337e-01,4.26678e-10,9.99999e-01,4.26678e-10,9.99999e-01
4.419582309e-01,6.53400e-10,9.99999e-01,6.53400e-10,9.99999e-01
4.441680220e-01,9.92207e-10,9.99999e-01,9.92207e-10,9.99999e-01
4.463888621e-01,1.49431e-09,9.99999e-01,1.49431e-09,9.99999e-01
4.486208064e-01,2.23238e-09,9.99999e-01,2.23238e-09,9.99999e-01
4.508639105e-01,3.30865e-09,9.99999e-01,3.30865e-09,9.99999e-01
4.531182300e-01,4.86586e-09,9.99999e-01,4.86586e-09,9.99999e-01
4.553838212e-01,7.10164e-09,9.99999e-01,7.10164e-09,9.99999e-01
4.576607403e-01,1.02876e-08,9.99999e-01,1.02876e-08,9.99999e-01
4.599490440e-01,1.47942e-08,9.99999e-01,1.47942e-08,9.99999e-01
4.622487892e-01,2.11228e-08,9.99999e-01,2.11228e-08,9.99999e-01
4.645600332e-01,2.99472e-08,9.99999e-01,2.99472e-08,9.99999e-01
4.668828333e-01,4.21664e-08,9.99999e-01,4.21664e-08,9.99999e-01
4.692172475e-01,5.89715e-08,9.99999e-01,5.89715e-08,9.99999e-01
4.715633337e-01,8.19294e-08,9.99999e-01,8.19294e-08,9.99999e-01
4.739211504e-01,1.13088e-07,9.99999e-01,1.13088e-07,9.99999e-01
4.762907561e-01,1.55106e-07,9.99999e-01,1.55106e-07,9.99999e-01
4.786722099e-01,2.11413e-07,9.99999e-01,2.11413e-07,9.99999e-01
4.810655710e-01,2.86402e-07,9.99999e-01,2.86402e-07,9.99999e-01
4.834708988e-01,3.85671e-07,9.99999e-01,3.85671e-07,9.99999e-01
4.858882533e-01,5.16304e-07,9.99999e-01,5.16304e-07,9.99999e-01
4.883176946e-01,6.87212e-07,9.99999e-01,6.87212e-07,9.99999e-01
4.907592831e-01,9.09544e-07,9.99999e-01,9.09544e-07,9.99999e-01
4.932130795e-01,1.19716e-06,9.99999e-01,1.19716e-06,9.99999e-01
4.956791449e-01,1.56719e-06,9.99999e-01,1.56719e-06,9.99999e-01
4.981575406e-01,2.04072e-06,9.99999e-01,2.04072e-06,9.99999e-01
5.006483283e-01,2.64350e-06,9.99999e-01,2.64350e-06,9.99999e-01
5.031515699e-01,3.40687e-06,9.99999e-01,3.40687e-06,9.99999e-01
5.056673278e-01,4.36873e-06,9.99999e-01,4.36873e-06,9.99999e-01
5.081956644e-01,5.57470e-06,9.99999e-01,5.57470e-06,9.99999e-01
5.107366428e-01,7.07940e-06,9.99999e-01,7.07940e-06,9.99999e-01
5.132903260e-01,8.94791e-06,9.99999e-01,8.94791e-06,9.99999e-01
5.158567776e-01,1.12574e-05,9.99999e-01,1.12574e-05,9.99999e-01
5.184360615e-01,1.40989e-05,9.99999e-01,1.40989e-05,9.99999e-01
5.210282418e-01,1.75792e-05,9.99999e-01,1.75792e-05,9.99999e-01
5.236333830e-01,2.18234e-05,9.99999e-01,2.18234e-05,9.99999e-01
5.262515499e-01,2.69768e-05,9.99999e-01,2.69768e-05,9.99999e-01
5.288828077e-01,3.32078e-05,9.99999e-01,3.32078e-05,9.99999e-01
5.315272217e-01,4.07105e-05,9.99999e-01,4.07105e-05,9.99999e-01
5.341848578e-01,4.97079e-05,9.99999e-01,4.97079e-05,9.99999e-01
5.368557821e-01,6.04549e-05,9.99999e-01,6.04549e-05,9.99999e-01
5.395400610e-01,7.32418e-05,9.99999e-01,7.32418e-05,9.99999e-01
5.422377613e-01,8.83975e-05,9.99999e-01,8.83975e-05,9.99999e-01
5.449489501e-01,1.06294e-04,9.99999e-01,1.06294e-04,9.99999e-01
5.476736949e-01,1.27349e-04,9.99999e-01,1.27349e-04,9.99999e-01
5.504120634e-01,1.52030e-04,9.99999e-01,1.52030e-04,9.99999e-01
5.531641237e-01,1.80862e-04,9.99999e-01,1.80862e-04,9.99999e-01
5.559299443e-01,2.14424e-04,9.99999e-01,2.14424e-04,9.99999e-01
5.587095940e-01,2.53361e-04,9.99999e-01,2.53361e-04,9.99999e-01
5.615031420e-01,2.98383e-04,9.99999e-01,2.98383e-04,9.99999e-01
5.643106577e-01,3.50273e-04,9.99999e-01,3.50273e-04,9.99999e-01
5.671322110e-01,4.09886e-04,9.99999e-01,4.09886e-04,9.99999e-01
5.699678720e-01,4.78158e-04,9.99999e-01,4.78158e-04,9.99999e-01
5.728177114e-01,5.56107e-04,9.99999e-01,5.56107e-04,9.99999e-01
5.756818000e-01,6.44836e-04,9.99999e-01,6.44836e-04,9.99999e-01
5.785602090e-01,7.45540e-04,9.99999e-01,7.45540e-04,9.99999e-01
5.814530100e-01,8.59502e-04,9.99999e-01,8.59502e-04,9.99999e-01
5.843602750e-01,9.88106e-04,9.99999e-01,9.88106e-04,9.99999e-01
5.872820764e-01,1.13283e-03,9.99999e-01,1.13283e-03,9.99999e-01
5.902184868e-01,1.29524e-03,9.99999e-01,1.29524e-03,9.99999e-01
5.931695792e-01,1.47703e-03,9.99999e-01,1.47703e-03,9.99999e-01
5.961354271e-01,1.67997e-03,9.99999e-01,1.67997e-03,9.99999e-01
5.991161043e-01,1.90593e-03,9.99999e-01,1.90593e-03,9.99999e-01
6.021116848e-01,2.15691e-03,9.99999e-01,2.15691e-03,9.99999e-01
6.051222432e-01,2.43498e-03,9.99999e-01,2.43498e-03,9.99999e-01
6.081478544e-01,2.74233e-03,9.99999e-01,2.74233e-03,9.99999e-01
6.111885937e-01,3.08122e-03,9.99999e-01,3.08122e-03,9.99999e-01
6.142445367e-01,3.45403e-03,9.99999e-01,3.45403e-03,9.99999e-01
6.173157594e-01,3.86323e-03,9.99999e-01,3.86323e-03,9.99999e-01
6.204023382e-01,4.31136e-03,9.99999e-01,4.31136e-03,9.99999e-01
6.235043498e-01,4.80105e-03,9.99999e-01,4.80105e-03,9.99999e-01
6.266218716e-01,5.33502e-03,9.99999e-01,5.33502e-03,9.99999e-01
6.297549810e-01,5.91603e-03,9.99999e-01,5.91603e-03,9.99999e-01
6.329037559e-01,6.54694e-03,9.99999e-01,6.54694e-03,9.99999e-01
6.360682746e-01,7.23065e-03,9.99999e-01,7.23065e-03,9.99999e-01
6.392486160e-01,7.97010e-03,9.99999e-01,7.97010e-03,9.99999e-01
6.424448591e-01,8.76829e-03,9.99999e-01,8.76829e-03,9.99999e-01
6.456570834e-01,9.62825e-03,9.99999e-01,9.62825e-03,9.99999e-01
6.488853688e-01,1.05530e-02,9.99999e-01,1.05530e-02,9.99999e-01
6.521297956e-01,1.15457e-02,9.99999e-01,1.15457e-02,9.99999e-01
6.553904446e-01,1.26093e-02,9.99999e-01,1.26093e-02,9.99999e-01
6.586673968e-01,1.37470e-02,9.99999e-01,1.37470e-02,9.99999e-01
6.619607338e-01,1.49618e-02,9.99999e-01,1.49618e-02,9.99999e-01
6.652705375e-01,1.62567e-02,9.99999e-01,1.62567e-02,9.99999e-01
6.685968902e-01,1.76347e-02,9.99999e-01,1.76347e-02,9.99999e-01
6.719398746e-01,1.90989e-02,9.99999e-01,1.90989e-02,9.99999e-01
6.752995740e-01,2.06520e-02,9.99999e-01,2.06520e-02,9.99999e-01
6.786760719e-01,2.22969e-02,9.99999e-01,2.22969e-02,9.99999e-01
6.820694522e-01,2.40365e-02,9.99999e-01,2.40365e-02,9.99999e-01
6.854797995e-01,2.58734e-02,9.99999e-01,2.58734e-02,9.99999e-01
6.889071985e-01,2.78102e-02,9.99999e-01,2.78102e-02,9.99999e-01
6.923517345e-01,2.98493e-02,9.99999e-01,2.98493e-02,9.99999e-01
6.958134932e-01,3.19932e-02,9.99999e-01,3.19932e-02,9.99999e-01
6.992925606e-01,3.42442e-02,9.99999e-01,3.42442e-02,9.99999e-01
7.027890234e-01,3.66043e-02,9.99999e-01,3.66043e-02,9.99999e-01
7.063029686e-01,3.90756e-02,9.99999e-01,3.90756e-02,9.99999e-01
7.098344834e-01,4.16600e-02,9.99999e-01,4.16600e-02,9.99999e-01
7.133836558e-01,4.43592e-02,9.99999e-01,4.43592e-02,9.99999e-01
7.169505741e-01,4.71747e-02,9.99999e-01,4.71747e-02,9.99999e-01
7.205353270e-01,5.01079e-02,9.99999e-01,5.01079e-02,9.99999e-01
7.241380036e-01,5.31602e-02,9.99999e-01,5.31602e-02,9.99999e-01
7.277586936e-01,5.63325e-02,9.99999e-01,5.63325e-02,9.99999e-01
7.313974871e-01,5.96259e-02,9.99999e-01,5.96259e-02,9.99999e-01
7.350544745e-01,6.30410e-02,9.99999e-01,6.30410e-02,9.99999e-01
7.387297469e-01,6.65784e-02,9.99999e-01,6.65784e-02,9.99999e-01
7.424233956e-01,7.02386e-02,9.99999e-01,7.02386e-02,9.99999e-01
7.461355126e-01,7.40216e-02,9.99999e-01,7.40216e-02,9.99999e-01
7.498661902e-01,7.79276e-02,9.99999e-01,7.79276e-02,9.99999e-01
7.536155211e-01,8.19565e-02,9.99999e-01,8.19565e-02,9.99999e-01
7.573835987e-01,8.61079e-02,9.99999e-01,8.61079e-02,9.99999e-01
7.611705167e-01,9.03812e-02,9.99999e-01,9.03812e-02,9.99999e-01
7.649763693e-01,9.47760e-02,9.99999e-01,9.47760e-02,9.99999e-01
7.688012511e-01,9.92913e-02,9.99999e-01,9.92913e-02,9.99999e-01
7.726452574e-01,1.03926e-01,9.99999e-01,1.03926e-01,9.99999e-01
7.765084837e-01,1.08679e-01,9.99999e-01,1.08679e-01,9.99999e-01
7.803910261e-01,1.04549e-01,9.20734e-01,1.13549e-01,9.99999e-01
7.842929812e-01,7.64106e-02,6.44623e-01,1.18535e-01,9.99999e-01
7.882144461e-01,7.81573e-02,6.32161e-01,1.23635e-01,9.99999e-01
7.921555184e-01,9.72439e-02,7.54724e-01,1.28847e-01,9.99999e-01
7.961162960e-01,1.10635e-01,8.24595e-01,1.34169e-01,9.99999e-01
8.000968774e-01,1.25752e-01,9.00808e-01,1.39599e-01,9.99999e-01
8.040973618e-01,1.37417e-01,9.46815e-01,1.45136e-01,9.99999e-01
8.081178486e-01,1.47065e-01,9.75392e-01,1.50776e-01,9.99999e-01
8.121584379e-01,1.55300e-01,9.92222e-01,1.56517e-01,9.99999e-01
8.162192301e-01,1.62077e-01,9.98275e-01,1.62357e-01,9.99999e-01
8.203003262e-01,1.68288e-01,9.99969e-01,1.68293e-01,9.99999e-01
8.244018279e-01,1.74322e-01,9.99999e-01,1.74322e-01,9.99999e-01
8.285238370e-01,1.80442e-01,9.99999e-01,1.80442e-01,9.99999e-01
8.326664562e-01,1.86649e-01,9.99999e-01,1.86649e-01,9.99999e-01
8.368297885e-01,1.92942e-01,9.99999e-01,1.92942e-01,9.99999e-01
8.410139374e-01,1.99315e-01,9.99999e-01,1.99315e-01,9.99999e-01
8.452190071e-01,2.05767e-01,9.99999e-01,2.05767e-01,9.99999e-01
8.494451021e-01,2.12295e-01,9.99999e-01,2.12295e-01,9.99999e-01
8.536923276e-01,2.18894e-01,9.99999e-01,2.18894e-01,9.99999e-01
8.579607893e-01,2.25562e-01,9.99999e-01,2.25562e-01,9.99999e-01
8.622505932e-01,2.32295e-01,9.99999e-01,2.32295e-01,9.99999e-01
8.665618462e-01,2.10025e-01,8.78432e-01,2.39090e-01,9.99999e-01
8.708946554e-01,8.44761e-02,3.43476e-01,2.45945e-01,9.99999e-01
8.752491287e-01,1.03128e-01,4.07856e-01,2.52854e-01,9.99999e-01
8.796253743e-01,1.56550e-01,6.02544e-01,2.59815e-01,9.99999e-01
8.840235012e-01,2.04257e-01,7.65508e-01,2.66825e-01,9.99999e-01
8.884436187e-01,2.46114e-01,8.98621e-01,2.73880e-01,9.99999e-01
8.928858368e-01,2.69105e-01,9.57750e-01,2.80976e-01,9.99999e-01
8.973502660e-01,2.85069e-01,9.89443e-01,2.88111e-01,9.99999e-01
9.018370173e-01,2.94934e-01,9.98826e-01,2.95280e-01,9.99999e-01
9.063462024e-01,2.94191e-01,9.72592e-01,3.02481e-01,9.99999e-01
9.108779334e-01,2.89421e-01,9.34488e-01,3.09711e-01,9.99999e-01
9.154323231e-01,3.11872e-01,9.83931e-01,3.16965e-01,9.99999e-01
9.200094847e-01,2.66262e-01,8.21186e-01,3.24240e-01,9.99999e-01
9.246095321e-01,2.38606e-01,7.19702e-01,3.31535e-01,9.99999e-01
9.292325798e-01,2.64156e-01,7.79579e-01,3.38844e-01,9.99999e-01
9.338787427e-01,2.70301e-01,7.80845e-01,3.46165e-01,9.99999e-01
9.385481364e-01,2.94297e-01,8.32535e-01,3.53495e-01,9.99999e-01
9.432408771e-01,3.22088e-01,8.92627e-01,3.60831e-01,9.99999e-01
9.479570815e-01,3.47422e-01,9.43646e-01,3.68170e-01,9.99999e-01
9.526968669e-01,3.65129e-01,9.72357e-01,3.75509e-01,9.99999e-01
9.574603512e-01,3.78274e-01,9.88060e-01,3.82844e-01,9.99999e-01
9.622476530e-01,3.88713e-01,9.96253e-01,3.90174e-01,9.99999e-01
9.670588912e-01,3.97047e-01,9.98870e-01,3.97496e-01,9.99999e-01
9.718941857e-01,4.04772e-01,9.99916e-01,4.04806e-01,9.99999e-01
9.767536566e-01,4.12102e-01,9.99999e-01,4.12102e-01,9.99999e-01
9.816374249e-01,4.19381e-01,9.99999e-01,4.19381e-01,9.99999e-01
9.865456120e-01,4.26642e-01,9.99999e-01,4.26642e-01,9.99999e-01
9.914783401e-01,4.33881e-01,9.99999e-01,4.33881e-01,9.99999e-01
9.964357318e-01,4.41096e-01,9.99999e-01,4.41096e-01,9.99999e-01
1.001417910e+00,4.48285e-01,9.99999e-01,4.48285e-01,9.99999e-01
1.006425000e+00,4.55446e-01,9.99999e-01,4.55446e-01,9.99999e-01
1.011457125e+00,4.62577e-01,9.99999e-01,4.62577e-01,9.99999e-01
1.016514411e+00,4.69675e-01,9.99999e-01,4.69675e-01,9.99999e-01
1.021596983e+00,4.76679e-01,9.99874e-01,4.76738e-01,9.99999e-01
1.026704968e+00,4.78517e-01,9.89149e-01,4.83766e-01,9.99999e-01
1.031838492e+00,4.48910e-01,9.14734e-01,4.90754e-01,9.99999e-01
1.036997685e+00,2.72213e-02,5.46938e-02,4.97703e-01,9.99999e-01
1.042182673e+00,1.95785e-03,3.87991e-03,5.04610e-01,9.99999e-01
1.047393587e+00,5.21650e-03,1.01989e-02,5.11474e-01,9.99999e-01
1.052630555e+00,7.48631e-07,1.44442e-06,5.18292e-01,9.99999e-01
1.057893707e+00,2.70666e-06,5.15490e-06,5.25064e-01,9.99999e-01
1.063183176e+00,6.47222e-05,1.21706e-04,5.31789e-01,9.99999e-01
1.068499092e+00,6.31338e-04,1.17248e-03,5.38464e-01,9.99999e-01
1.073841587e+00,6.98203e-03,1.28090e-02,5.45088e-01,9.99999e-01
1.079210795e+00,3.57009e-02,6.47153e-02,5.51661e-01,9.99999e-01
1.084606849e+00,1.17523e-01,2.10546e-01,5.58181e-01,9.99999e-01
1.090029883e+00,2.49889e-01,4.42559e-01,5.64646e-01,9.99999e-01
1.095480033e+00,3.81181e-01,6.67499e-01,5.71057e-01,9.99999e-01
1.100957433e+00,4.74733e-01,8.22173e-01,5.77412e-01,9.99999e-01
1.106462220e+00,5.38150e-01,9.21947e-01,5.83710e-01,9.99999e-01
1.111994531e+00,5.72426e-01,9.70295e-01,5.89950e-01,9.99999e-01
1.117554504e+00,5.91722e-01,9.92602e-01,5.96132e-01,9.99999e-01
1.123142276e+00,6.01957e-01,9.99506e-01,6.02254e-01,9.99999e-01
1.128757988e+00,6.08316e-01,9.99999e-01,6.08316e-01,9.99999e-01
1.134401778e+00,6.14318e-01,9.99999e-01,6.14318e-01,9.99999e-01
1.140073787e+00,6.20259e-01,9.99999e-01,6.20259e-01,9.99999e-01
1.145774156e+00,6.26139e-01,9.99999e-01,6.26139e-01,9.99999e-01
1.151503026e+00,6.31956e-01,9.99999e-01,6.31956e-01,9.99999e-01
1.157260541e+00,6.37711e-01,9.99999e-01,6.37711e-01,9.99999e-01
1.163046844e+00,6.43403e-01,9.99999e-01,6.43403e-01,9.99999e-01
1.168862078e+00,6.49031e-01,9.99999e-01,6.49031e-01,9.99999e-01
1.174706389e+00,6.54597e-01,9.99999e-01,6.54597e-01,9.99999e-01
1.180579921e+00,6.60099e-01,9.99999e-01,6.60099e-01,9.99999e-01
1.186482820e+00,6.65531e-01,9.99990e-01,6.65537e-01,9.99999e-01
1.192415234e+00,6.46342e-01,9.63378e-01,6.70911e-01,9.99999e-01
1.198377311e+00,3.53091e-01,5.22152e-01,6.76221e-01,9.99999e-01
1.204369197e+00,1.43506e-29,2.10584e-29,6.81467e-01,9.99999e-01
1.210391043e+00,1.26616e-119,1.84396e-119,6.86649e-01,9.99999e-01
1.216442998e+00,1.60448e-103,2.31940e-103,6.91767e-01,9.99999e-01
1.222525213e+00,5.71787e-102,8.20565e-102,6.96820e-01,9.99999e-01
1.228637839e+00,1.15405e-78,1.64439e-78,7.01810e-01,9.99999e-01
1.234781029e+00,1.25809e-59,1.78014e-59,7.06736e-01,9.99999e-01
1.240954934e+00,1.69386e-32,2.38036e-32,7.11598e-01,9.99999e-01
1.247159708e+00,8.87803e-21,1.23926e-20,7.16396e-01,9.99999e-01
1.253395507e+00,1.12926e-10,1.56596e-10,7.21131e-01,9.99999e-01
1.259662485e+00,9.85832e-07,1.35826e-06,7.25803e-01,9.99999e-01
1.265960797e+00,6.09244e-04,8.34109e-04,7.30412e-01,9.99999e-01
1.272290601e+00,2.15343e-02,2.93000e-02,7.34959e-01,9.99999e-01
1.278652054e+00,2.60353e-02,3.52094e-02,7.39443e-01,9.99999e-01
1.285045314e+00,3.49670e-05,4.70072e-05,7.43865e-01,9.99999e-01
1.291470541e+00,3.80184e-14,5.08114e-14,7.48225e-01,9.99999e-01
1.297927893e+00,3.41079e-06,4.53247e-06,7.52524e-01,9.99999e-01
1.304417533e+00,1.76167e-03,2.32790e-03,7.56762e-01,9.99999e-01
1.310939621e+00,4.90629e-04,6.44766e-04,7.60940e-01,9.99999e-01
1.317494319e+00,1.08467e-40,1.41776e-40,7.65057e-01,9.99999e-01
1.324081790e+00,1.02275e-26,1.32978e-26,7.69115e-01,9.99999e-01
1.330702199e+00,6.74971e-16,8.73055e-16,7.73113e-01,9.99999e-01
1.337355710e+00,1.40096e-14,1.80291e-14,7.77053e-01,9.99999e-01
1.344042489e+00,7.60628e-15,9.73996e-15,7.80934e-01,9.99999e-01
1.350762701e+00,3.23443e-16,4.12157e-16,7.84758e-01,9.99999e-01
1.357516515e+00,6.02913e-10,7.64608e-10,7.88524e-01,9.99999e-01
1.364304097e+00,2.50062e-07,3.15642e-07,7.92233e-01,9.99999e-01
1.371125618e+00,3.86422e-04,4.85524e-04,7.95886e-01,9.99999e-01
1.377981246e+00,1.09667e-03,1.37172e-03,7.99483e-01,9.99999e-01
1.384871152e+00,1.72073e-02,2.14281e-02,8.03025e-01,9.99999e-01
1.391795508e+00,2.30978e-02,2.86391e-02,8.06512e-01,9.99999e-01
1.398754485e+00,8.65606e-02,1.06872e-01,8.09945e-01,9.99999e-01
1.405748258e+00,1.59018e-01,1.95516e-01,8.13324e-01,9.99999e-01
1.412776999e+00,2.88346e-01,3.53083e-01,8.16651e-01,9.99999e-01
1.419840884e+00,2.78536e-01,3.39709e-01,8.19924e-01,9.99999e-01
1.426940089e+00,1.03832e-02,1.26141e-02,8.23146e-01,9.99999e-01
1.434074789e+00,0.00000e+00,0.00000e+00,8.26317e-01,9.99999e-01
1.441245163e+00,0.00000e+00,0.00000e+00,8.29436e-01,9.99999e-01
1.448451389e+00,0.00000e+00,0.00000e+00,8.32506e-01,9.99999e-01
1.455693646e+00,0.00000e+00,0.00000e+00,8.35526e-01,9.99999e-01
1.462972114e+00,0.00000e+00,0.00000e+00,8.38497e-01,9.99999e-01
1.470286975e+00,2.80664e-198,3.33560e-198,8.41419e-01,9.99999e-01
1.477638409e+00,2.23934e-124,2.65232e-124,8.44294e-01,9.99999e-01
1.485026601e+00,5.56890e-69,6.57390e-69,8.47121e-01,9.99999e-01
1.492451734e+00,9.84040e-59,1.15783e-58,8.49902e-01,9.99999e-01
1.499913993e+00,3.92880e-25,4.60782e-25,8.52636e-01,9.99999e-01
1.507413563e+00,7.04968e-24,8.24209e-24,8.55326e-01,9.99999e-01
1.514950631e+00,1.92007e-25,2.23792e-25,8.57970e-01,9.99999e-01
1.522525384e+00,3.17634e-88,3.69097e-88,8.60570e-01,9.99999e-01
1.530138011e+00,1.20875e-211,1.40043e-211,8.63126e-01,9.99999e-01
1.537788701e+00,2.21672e-156,2.56079e-156,8.65639e-01,9.99999e-01
1.545477645e+00,1.74005e-32,2.00441e-32,8.68110e-01,9.99999e-01
1.553205033e+00,8.94465e-24,1.02748e-23,8.70538e-01,9.99999e-01
1.560971058e+00,5.85328e-24,6.70535e-24,8.72926e-01,9.99999e-01
1.568775913e+00,0.00000e+00,0.00000e+00,8.75272e-01,9.99999e-01
1.576619793e+00,0.00000e+00,0.00000e+00,8.77578e-01,9.99999e-01
1.584502892e+00,0.00000e+00,0.00000e+00,8.79845e-01,9.99999e-01
1.592425406e+00,0.00000e+00,0.00000e+00,8.82072e-01,9.99999e-01
1.600387533e+00,0.00000e+00,0.00000e+00,8.84261e-01,9.99999e-01
1.608389471e+00,0.00000e+00,0.00000e+00,8.86412e-01,9.99999e-01
1.616431418e+00,0.00000e+00,0.00000e+00,8.88526e-01,9.99999e-01
1.624513575e+00,0.00000e+00,0.00000e+00,8.90603e-01,9.99999e-01
1.632636143e+00,0.00000e+00,0.00000e+00,8.92643e-01,9.99999e-01
1.640799324e+00,1.20378e-183,1.34554e-183,8.94648e-01,9.99999e-01
1.649003321e+00,1.20573e-183,1.34475e-183,8.96617e-01,9.99999e-01
1.657248337e+00,9.27174e-142,1.03185e-141,8.98552e-01,9.99999e-01
1.665534579e+00,1.03543e-142,1.14989e-142,9.00453e-01,9.99999e-01
1.673862252e+00,9.58636e-91,1.06241e-90,9.02319e-01,9.99999e-01
1.682231563e+00,1.27947e-62,1.41510e-62,9.04153e-01,9.99999e-01
1.690642721e+00,1.77063e-34,1.95444e-34,9.05955e-01,9.99999e-01
1.699095934e+00,6.61689e-22,7.28953e-22,9.07724e-01,9.99999e-01
1.707591414e+00,4.38229e-11,4.81856e-11,9.09461e-01,9.99999e-01
1.716129371e+00,7.70637e-07,8.45768e-07,9.11168e-01,9.99999e-01
1.724710018e+00,2.65431e-04,2.90774e-04,9.12843e-01,9.99999e-01
1.733333568e+00,3.97305e-03,4.34456e-03,9.14489e-01,9.99999e-01
1.742000236e+00,3.91147e-02,4.26967e-02,9.16105e-01,9.99999e-01
1.750710237e+00,9.08812e-05,9.90323e-05,9.17692e-01,9.99999e-01
1.759463788e+00,1.25545e-86,1.36573e-86,9.19250e-01,9.99999e-01
1.768261107e+00,1.11620e-90,1.21223e-90,9.20780e-01,9.99999e-01
1.777102413e+00,2.10809e-88,2.28573e-88,9.22283e-01,9.99999e-01
1.785987925e+00,1.12287e-82,1.21554e-82,9.23758e-01,9.99999e-01
1.794917864e+00,6.31255e-79,6.82286e-79,9.25206e-01,9.99999e-01
1.803892454e+00,8.08503e-76,8.72521e-76,9.26628e-01,9.99999e-01
1.812911916e+00,7.64299e-73,8.23576e-73,9.28024e-01,9.99999e-01
1.821976476e+00,6.60519e-73,7.10699e-73,9.29394e-01,9.99999e-01
1.831086358e+00,2.14107e-58,2.30040e-58,9.30739e-01,9.99999e-01
1.840241790e+00,1.06228e-49,1.13971e-49,9.32059e-01,9.99999e-01
1.849442999e+00,1.77454e-34,1.90125e-34,9.33356e-01,9.99999e-01
1.858690214e+00,1.69386e-32,1.81234e-32,9.34628e-01,9.99999e-01
1.867983665e+00,5.15957e-33,5.51308e-33,9.35877e-01,9.99999e-01
1.877323583e+00,3.17155e-166,3.38442e-166,9.37103e-01,9.99999e-01
